TS,I,If,II,IIf,III,IIIf,aVR,aVRf,aVL,aVLf,aVF,aVFf,V1,V1f,V2,V2f,V3,V3f,V4,V4f,V5,V5f,V6,V6f
1,0,1,-16,1,-16,1,8,1,8,1,-16,1,8,1,-16,1,-35,1,-15,1,-15,1,-22,1
2,-1,1,-16,1,-15,1,8,1,7,1,-16,1,8,1,-15,1,-35,1,-15,1,-15,1,-22,1
3,-1,1,-16,1,-15,1,8,1,7,1,-16,1,8,1,-15,1,-35,1,-14,1,-15,1,-22,1
4,0,1,-17,1,-17,1,8,1,8,1,-17,1,8,1,-14,1,-35,1,-14,1,-15,1,-21,1
5,1,1,-17,1,-18,1,8,1,9,1,-17,1,9,1,-14,1,-34,1,-13,1,-15,1,-21,1
6,1,1,-17,1,-18,1,8,1,9,1,-17,1,8,1,-15,1,-35,1,-13,1,-15,1,-22,1
7,0,1,-18,1,-18,1,9,1,9,1,-18,1,7,1,-15,1,-35,1,-14,1,-16,1,-22,1
8,1,1,-19,1,-20,1,9,1,10,1,-19,1,7,1,-16,1,-35,1,-14,1,-17,1,-22,1
9,1,1,-19,1,-20,1,9,1,10,1,-19,1,7,1,-16,1,-36,1,-14,1,-17,1,-22,1
10,1,1,-18,1,-19,1,8,1,10,1,-18,1,7,1,-16,1,-37,1,-14,1,-17,1,-22,1
11,0,1,-18,1,-18,1,9,1,9,1,-18,1,7,1,-16,1,-37,1,-14,1,-17,1,-22,1
12,0,1,-19,1,-19,1,9,1,9,1,-19,1,7,1,-16,1,-37,1,-14,1,-16,1,-22,1
13,0,1,-18,1,-18,1,9,1,9,1,-18,1,7,1,-16,1,-37,1,-14,1,-16,1,-23,1
14,0,1,-18,1,-18,1,9,1,9,1,-18,1,7,1,-16,1,-36,1,-14,1,-17,1,-23,1
15,1,1,-18,1,-19,1,8,1,10,1,-18,1,7,1,-16,1,-36,1,-13,1,-17,1,-23,1
16,1,1,-18,1,-19,1,8,1,10,1,-18,1,7,1,-15,1,-35,1,-13,1,-17,1,-23,1
17,1,1,-19,1,-20,1,9,1,10,1,-19,1,7,1,-15,1,-35,1,-13,1,-17,1,-23,1
18,1,1,-18,1,-19,1,8,1,10,1,-18,1,7,1,-15,1,-35,1,-13,1,-18,1,-22,1
19,0,1,-18,1,-18,1,9,1,9,1,-18,1,8,1,-15,1,-34,1,-14,1,-18,1,-22,1
20,0,1,-19,1,-19,1,9,1,9,1,-19,1,8,1,-15,1,-34,1,-14,1,-18,1,-22,1
21,-1,1,-19,1,-18,1,10,1,8,1,-19,1,8,1,-16,1,-34,1,-14,1,-17,1,-22,1
22,-1,1,-19,1,-18,1,10,1,8,1,-19,1,8,1,-16,1,-35,1,-14,1,-16,1,-22,1
23,0,1,-19,1,-19,1,9,1,9,1,-19,1,9,1,-16,1,-35,1,-14,1,-16,1,-22,1
24,0,1,-19,1,-19,1,9,1,9,1,-19,1,9,1,-16,1,-34,1,-14,1,-16,1,-21,1
25,1,1,-18,1,-19,1,8,1,10,1,-18,1,9,1,-16,1,-34,1,-14,1,-16,1,-21,1
26,1,1,-18,1,-19,1,8,1,10,1,-18,1,9,1,-16,1,-34,1,-13,1,-17,1,-21,1
27,1,1,-17,1,-18,1,8,1,9,1,-17,1,10,1,-17,1,-34,1,-13,1,-17,1,-20,1
28,2,1,-16,1,-18,1,7,1,10,1,-17,1,10,1,-17,1,-33,1,-13,1,-17,1,-21,1
29,2,1,-14,1,-16,1,6,1,9,1,-15,1,10,1,-16,1,-33,1,-12,1,-17,1,-20,1
30,4,1,-14,1,-18,1,5,1,11,1,-16,1,11,1,-16,1,-32,1,-11,1,-17,1,-20,1
31,3,1,-12,1,-15,1,4,1,9,1,-13,1,11,1,-15,1,-30,1,-11,1,-16,1,-19,1
32,3,1,-11,1,-14,1,4,1,8,1,-12,1,12,1,-14,1,-30,1,-10,1,-15,1,-19,1
33,3,1,-11,1,-14,1,4,1,8,1,-12,1,13,1,-14,1,-30,1,-10,1,-15,1,-18,1
34,3,1,-11,1,-14,1,4,1,8,1,-12,1,13,1,-13,1,-30,1,-10,1,-14,1,-18,1
35,3,1,-13,1,-16,1,5,1,9,1,-14,1,13,1,-14,1,-32,1,-10,1,-14,1,-18,1
36,3,1,-14,1,-17,1,5,1,10,1,-15,1,13,1,-14,1,-31,1,-11,1,-15,1,-18,1
37,3,1,-14,1,-17,1,5,1,10,1,-15,1,12,1,-13,1,-28,1,-12,1,-15,1,-18,1
38,4,1,-14,1,-18,1,5,1,11,1,-16,1,12,1,-13,1,-25,1,-12,1,-15,1,-18,1
39,5,1,-14,1,-19,1,4,1,12,1,-16,1,10,1,-12,1,-22,1,-12,1,-15,1,-19,1
40,5,1,-16,1,-21,1,5,1,13,1,-18,1,9,1,-13,1,-21,1,-12,1,-15,1,-19,1
41,5,1,-16,1,-21,1,5,1,13,1,-18,1,8,1,-14,1,-20,1,-12,1,-14,1,-19,1
42,6,1,-17,1,-23,1,5,1,14,1,-20,1,7,1,-13,1,-16,1,-12,1,-13,1,-18,1
43,7,1,-16,1,-23,1,4,1,15,1,-19,1,6,1,-12,1,-14,1,-11,1,-12,1,-17,1
44,10,1,-14,1,-24,1,2,1,17,1,-19,1,5,1,-12,1,-11,1,-10,1,-12,1,-16,1
45,12,1,-13,1,-25,1,0,1,18,1,-19,1,5,1,-11,1,-10,1,-9,1,-12,1,-15,1
46,12,1,-12,1,-24,1,0,1,18,1,-18,1,3,1,-11,1,-10,1,-9,1,-12,1,-15,1
47,12,1,-12,1,-24,1,0,1,18,1,-18,1,2,1,-11,1,-11,1,-8,1,-12,1,-15,1
48,11,1,-11,1,-22,1,0,1,16,1,-16,1,2,1,-11,1,-11,1,-8,1,-12,1,-15,1
49,11,1,-10,1,-21,1,0,1,16,1,-15,1,2,1,-10,1,-12,1,-8,1,-11,1,-15,1
50,11,1,-10,1,-21,1,0,1,16,1,-15,1,3,1,-10,1,-13,1,-8,1,-11,1,-15,1
51,10,1,-10,1,-20,1,0,1,15,1,-15,1,5,1,-9,1,-13,1,-8,1,-11,1,-15,1
52,10,1,-10,1,-20,1,0,1,15,1,-15,1,5,1,-9,1,-12,1,-8,1,-10,1,-15,1
53,10,1,-10,1,-20,1,0,1,15,1,-15,1,6,1,-9,1,-12,1,-9,1,-10,1,-15,1
54,10,1,-10,1,-20,1,0,1,15,1,-15,1,6,1,-10,1,-13,1,-9,1,-11,1,-15,1
55,10,1,-12,1,-22,1,1,1,16,1,-17,1,6,1,-10,1,-14,1,-9,1,-11,1,-15,1
56,11,1,-13,1,-24,1,1,1,17,1,-18,1,6,1,-10,1,-14,1,-9,1,-11,1,-15,1
57,11,1,-14,1,-25,1,1,1,18,1,-19,1,6,1,-10,1,-13,1,-9,1,-12,1,-15,1
58,10,1,-14,1,-24,1,2,1,17,1,-19,1,5,1,-11,1,-13,1,-10,1,-13,1,-15,1
59,10,1,-14,1,-24,1,2,1,17,1,-19,1,5,1,-12,1,-13,1,-10,1,-12,1,-15,1
60,9,1,-14,1,-23,1,2,1,16,1,-18,1,5,1,-13,1,-13,1,-11,1,-12,1,-16,1
61,8,1,-14,1,-22,1,3,1,15,1,-18,1,5,1,-13,1,-13,1,-11,1,-12,1,-16,1
62,8,1,-15,1,-23,1,3,1,15,1,-19,1,5,1,-13,1,-13,1,-11,1,-11,1,-16,1
63,7,1,-15,1,-22,1,4,1,14,1,-18,1,5,1,-14,1,-14,1,-11,1,-12,1,-17,1
64,6,1,-16,1,-22,1,5,1,14,1,-19,1,5,1,-14,1,-14,1,-12,1,-12,1,-17,1
65,5,1,-16,1,-21,1,5,1,13,1,-18,1,6,1,-15,1,-14,1,-12,1,-12,1,-18,1
66,4,1,-16,1,-20,1,6,1,12,1,-18,1,6,1,-15,1,-14,1,-12,1,-13,1,-18,1
67,3,1,-17,1,-20,1,7,1,11,1,-18,1,6,1,-16,1,-14,1,-12,1,-14,1,-18,1
68,3,1,-19,1,-22,1,8,1,12,1,-20,1,6,1,-16,1,-15,1,-13,1,-14,1,-20,1
69,2,1,-20,1,-22,1,9,1,12,1,-21,1,5,1,-18,1,-16,1,-14,1,-14,1,-20,1
70,2,1,-20,1,-22,1,9,1,12,1,-21,1,4,1,-18,1,-17,1,-16,1,-15,1,-20,1
71,0,1,-22,1,-22,1,11,1,11,1,-22,1,4,1,-18,1,-19,1,-17,1,-16,1,-22,1
72,0,1,-22,1,-22,1,11,1,11,1,-22,1,3,1,-20,1,-19,1,-17,1,-17,1,-22,1
73,-1,1,-24,1,-23,1,12,1,11,1,-24,1,3,1,-21,1,-20,1,-19,1,-17,1,-22,1
74,-2,1,-25,1,-23,1,13,1,10,1,-24,1,3,1,-23,1,-20,1,-20,1,-17,1,-22,1
75,-2,1,-26,1,-24,1,14,1,11,1,-25,1,2,1,-24,1,-21,1,-21,1,-18,1,-22,1
76,-2,1,-28,1,-26,1,15,1,12,1,-27,1,1,1,-25,1,-21,1,-22,1,-18,1,-24,1
77,-2,1,-29,1,-27,1,15,1,12,1,-28,1,1,1,-25,1,-22,1,-23,1,-19,1,-24,1
78,-2,1,-29,1,-27,1,15,1,12,1,-28,1,1,1,-25,1,-22,1,-24,1,-20,1,-24,1
79,-2,1,-29,1,-27,1,15,1,12,1,-28,1,1,1,-25,1,-22,1,-24,1,-19,1,-24,1
80,-3,1,-29,1,-26,1,16,1,11,1,-28,1,2,1,-25,1,-22,1,-23,1,-19,1,-24,1
81,-3,1,-29,1,-26,1,16,1,11,1,-28,1,2,1,-25,1,-22,1,-23,1,-19,1,-24,1
82,-4,1,-30,1,-26,1,17,1,11,1,-28,1,2,1,-25,1,-22,1,-23,1,-18,1,-24,1
83,-4,1,-29,1,-25,1,16,1,10,1,-27,1,2,1,-25,1,-23,1,-23,1,-18,1,-24,1
84,-5,1,-29,1,-24,1,17,1,9,1,-27,1,1,1,-25,1,-23,1,-23,1,-19,1,-24,1
85,-4,1,-28,1,-24,1,16,1,10,1,-26,1,0,1,-24,1,-22,1,-23,1,-19,1,-23,1
86,-2,1,-28,1,-26,1,15,1,12,1,-27,1,0,1,-24,1,-20,1,-23,1,-19,1,-24,1
87,-2,1,-27,1,-25,1,14,1,11,1,-26,1,0,1,-23,1,-19,1,-22,1,-20,1,-24,1
88,-2,1,-27,1,-25,1,14,1,11,1,-26,1,-1,1,-23,1,-18,1,-22,1,-20,1,-24,1
89,-2,1,-27,1,-25,1,14,1,11,1,-26,1,-1,1,-23,1,-17,1,-21,1,-20,1,-24,1
90,-2,1,-27,1,-25,1,14,1,11,1,-26,1,0,1,-23,1,-15,1,-21,1,-20,1,-23,1
91,-2,1,-26,1,-24,1,14,1,11,1,-25,1,0,1,-22,1,-13,1,-21,1,-19,1,-23,1
92,-2,1,-26,1,-24,1,14,1,11,1,-25,1,2,1,-20,1,-10,1,-19,1,-18,1,-23,1
93,-2,1,-25,1,-23,1,13,1,10,1,-24,1,3,1,-17,1,-6,1,-18,1,-17,1,-22,1
94,-2,1,-25,1,-23,1,13,1,10,1,-24,1,4,1,-14,1,-2,1,-17,1,-16,1,-22,1
95,-2,1,-25,1,-23,1,13,1,10,1,-24,1,6,1,-10,1,1,1,-16,1,-15,1,-23,1
96,-4,1,-24,1,-20,1,14,1,8,1,-22,1,8,1,-7,1,4,1,-14,1,-15,1,-22,1
97,-4,1,-21,1,-17,1,12,1,6,1,-19,1,9,1,-4,1,8,1,-12,1,-14,1,-21,1
98,-4,1,-18,1,-14,1,11,1,5,1,-16,1,12,1,-1,1,10,1,-9,1,-12,1,-20,1
99,-4,1,-14,1,-10,1,9,1,3,1,-12,1,15,1,2,1,14,1,-5,1,-10,1,-18,1
100,-3,1,-11,1,-8,1,7,1,2,1,-10,1,18,1,8,1,20,1,0,1,-6,1,-15,1
101,-1,1,-8,1,-7,1,4,1,3,1,-8,1,21,1,18,1,31,1,8,1,0,1,-12,1
102,1,1,-5,1,-6,1,2,1,3,1,-5,1,26,1,31,1,47,1,19,1,9,1,-9,1
103,5,1,-2,1,-7,1,-1,1,6,1,-4,1,32,1,51,1,66,1,32,1,20,1,-4,1
104,9,1,2,1,-7,1,-5,1,8,1,-2,1,37,1,70,1,87,1,49,1,32,1,2,1
105,15,1,8,1,-7,1,-11,1,11,1,1,1,39,1,80,1,104,1,67,1,46,1,11,1
106,21,1,17,1,-4,1,-19,1,13,1,7,1,38,1,78,1,116,1,85,1,61,1,23,1
107,28,1,26,1,-2,1,-27,1,15,1,12,1,33,1,59,1,121,1,100,1,77,1,36,1
108,34,1,36,1,2,1,-35,1,16,1,19,1,21,1,24,1,119,1,114,1,92,1,49,1
109,40,1,44,1,4,1,-42,1,18,1,24,1,7,1,-12,1,116,1,124,1,105,1,61,1
110,44,1,46,1,2,1,-45,1,21,1,24,1,-5,1,-49,1,113,1,127,1,113,1,67,1
111,45,1,42,1,-3,1,-43,1,24,1,20,1,-16,1,-88,1,103,1,120,1,112,1,66,1
112,43,1,33,1,-10,1,-38,1,27,1,12,1,-24,1,-128,1,85,1,105,1,102,1,58,1
113,40,1,21,1,-19,1,-30,1,30,1,1,1,-30,1,-163,1,63,1,85,1,87,1,47,1
114,36,1,7,1,-29,1,-21,1,33,1,-11,1,-34,1,-192,1,37,1,64,1,69,1,34,1
115,30,1,-8,1,-38,1,-11,1,34,1,-23,1,-39,1,-221,1,0,1,35,1,47,1,20,1
116,21,1,-24,1,-45,1,1,1,33,1,-34,1,-44,1,-253,1,-54,1,-4,1,20,1,6,1
117,10,1,-43,1,-53,1,16,1,31,1,-48,1,-46,1,-283,1,-114,1,-48,1,-9,1,-9,1
118,0,1,-60,1,-60,1,30,1,30,1,-60,1,-48,1,-302,1,-161,1,-88,1,-37,1,-25,1
119,-9,1,-77,1,-68,1,43,1,29,1,-73,1,-49,1,-309,1,-191,1,-120,1,-61,1,-40,1
120,-16,1,-92,1,-76,1,54,1,30,1,-84,1,-53,1,-308,1,-208,1,-143,1,-80,1,-53,1
121,-22,1,-105,1,-83,1,63,1,30,1,-94,1,-59,1,-304,1,-215,1,-158,1,-94,1,-65,1
122,-25,1,-114,1,-89,1,69,1,32,1,-102,1,-67,1,-300,1,-217,1,-166,1,-103,1,-75,1
123,-27,1,-119,1,-92,1,73,1,32,1,-106,1,-74,1,-294,1,-216,1,-168,1,-108,1,-80,1
124,-27,1,-123,1,-96,1,75,1,34,1,-110,1,-79,1,-286,1,-213,1,-166,1,-110,1,-83,1
125,-27,1,-126,1,-99,1,76,1,36,1,-113,1,-82,1,-274,1,-210,1,-165,1,-109,1,-83,1
126,-28,1,-127,1,-99,1,77,1,35,1,-113,1,-83,1,-255,1,-203,1,-162,1,-109,1,-83,1
127,-29,1,-129,1,-100,1,79,1,35,1,-115,1,-82,1,-233,1,-192,1,-159,1,-108,1,-82,1
128,-29,1,-127,1,-98,1,78,1,34,1,-113,1,-80,1,-208,1,-178,1,-153,1,-105,1,-81,1
129,-28,1,-123,1,-95,1,75,1,33,1,-109,1,-77,1,-185,1,-159,1,-144,1,-102,1,-79,1
130,-27,1,-116,1,-89,1,71,1,31,1,-103,1,-73,1,-164,1,-138,1,-132,1,-97,1,-76,1
131,-25,1,-106,1,-81,1,65,1,28,1,-94,1,-67,1,-146,1,-116,1,-116,1,-87,1,-71,1
132,-22,1,-93,1,-71,1,57,1,24,1,-82,1,-60,1,-130,1,-95,1,-99,1,-75,1,-63,1
133,-18,1,-76,1,-58,1,47,1,20,1,-67,1,-51,1,-116,1,-77,1,-81,1,-60,1,-54,1
134,-14,1,-60,1,-46,1,37,1,16,1,-53,1,-43,1,-102,1,-63,1,-66,1,-48,1,-44,1
135,-10,1,-48,1,-38,1,29,1,14,1,-43,1,-35,1,-87,1,-53,1,-54,1,-38,1,-36,1
136,-7,1,-39,1,-32,1,23,1,12,1,-36,1,-28,1,-71,1,-45,1,-48,1,-31,1,-30,1
137,-5,1,-35,1,-30,1,20,1,12,1,-33,1,-22,1,-55,1,-37,1,-45,1,-28,1,-27,1
138,-5,1,-35,1,-30,1,20,1,12,1,-33,1,-16,1,-41,1,-29,1,-43,1,-28,1,-26,1
139,-3,1,-35,1,-32,1,19,1,14,1,-34,1,-13,1,-28,1,-20,1,-41,1,-28,1,-26,1
140,-2,1,-35,1,-33,1,18,1,15,1,-34,1,-10,1,-20,1,-12,1,-40,1,-27,1,-26,1
141,-2,1,-33,1,-31,1,17,1,14,1,-32,1,-9,1,-16,1,-4,1,-35,1,-24,1,-25,1
142,-2,1,-31,1,-29,1,16,1,13,1,-30,1,-8,1,-16,1,0,1,-29,1,-21,1,-23,1
143,-1,1,-29,1,-28,1,15,1,13,1,-29,1,-7,1,-18,1,3,1,-24,1,-18,1,-20,1
144,-1,1,-26,1,-25,1,13,1,12,1,-26,1,-6,1,-20,1,1,1,-20,1,-15,1,-17,1
145,-1,1,-24,1,-23,1,12,1,11,1,-24,1,-6,1,-19,1,0,1,-18,1,-13,1,-16,1
146,0,1,-24,1,-24,1,12,1,12,1,-24,1,-6,1,-17,1,-1,1,-18,1,-13,1,-16,1
147,-1,1,-23,1,-22,1,12,1,10,1,-23,1,-5,1,-15,1,-1,1,-20,1,-13,1,-16,1
148,0,1,-23,1,-23,1,11,1,11,1,-23,1,-4,1,-12,1,0,1,-20,1,-13,1,-16,1
149,0,1,-23,1,-23,1,11,1,11,1,-23,1,-4,1,-8,1,2,1,-21,1,-13,1,-16,1
150,0,1,-23,1,-23,1,11,1,11,1,-23,1,-3,1,-6,1,5,1,-21,1,-13,1,-16,1
151,0,1,-23,1,-23,1,11,1,11,1,-23,1,-2,1,-5,1,6,1,-19,1,-12,1,-16,1
152,-1,1,-22,1,-21,1,11,1,10,1,-22,1,-2,1,-6,1,7,1,-19,1,-12,1,-15,1
153,-1,1,-21,1,-20,1,11,1,9,1,-21,1,-2,1,-6,1,7,1,-19,1,-11,1,-16,1
154,0,1,-21,1,-21,1,10,1,10,1,-21,1,-2,1,-5,1,9,1,-17,1,-11,1,-15,1
155,0,1,-21,1,-21,1,10,1,10,1,-21,1,-1,1,-4,1,9,1,-16,1,-11,1,-15,1
156,2,1,-21,1,-23,1,9,1,12,1,-22,1,-1,1,-4,1,9,1,-16,1,-11,1,-15,1
157,3,1,-21,1,-24,1,9,1,13,1,-22,1,-1,1,-3,1,11,1,-16,1,-10,1,-15,1
158,2,1,-21,1,-23,1,9,1,12,1,-22,1,-1,1,-3,1,12,1,-16,1,-9,1,-15,1
159,2,1,-20,1,-22,1,9,1,12,1,-21,1,0,1,-2,1,13,1,-16,1,-9,1,-15,1
160,2,1,-20,1,-22,1,9,1,12,1,-21,1,0,1,-2,1,14,1,-16,1,-9,1,-14,1
161,2,1,-19,1,-21,1,8,1,11,1,-20,1,0,1,-2,1,15,1,-15,1,-9,1,-14,1
162,1,1,-19,1,-20,1,9,1,10,1,-19,1,0,1,-1,1,15,1,-15,1,-9,1,-14,1
163,2,1,-19,1,-21,1,8,1,11,1,-20,1,1,1,-2,1,15,1,-15,1,-8,1,-14,1
164,3,1,-18,1,-21,1,7,1,12,1,-19,1,1,1,-1,1,15,1,-14,1,-8,1,-14,1
165,3,1,-17,1,-20,1,7,1,11,1,-18,1,0,1,-1,1,16,1,-14,1,-8,1,-13,1
166,3,1,-17,1,-20,1,7,1,11,1,-18,1,0,1,-1,1,17,1,-14,1,-8,1,-13,1
167,3,1,-18,1,-21,1,7,1,12,1,-19,1,0,1,-1,1,17,1,-14,1,-8,1,-13,1
168,2,1,-18,1,-20,1,8,1,11,1,-19,1,0,1,-1,1,17,1,-13,1,-7,1,-13,1
169,2,1,-17,1,-19,1,7,1,10,1,-18,1,0,1,-1,1,17,1,-13,1,-7,1,-13,1
170,3,1,-17,1,-20,1,7,1,11,1,-18,1,0,1,-1,1,18,1,-13,1,-7,1,-13,1
171,3,1,-17,1,-20,1,7,1,11,1,-18,1,0,1,-1,1,20,1,-13,1,-7,1,-12,1
172,3,1,-17,1,-20,1,7,1,11,1,-18,1,0,1,-1,1,21,1,-13,1,-6,1,-12,1
173,4,1,-17,1,-21,1,6,1,12,1,-19,1,0,1,-1,1,20,1,-13,1,-5,1,-12,1
174,4,1,-18,1,-22,1,7,1,13,1,-20,1,0,1,-1,1,20,1,-13,1,-5,1,-12,1
175,4,1,-18,1,-22,1,7,1,13,1,-20,1,0,1,0,1,20,1,-13,1,-5,1,-12,1
176,4,1,-19,1,-23,1,7,1,13,1,-21,1,0,1,0,1,20,1,-13,1,-6,1,-12,1
177,4,1,-18,1,-22,1,7,1,13,1,-20,1,0,1,0,1,21,1,-13,1,-6,1,-12,1
178,4,1,-18,1,-22,1,7,1,13,1,-20,1,0,1,0,1,22,1,-13,1,-7,1,-11,1
179,4,1,-18,1,-22,1,7,1,13,1,-20,1,0,1,1,1,22,1,-12,1,-7,1,-11,1
180,4,1,-19,1,-23,1,7,1,13,1,-21,1,-1,1,2,1,24,1,-11,1,-6,1,-11,1
181,4,1,-19,1,-23,1,7,1,13,1,-21,1,-2,1,2,1,24,1,-10,1,-4,1,-10,1
182,4,1,-19,1,-23,1,7,1,13,1,-21,1,-2,1,2,1,25,1,-10,1,-3,1,-10,1
183,4,1,-18,1,-22,1,7,1,13,1,-20,1,-3,1,3,1,25,1,-9,1,-3,1,-10,1
184,5,1,-17,1,-22,1,6,1,13,1,-19,1,-3,1,3,1,24,1,-9,1,-3,1,-9,1
185,5,1,-16,1,-21,1,5,1,13,1,-18,1,-3,1,4,1,25,1,-9,1,-3,1,-9,1
186,7,1,-15,1,-22,1,4,1,14,1,-18,1,-3,1,4,1,26,1,-9,1,-3,1,-9,1
187,7,1,-15,1,-22,1,4,1,14,1,-18,1,-4,1,5,1,27,1,-8,1,-3,1,-9,1
188,7,1,-15,1,-22,1,4,1,14,1,-18,1,-4,1,6,1,28,1,-8,1,-3,1,-8,1
189,7,1,-15,1,-22,1,4,1,14,1,-18,1,-4,1,6,1,29,1,-8,1,-2,1,-7,1
190,9,1,-14,1,-23,1,2,1,16,1,-18,1,-4,1,6,1,31,1,-7,1,-1,1,-7,1
191,9,1,-13,1,-22,1,2,1,15,1,-17,1,-4,1,7,1,32,1,-5,1,0,1,-5,1
192,10,1,-12,1,-22,1,1,1,16,1,-17,1,-5,1,8,1,33,1,-3,1,1,1,-5,1
193,10,1,-11,1,-21,1,0,1,15,1,-16,1,-5,1,9,1,34,1,-2,1,1,1,-4,1
194,11,1,-9,1,-20,1,-1,1,15,1,-14,1,-6,1,10,1,35,1,-1,1,2,1,-3,1
195,11,1,-9,1,-20,1,-1,1,15,1,-14,1,-6,1,11,1,36,1,0,1,3,1,-3,1
196,12,1,-9,1,-21,1,-1,1,16,1,-15,1,-6,1,12,1,36,1,1,1,3,1,-3,1
197,12,1,-10,1,-22,1,-1,1,17,1,-16,1,-7,1,13,1,37,1,3,1,4,1,-2,1
198,13,1,-8,1,-21,1,-2,1,17,1,-14,1,-7,1,14,1,39,1,4,1,6,1,0,1
199,14,1,-6,1,-20,1,-4,1,17,1,-13,1,-7,1,15,1,40,1,4,1,8,1,1,1
200,14,1,-6,1,-20,1,-4,1,17,1,-13,1,-8,1,17,1,41,1,6,1,8,1,3,1
201,14,1,-5,1,-19,1,-4,1,16,1,-12,1,-8,1,18,1,43,1,7,1,9,1,4,1
202,16,1,-5,1,-21,1,-5,1,18,1,-13,1,-9,1,19,1,44,1,8,1,12,1,4,1
203,16,1,-4,1,-20,1,-6,1,18,1,-12,1,-9,1,20,1,47,1,9,1,13,1,5,1
204,17,1,-3,1,-20,1,-7,1,18,1,-11,1,-10,1,21,1,48,1,11,1,14,1,7,1
205,17,1,-1,1,-18,1,-8,1,17,1,-9,1,-11,1,23,1,49,1,12,1,17,1,8,1
206,17,1,1,1,-16,1,-9,1,17,1,-7,1,-12,1,24,1,50,1,14,1,18,1,8,1
207,17,1,2,1,-15,1,-9,1,16,1,-6,1,-13,1,25,1,53,1,17,1,19,1,9,1
208,17,1,3,1,-14,1,-10,1,16,1,-5,1,-13,1,27,1,54,1,19,1,19,1,10,1
209,19,1,3,1,-16,1,-11,1,18,1,-6,1,-13,1,30,1,55,1,21,1,20,1,12,1
210,19,1,3,1,-16,1,-11,1,18,1,-6,1,-14,1,32,1,58,1,22,1,21,1,14,1
211,19,1,4,1,-15,1,-11,1,17,1,-5,1,-14,1,33,1,60,1,24,1,24,1,15,1
212,19,1,6,1,-13,1,-12,1,16,1,-3,1,-14,1,36,1,62,1,25,1,26,1,17,1
213,20,1,8,1,-12,1,-14,1,16,1,-2,1,-15,1,38,1,65,1,27,1,28,1,18,1
214,22,1,9,1,-13,1,-15,1,18,1,-2,1,-15,1,39,1,68,1,30,1,30,1,20,1
215,23,1,9,1,-14,1,-16,1,19,1,-2,1,-15,1,40,1,71,1,31,1,32,1,21,1
216,24,1,11,1,-13,1,-17,1,19,1,-1,1,-17,1,41,1,73,1,34,1,33,1,23,1
217,25,1,12,1,-13,1,-18,1,19,1,0,1,-17,1,42,1,74,1,35,1,33,1,23,1
218,26,1,15,1,-11,1,-20,1,19,1,2,1,-18,1,43,1,75,1,36,1,35,1,25,1
219,27,1,18,1,-9,1,-22,1,18,1,5,1,-18,1,45,1,76,1,37,1,37,1,26,1
220,27,1,21,1,-6,1,-24,1,17,1,8,1,-18,1,47,1,77,1,39,1,39,1,27,1
221,28,1,22,1,-6,1,-25,1,17,1,8,1,-19,1,48,1,78,1,40,1,40,1,29,1
222,28,1,22,1,-6,1,-25,1,17,1,8,1,-20,1,49,1,80,1,41,1,41,1,29,1
223,28,1,23,1,-5,1,-25,1,17,1,9,1,-21,1,49,1,81,1,42,1,42,1,30,1
224,28,1,23,1,-5,1,-25,1,17,1,9,1,-21,1,49,1,83,1,43,1,44,1,32,1
225,29,1,24,1,-5,1,-26,1,17,1,10,1,-23,1,49,1,84,1,44,1,44,1,32,1
226,30,1,23,1,-7,1,-26,1,19,1,8,1,-24,1,48,1,85,1,45,1,45,1,32,1
227,30,1,23,1,-7,1,-26,1,19,1,8,1,-25,1,48,1,86,1,46,1,45,1,35,1
228,30,1,23,1,-7,1,-26,1,19,1,8,1,-25,1,48,1,86,1,46,1,46,1,35,1
229,30,1,24,1,-6,1,-27,1,18,1,9,1,-26,1,46,1,86,1,46,1,47,1,35,1
230,30,1,24,1,-6,1,-27,1,18,1,9,1,-26,1,45,1,85,1,46,1,47,1,36,1
231,30,1,26,1,-4,1,-28,1,17,1,11,1,-26,1,45,1,85,1,46,1,48,1,36,1
232,31,1,26,1,-5,1,-28,1,18,1,11,1,-26,1,43,1,84,1,46,1,48,1,36,1
233,31,1,27,1,-4,1,-29,1,18,1,12,1,-28,1,43,1,83,1,46,1,48,1,36,1
234,30,1,28,1,-2,1,-29,1,16,1,13,1,-28,1,42,1,83,1,46,1,48,1,35,1
235,31,1,28,1,-3,1,-29,1,17,1,13,1,-28,1,39,1,81,1,47,1,48,1,36,1
236,31,1,29,1,-2,1,-30,1,17,1,14,1,-29,1,38,1,81,1,46,1,48,1,36,1
237,31,1,29,1,-2,1,-30,1,17,1,14,1,-28,1,37,1,81,1,46,1,48,1,36,1
238,31,1,29,1,-2,1,-30,1,17,1,14,1,-28,1,36,1,79,1,45,1,48,1,36,1
239,30,1,29,1,-1,1,-29,1,16,1,14,1,-28,1,35,1,79,1,44,1,48,1,36,1
240,30,1,28,1,-2,1,-29,1,16,1,13,1,-27,1,34,1,78,1,44,1,47,1,35,1
241,29,1,27,1,-2,1,-28,1,16,1,13,1,-27,1,33,1,77,1,43,1,46,1,34,1
242,29,1,27,1,-2,1,-28,1,16,1,13,1,-27,1,32,1,75,1,42,1,45,1,33,1
243,28,1,25,1,-3,1,-26,1,16,1,11,1,-26,1,30,1,74,1,40,1,44,1,33,1
244,27,1,24,1,-3,1,-25,1,15,1,11,1,-25,1,28,1,72,1,40,1,43,1,32,1
245,26,1,22,1,-4,1,-24,1,15,1,9,1,-25,1,25,1,70,1,38,1,42,1,30,1
246,26,1,21,1,-5,1,-23,1,16,1,8,1,-24,1,25,1,69,1,37,1,41,1,29,1
247,26,1,21,1,-5,1,-23,1,16,1,8,1,-23,1,23,1,68,1,36,1,40,1,29,1
248,25,1,21,1,-4,1,-23,1,15,1,9,1,-23,1,22,1,66,1,34,1,39,1,28,1
249,24,1,19,1,-5,1,-21,1,15,1,7,1,-22,1,21,1,64,1,33,1,37,1,27,1
250,23,1,18,1,-5,1,-20,1,14,1,7,1,-21,1,21,1,63,1,32,1,36,1,27,1
251,22,1,16,1,-6,1,-19,1,14,1,5,1,-20,1,19,1,61,1,31,1,35,1,26,1
252,21,1,16,1,-5,1,-18,1,13,1,6,1,-20,1,17,1,59,1,29,1,34,1,24,1
253,20,1,14,1,-6,1,-17,1,13,1,4,1,-18,1,17,1,57,1,27,1,32,1,23,1
254,20,1,12,1,-8,1,-16,1,14,1,2,1,-17,1,16,1,55,1,25,1,30,1,22,1
255,19,1,11,1,-8,1,-15,1,14,1,2,1,-16,1,15,1,53,1,24,1,27,1,20,1
256,18,1,10,1,-8,1,-14,1,13,1,1,1,-15,1,14,1,52,1,22,1,25,1,19,1
257,17,1,8,1,-9,1,-12,1,13,1,0,1,-14,1,12,1,49,1,21,1,23,1,17,1
258,16,1,7,1,-9,1,-11,1,13,1,-1,1,-14,1,11,1,46,1,18,1,21,1,15,1
259,14,1,5,1,-9,1,-9,1,12,1,-2,1,-13,1,10,1,44,1,16,1,20,1,14,1
260,13,1,4,1,-9,1,-8,1,11,1,-2,1,-12,1,9,1,43,1,14,1,19,1,13,1
261,12,1,2,1,-10,1,-7,1,11,1,-4,1,-11,1,8,1,41,1,12,1,17,1,12,1
262,11,1,0,1,-11,1,-5,1,11,1,-5,1,-11,1,7,1,39,1,10,1,14,1,10,1
263,10,1,-1,1,-11,1,-4,1,10,1,-6,1,-10,1,6,1,36,1,7,1,12,1,9,1
264,9,1,-4,1,-13,1,-2,1,11,1,-8,1,-9,1,4,1,33,1,5,1,10,1,7,1
265,9,1,-3,1,-12,1,-3,1,10,1,-7,1,-8,1,3,1,31,1,3,1,8,1,6,1
266,8,1,-4,1,-12,1,-2,1,10,1,-8,1,-8,1,2,1,29,1,1,1,7,1,5,1
267,8,1,-6,1,-14,1,-1,1,11,1,-10,1,-8,1,0,1,26,1,0,1,5,1,3,1
268,6,1,-7,1,-13,1,0,1,9,1,-10,1,-8,1,0,1,25,1,-2,1,4,1,1,1
269,6,1,-8,1,-14,1,1,1,10,1,-11,1,-8,1,-2,1,23,1,-3,1,3,1,0,1
270,5,1,-9,1,-14,1,2,1,9,1,-11,1,-8,1,-3,1,22,1,-4,1,2,1,0,1
271,3,1,-11,1,-14,1,4,1,8,1,-12,1,-8,1,-3,1,21,1,-6,1,2,1,-1,1
272,3,1,-12,1,-15,1,4,1,9,1,-13,1,-7,1,-5,1,18,1,-7,1,0,1,-2,1
273,3,1,-11,1,-14,1,4,1,8,1,-12,1,-7,1,-5,1,17,1,-8,1,0,1,-3,1
274,4,1,-11,1,-15,1,3,1,9,1,-13,1,-7,1,-6,1,16,1,-9,1,-1,1,-3,1
275,4,1,-11,1,-15,1,3,1,9,1,-13,1,-7,1,-8,1,14,1,-10,1,-2,1,-4,1
276,4,1,-12,1,-16,1,4,1,10,1,-14,1,-7,1,-9,1,12,1,-10,1,-3,1,-5,1
277,4,1,-15,1,-19,1,5,1,11,1,-17,1,-7,1,-10,1,11,1,-11,1,-5,1,-5,1
278,4,1,-15,1,-19,1,5,1,11,1,-17,1,-7,1,-11,1,10,1,-11,1,-5,1,-6,1
279,5,1,-15,1,-20,1,5,1,12,1,-17,1,-7,1,-11,1,10,1,-12,1,-5,1,-6,1
280,5,1,-15,1,-20,1,5,1,12,1,-17,1,-7,1,-12,1,10,1,-13,1,-6,1,-6,1
281,4,1,-15,1,-19,1,5,1,11,1,-17,1,-7,1,-13,1,9,1,-13,1,-6,1,-6,1
282,2,1,-17,1,-19,1,7,1,10,1,-18,1,-7,1,-13,1,8,1,-14,1,-7,1,-6,1
283,1,1,-18,1,-19,1,8,1,10,1,-18,1,-7,1,-14,1,7,1,-15,1,-8,1,-7,1
284,1,1,-18,1,-19,1,8,1,10,1,-18,1,-7,1,-13,1,6,1,-15,1,-8,1,-8,1
285,1,1,-19,1,-20,1,9,1,10,1,-19,1,-6,1,-13,1,5,1,-15,1,-9,1,-8,1
286,1,1,-20,1,-21,1,9,1,11,1,-20,1,-6,1,-15,1,4,1,-15,1,-9,1,-8,1
287,0,1,-21,1,-21,1,10,1,10,1,-21,1,-6,1,-16,1,4,1,-16,1,-9,1,-9,1
288,0,1,-21,1,-21,1,10,1,10,1,-21,1,-7,1,-16,1,3,1,-16,1,-10,1,-9,1
289,0,1,-20,1,-20,1,10,1,10,1,-20,1,-7,1,-16,1,3,1,-16,1,-10,1,-9,1
290,1,1,-19,1,-20,1,9,1,10,1,-19,1,-7,1,-15,1,4,1,-16,1,-10,1,-7,1
291,2,1,-19,1,-21,1,8,1,11,1,-20,1,-8,1,-15,1,5,1,-16,1,-10,1,-7,1
292,3,1,-18,1,-21,1,7,1,12,1,-19,1,-7,1,-14,1,6,1,-15,1,-10,1,-7,1
293,3,1,-18,1,-21,1,7,1,12,1,-19,1,-7,1,-13,1,6,1,-15,1,-9,1,-7,1
294,3,1,-18,1,-21,1,7,1,12,1,-19,1,-7,1,-13,1,6,1,-15,1,-9,1,-8,1
295,3,1,-18,1,-21,1,7,1,12,1,-19,1,-7,1,-13,1,6,1,-14,1,-9,1,-8,1
296,3,1,-18,1,-21,1,7,1,12,1,-19,1,-7,1,-13,1,5,1,-14,1,-9,1,-8,1
297,2,1,-19,1,-21,1,8,1,11,1,-20,1,-7,1,-13,1,5,1,-14,1,-9,1,-8,1
298,2,1,-19,1,-21,1,8,1,11,1,-20,1,-7,1,-13,1,5,1,-14,1,-9,1,-8,1
299,1,1,-19,1,-20,1,9,1,10,1,-19,1,-7,1,-13,1,4,1,-14,1,-9,1,-8,1
300,1,1,-19,1,-20,1,9,1,10,1,-19,1,-8,1,-13,1,4,1,-13,1,-9,1,-8,1
301,1,1,-19,1,-20,1,9,1,10,1,-19,1,-8,1,-12,1,5,1,-13,1,-9,1,-8,1
302,1,1,-18,1,-19,1,8,1,10,1,-18,1,-8,1,-12,1,5,1,-14,1,-9,1,-9,1
303,1,1,-18,1,-19,1,8,1,10,1,-18,1,-7,1,-10,1,5,1,-13,1,-9,1,-9,1
304,1,1,-17,1,-18,1,8,1,9,1,-17,1,-7,1,-9,1,6,1,-13,1,-9,1,-9,1
305,2,1,-17,1,-19,1,7,1,10,1,-18,1,-7,1,-9,1,6,1,-12,1,-8,1,-8,1
306,2,1,-16,1,-18,1,7,1,10,1,-17,1,-6,1,-8,1,6,1,-12,1,-8,1,-8,1
307,2,1,-16,1,-18,1,7,1,10,1,-17,1,-6,1,-7,1,6,1,-11,1,-8,1,-8,1
308,2,1,-16,1,-18,1,7,1,10,1,-17,1,-6,1,-6,1,7,1,-10,1,-8,1,-7,1
309,2,1,-17,1,-19,1,7,1,10,1,-18,1,-5,1,-5,1,8,1,-10,1,-8,1,-7,1
310,2,1,-17,1,-19,1,7,1,10,1,-18,1,-5,1,-4,1,8,1,-10,1,-8,1,-7,1
311,1,1,-17,1,-18,1,8,1,9,1,-17,1,-5,1,-3,1,8,1,-10,1,-7,1,-6,1
312,1,1,-17,1,-18,1,8,1,9,1,-17,1,-5,1,-3,1,8,1,-10,1,-7,1,-6,1
313,1,1,-18,1,-19,1,8,1,10,1,-18,1,-4,1,-2,1,7,1,-10,1,-6,1,-6,1
314,2,1,-17,1,-19,1,7,1,10,1,-18,1,-5,1,-1,1,7,1,-10,1,-7,1,-7,1
315,2,1,-17,1,-19,1,7,1,10,1,-18,1,-5,1,-1,1,7,1,-9,1,-7,1,-6,1
316,2,1,-18,1,-20,1,8,1,11,1,-19,1,-5,1,-2,1,9,1,-9,1,-7,1,-6,1
317,2,1,-18,1,-20,1,8,1,11,1,-19,1,-6,1,-1,1,8,1,-10,1,-7,1,-7,1
318,2,1,-18,1,-20,1,8,1,11,1,-19,1,-6,1,-1,1,9,1,-9,1,-8,1,-7,1
319,3,1,-18,1,-21,1,7,1,12,1,-19,1,-5,1,-1,1,9,1,-9,1,-9,1,-7,1
320,3,1,-18,1,-21,1,7,1,12,1,-19,1,-4,1,0,1,9,1,-9,1,-8,1,-8,1
321,3,1,-17,1,-20,1,7,1,11,1,-18,1,-4,1,0,1,9,1,-9,1,-8,1,-8,1
322,2,1,-17,1,-19,1,7,1,10,1,-18,1,-3,1,0,1,10,1,-8,1,-7,1,-8,1
323,2,1,-18,1,-20,1,8,1,11,1,-19,1,-3,1,1,1,10,1,-8,1,-7,1,-9,1
324,1,1,-19,1,-20,1,9,1,10,1,-19,1,-3,1,1,1,10,1,-8,1,-7,1,-8,1
325,1,1,-19,1,-20,1,9,1,10,1,-19,1,-4,1,1,1,10,1,-8,1,-7,1,-8,1
326,1,1,-19,1,-20,1,9,1,10,1,-19,1,-4,1,1,1,10,1,-8,1,-8,1,-8,1
327,1,1,-19,1,-20,1,9,1,10,1,-19,1,-4,1,1,1,10,1,-8,1,-9,1,-7,1
328,1,1,-19,1,-20,1,9,1,10,1,-19,1,-4,1,1,1,10,1,-8,1,-9,1,-7,1
329,1,1,-19,1,-20,1,9,1,10,1,-19,1,-3,1,2,1,10,1,-8,1,-9,1,-7,1
330,0,1,-19,1,-19,1,9,1,9,1,-19,1,-3,1,1,1,10,1,-8,1,-8,1,-7,1
331,1,1,-18,1,-19,1,8,1,10,1,-18,1,-3,1,1,1,11,1,-9,1,-7,1,-7,1
332,2,1,-18,1,-20,1,8,1,11,1,-19,1,-2,1,1,1,11,1,-9,1,-6,1,-7,1
333,2,1,-18,1,-20,1,8,1,11,1,-19,1,-2,1,2,1,12,1,-8,1,-6,1,-7,1
334,2,1,-17,1,-19,1,7,1,10,1,-18,1,-2,1,2,1,12,1,-8,1,-6,1,-7,1
335,2,1,-17,1,-19,1,7,1,10,1,-18,1,-3,1,2,1,12,1,-7,1,-6,1,-6,1
336,2,1,-16,1,-18,1,7,1,10,1,-17,1,-3,1,2,1,12,1,-7,1,-6,1,-6,1
337,2,1,-17,1,-19,1,7,1,10,1,-18,1,-3,1,2,1,12,1,-7,1,-6,1,-7,1
338,2,1,-18,1,-20,1,8,1,11,1,-19,1,-3,1,2,1,12,1,-8,1,-7,1,-7,1
339,2,1,-18,1,-20,1,8,1,11,1,-19,1,-3,1,1,1,12,1,-8,1,-7,1,-7,1
340,2,1,-18,1,-20,1,8,1,11,1,-19,1,-4,1,0,1,12,1,-8,1,-7,1,-7,1
341,2,1,-19,1,-21,1,8,1,11,1,-20,1,-4,1,0,1,12,1,-9,1,-7,1,-8,1
342,2,1,-19,1,-21,1,8,1,11,1,-20,1,-4,1,0,1,11,1,-8,1,-7,1,-8,1
343,2,1,-19,1,-21,1,8,1,11,1,-20,1,-5,1,0,1,11,1,-8,1,-7,1,-9,1
344,2,1,-19,1,-21,1,8,1,11,1,-20,1,-5,1,-1,1,11,1,-8,1,-8,1,-9,1
345,2,1,-19,1,-21,1,8,1,11,1,-20,1,-5,1,-1,1,10,1,-9,1,-9,1,-10,1
346,3,1,-19,1,-22,1,8,1,12,1,-20,1,-6,1,-1,1,10,1,-9,1,-9,1,-10,1
347,3,1,-19,1,-22,1,8,1,12,1,-20,1,-6,1,-2,1,10,1,-9,1,-10,1,-11,1
348,3,1,-19,1,-22,1,8,1,12,1,-20,1,-7,1,-2,1,9,1,-9,1,-11,1,-12,1
349,2,1,-19,1,-21,1,8,1,11,1,-20,1,-7,1,-3,1,9,1,-9,1,-11,1,-12,1
350,1,1,-20,1,-21,1,9,1,11,1,-20,1,-6,1,-3,1,9,1,-9,1,-11,1,-12,1
351,1,1,-20,1,-21,1,9,1,11,1,-20,1,-6,1,-4,1,8,1,-10,1,-11,1,-12,1
352,0,1,-20,1,-20,1,10,1,10,1,-20,1,-6,1,-4,1,7,1,-10,1,-12,1,-12,1
353,0,1,-20,1,-20,1,10,1,10,1,-20,1,-7,1,-4,1,7,1,-11,1,-12,1,-12,1
354,0,1,-20,1,-20,1,10,1,10,1,-20,1,-7,1,-5,1,7,1,-11,1,-12,1,-12,1
355,1,1,-20,1,-21,1,9,1,11,1,-20,1,-6,1,-6,1,7,1,-11,1,-12,1,-11,1
356,1,1,-20,1,-21,1,9,1,11,1,-20,1,-6,1,-6,1,7,1,-11,1,-12,1,-11,1
357,1,1,-21,1,-22,1,10,1,11,1,-21,1,-6,1,-8,1,6,1,-11,1,-12,1,-12,1
358,1,1,-22,1,-23,1,10,1,12,1,-22,1,-6,1,-8,1,5,1,-12,1,-14,1,-12,1
359,1,1,-22,1,-23,1,10,1,12,1,-22,1,-6,1,-8,1,4,1,-13,1,-14,1,-12,1
360,1,1,-23,1,-24,1,11,1,12,1,-23,1,-7,1,-7,1,4,1,-13,1,-13,1,-13,1
361,2,1,-23,1,-25,1,10,1,13,1,-24,1,-7,1,-7,1,4,1,-13,1,-13,1,-13,1
362,2,1,-25,1,-27,1,11,1,14,1,-26,1,-7,1,-7,1,4,1,-13,1,-13,1,-13,1
363,1,1,-25,1,-26,1,12,1,13,1,-25,1,-7,1,-7,1,4,1,-14,1,-13,1,-13,1
364,1,1,-26,1,-27,1,12,1,14,1,-26,1,-7,1,-7,1,3,1,-14,1,-13,1,-13,1
365,0,1,-27,1,-27,1,13,1,13,1,-27,1,-6,1,-8,1,3,1,-14,1,-14,1,-13,1
366,0,1,-28,1,-28,1,14,1,14,1,-28,1,-7,1,-8,1,3,1,-14,1,-14,1,-13,1
367,0,1,-29,1,-29,1,14,1,14,1,-29,1,-7,1,-8,1,3,1,-15,1,-15,1,-14,1
368,0,1,-28,1,-28,1,14,1,14,1,-28,1,-6,1,-8,1,3,1,-15,1,-15,1,-14,1
369,2,1,-28,1,-30,1,13,1,16,1,-29,1,-6,1,-8,1,3,1,-15,1,-15,1,-14,1
370,2,1,-28,1,-30,1,13,1,16,1,-29,1,-6,1,-9,1,3,1,-16,1,-15,1,-14,1
371,0,1,-29,1,-29,1,14,1,14,1,-29,1,-7,1,-9,1,3,1,-17,1,-15,1,-14,1
372,-2,1,-30,1,-28,1,16,1,13,1,-29,1,-7,1,-9,1,3,1,-17,1,-15,1,-14,1
373,-3,1,-30,1,-27,1,16,1,12,1,-29,1,-7,1,-9,1,3,1,-17,1,-15,1,-14,1
374,-3,1,-29,1,-26,1,16,1,11,1,-28,1,-7,1,-10,1,2,1,-17,1,-14,1,-13,1
375,-1,1,-28,1,-27,1,14,1,13,1,-28,1,-6,1,-10,1,2,1,-18,1,-14,1,-13,1
376,-1,1,-28,1,-27,1,14,1,13,1,-28,1,-7,1,-10,1,2,1,-18,1,-15,1,-14,1
377,0,1,-27,1,-27,1,13,1,13,1,-27,1,-7,1,-11,1,2,1,-20,1,-15,1,-15,1
378,0,1,-27,1,-27,1,13,1,13,1,-27,1,-7,1,-10,1,2,1,-20,1,-17,1,-15,1
379,0,1,-27,1,-27,1,13,1,13,1,-27,1,-7,1,-10,1,2,1,-20,1,-17,1,-15,1
380,0,1,-27,1,-27,1,13,1,13,1,-27,1,-7,1,-10,1,2,1,-20,1,-17,1,-13,1
381,1,1,-27,1,-28,1,13,1,14,1,-27,1,-6,1,-10,1,3,1,-19,1,-16,1,-13,1
382,1,1,-26,1,-27,1,12,1,14,1,-26,1,-6,1,-10,1,3,1,-19,1,-16,1,-13,1
383,2,1,-26,1,-28,1,12,1,15,1,-27,1,-6,1,-9,1,3,1,-19,1,-16,1,-14,1
384,1,1,-27,1,-28,1,13,1,14,1,-27,1,-6,1,-9,1,3,1,-19,1,-16,1,-14,1
385,1,1,-28,1,-29,1,13,1,15,1,-28,1,-6,1,-9,1,2,1,-20,1,-16,1,-14,1
386,0,1,-28,1,-28,1,14,1,14,1,-28,1,-7,1,-10,1,2,1,-20,1,-18,1,-14,1
387,0,1,-28,1,-28,1,14,1,14,1,-28,1,-7,1,-10,1,1,1,-21,1,-18,1,-14,1
388,0,1,-29,1,-29,1,14,1,14,1,-29,1,-7,1,-10,1,1,1,-21,1,-19,1,-14,1
389,0,1,-29,1,-29,1,14,1,14,1,-29,1,-7,1,-10,1,1,1,-21,1,-19,1,-14,1
390,0,1,-29,1,-29,1,14,1,14,1,-29,1,-6,1,-10,1,0,1,-21,1,-18,1,-14,1
391,0,1,-29,1,-29,1,14,1,14,1,-29,1,-6,1,-10,1,1,1,-21,1,-17,1,-13,1
392,0,1,-29,1,-29,1,14,1,14,1,-29,1,-5,1,-9,1,1,1,-21,1,-17,1,-13,1
393,0,1,-28,1,-28,1,14,1,14,1,-28,1,-5,1,-10,1,1,1,-21,1,-16,1,-13,1
394,0,1,-28,1,-28,1,14,1,14,1,-28,1,-5,1,-10,1,1,1,-21,1,-16,1,-13,1
395,0,1,-28,1,-28,1,14,1,14,1,-28,1,-6,1,-10,1,1,1,-21,1,-17,1,-12,1
396,0,1,-28,1,-28,1,14,1,14,1,-28,1,-7,1,-11,1,1,1,-21,1,-17,1,-12,1
397,1,1,-28,1,-29,1,13,1,15,1,-28,1,-7,1,-12,1,0,1,-21,1,-18,1,-12,1
398,1,1,-28,1,-29,1,13,1,15,1,-28,1,-8,1,-12,1,0,1,-22,1,-18,1,-12,1
399,1,1,-27,1,-28,1,13,1,14,1,-27,1,-7,1,-12,1,0,1,-22,1,-18,1,-12,1
400,1,1,-28,1,-29,1,13,1,15,1,-28,1,-6,1,-11,1,0,1,-22,1,-18,1,-12,1
401,0,1,-29,1,-29,1,14,1,14,1,-29,1,-5,1,-10,1,1,1,-21,1,-17,1,-12,1
402,0,1,-29,1,-29,1,14,1,14,1,-29,1,-4,1,-10,1,2,1,-20,1,-17,1,-12,1
403,0,1,-30,1,-30,1,15,1,15,1,-30,1,-4,1,-11,1,2,1,-20,1,-18,1,-12,1
404,1,1,-30,1,-31,1,14,1,16,1,-30,1,-4,1,-11,1,2,1,-20,1,-18,1,-12,1
405,1,1,-30,1,-31,1,14,1,16,1,-30,1,-5,1,-11,1,1,1,-20,1,-18,1,-13,1
406,1,1,-30,1,-31,1,14,1,16,1,-30,1,-6,1,-11,1,0,1,-21,1,-18,1,-12,1
407,1,1,-31,1,-32,1,15,1,16,1,-31,1,-7,1,-12,1,0,1,-21,1,-18,1,-12,1
408,0,1,-31,1,-31,1,15,1,15,1,-31,1,-7,1,-12,1,1,1,-21,1,-17,1,-12,1
409,0,1,-31,1,-31,1,15,1,15,1,-31,1,-6,1,-11,1,1,1,-21,1,-17,1,-12,1
410,0,1,-31,1,-31,1,15,1,15,1,-31,1,-5,1,-11,1,1,1,-22,1,-17,1,-12,1
411,0,1,-31,1,-31,1,15,1,15,1,-31,1,-5,1,-10,1,1,1,-22,1,-16,1,-12,1
412,0,1,-31,1,-31,1,15,1,15,1,-31,1,-4,1,-10,1,1,1,-22,1,-16,1,-12,1
413,0,1,-31,1,-31,1,15,1,15,1,-31,1,-4,1,-11,1,1,1,-21,1,-16,1,-12,1
414,0,1,-30,1,-30,1,15,1,15,1,-30,1,-4,1,-11,1,2,1,-21,1,-16,1,-11,1
415,0,1,-31,1,-31,1,15,1,15,1,-31,1,-4,1,-11,1,1,1,-21,1,-16,1,-11,1
416,1,1,-31,1,-32,1,15,1,16,1,-31,1,-4,1,-12,1,1,1,-23,1,-16,1,-11,1
417,1,1,-31,1,-32,1,15,1,16,1,-31,1,-5,1,-12,1,0,1,-23,1,-17,1,-12,1
418,1,1,-30,1,-31,1,14,1,16,1,-30,1,-5,1,-13,1,1,1,-23,1,-17,1,-12,1
419,1,1,-32,1,-33,1,15,1,17,1,-32,1,-5,1,-12,1,1,1,-23,1,-17,1,-12,1
420,0,1,-32,1,-32,1,16,1,16,1,-32,1,-4,1,-12,1,1,1,-23,1,-17,1,-12,1
421,0,1,-32,1,-32,1,16,1,16,1,-32,1,-3,1,-12,1,1,1,-21,1,-16,1,-11,1
422,-1,1,-31,1,-30,1,16,1,14,1,-31,1,-3,1,-12,1,1,1,-21,1,-15,1,-11,1
423,-1,1,-30,1,-29,1,15,1,14,1,-30,1,-2,1,-12,1,2,1,-21,1,-15,1,-10,1
424,0,1,-30,1,-30,1,15,1,15,1,-30,1,-2,1,-12,1,2,1,-21,1,-15,1,-10,1
425,0,1,-31,1,-31,1,15,1,15,1,-31,1,-2,1,-12,1,1,1,-22,1,-16,1,-10,1
426,0,1,-31,1,-31,1,15,1,15,1,-31,1,-2,1,-12,1,1,1,-22,1,-17,1,-10,1
427,-1,1,-31,1,-30,1,16,1,14,1,-31,1,-2,1,-12,1,1,1,-22,1,-17,1,-10,1
428,-1,1,-32,1,-31,1,16,1,15,1,-32,1,-2,1,-12,1,1,1,-22,1,-16,1,-10,1
429,-2,1,-32,1,-30,1,17,1,14,1,-31,1,-1,1,-11,1,1,1,-22,1,-16,1,-10,1
430,-2,1,-32,1,-30,1,17,1,14,1,-31,1,-2,1,-12,1,1,1,-22,1,-16,1,-10,1
431,-2,1,-32,1,-30,1,17,1,14,1,-31,1,-2,1,-12,1,1,1,-22,1,-16,1,-10,1
432,-2,1,-32,1,-30,1,17,1,14,1,-31,1,-1,1,-11,1,2,1,-22,1,-15,1,-9,1
433,-1,1,-33,1,-32,1,17,1,15,1,-33,1,-1,1,-11,1,2,1,-22,1,-15,1,-9,1
434,-1,1,-33,1,-32,1,17,1,15,1,-33,1,-1,1,-11,1,2,1,-21,1,-14,1,-10,1
435,0,1,-32,1,-32,1,16,1,16,1,-32,1,-1,1,-10,1,3,1,-21,1,-15,1,-9,1
436,0,1,-32,1,-32,1,16,1,16,1,-32,1,0,1,-10,1,3,1,-21,1,-14,1,-8,1
437,0,1,-31,1,-31,1,15,1,15,1,-31,1,0,1,-10,1,3,1,-20,1,-14,1,-8,1
438,0,1,-30,1,-30,1,15,1,15,1,-30,1,0,1,-10,1,3,1,-20,1,-14,1,-7,1
439,0,1,-30,1,-30,1,15,1,15,1,-30,1,0,1,-10,1,3,1,-20,1,-13,1,-7,1
440,0,1,-30,1,-30,1,15,1,15,1,-30,1,0,1,-10,1,3,1,-20,1,-13,1,-7,1
441,-1,1,-31,1,-30,1,16,1,14,1,-31,1,0,1,-10,1,3,1,-20,1,-14,1,-7,1
442,-2,1,-31,1,-29,1,16,1,13,1,-30,1,0,1,-10,1,2,1,-21,1,-14,1,-7,1
443,-2,1,-32,1,-30,1,17,1,14,1,-31,1,0,1,-11,1,2,1,-22,1,-14,1,-7,1
444,-2,1,-32,1,-30,1,17,1,14,1,-31,1,0,1,-11,1,2,1,-22,1,-15,1,-8,1
445,-1,1,-31,1,-30,1,16,1,14,1,-31,1,0,1,-11,1,2,1,-22,1,-15,1,-8,1
446,-1,1,-30,1,-29,1,15,1,14,1,-30,1,0,1,-11,1,2,1,-22,1,-15,1,-9,1
447,-1,1,-30,1,-29,1,15,1,14,1,-30,1,0,1,-11,1,1,1,-22,1,-16,1,-9,1
448,-2,1,-30,1,-28,1,16,1,13,1,-29,1,0,1,-11,1,1,1,-23,1,-16,1,-9,1
449,-1,1,-30,1,-29,1,15,1,14,1,-30,1,0,1,-11,1,1,1,-23,1,-16,1,-9,1
450,-1,1,-29,1,-28,1,15,1,13,1,-29,1,1,1,-10,1,2,1,-23,1,-16,1,-7,1
451,-1,1,-27,1,-26,1,14,1,12,1,-27,1,1,1,-9,1,4,1,-22,1,-15,1,-7,1
452,0,1,-27,1,-27,1,13,1,13,1,-27,1,2,1,-9,1,3,1,-21,1,-15,1,-7,1
453,0,1,-26,1,-26,1,13,1,13,1,-26,1,2,1,-9,1,3,1,-21,1,-15,1,-7,1
454,0,1,-26,1,-26,1,13,1,13,1,-26,1,2,1,-9,1,2,1,-22,1,-14,1,-7,1
455,0,1,-27,1,-27,1,13,1,13,1,-27,1,2,1,-10,1,2,1,-22,1,-14,1,-7,1
456,0,1,-27,1,-27,1,13,1,13,1,-27,1,2,1,-10,1,2,1,-22,1,-14,1,-6,1
457,0,1,-28,1,-28,1,14,1,14,1,-28,1,1,1,-11,1,1,1,-23,1,-14,1,-5,1
458,0,1,-28,1,-28,1,14,1,14,1,-28,1,1,1,-11,1,1,1,-23,1,-14,1,-5,1
459,-2,1,-29,1,-27,1,15,1,12,1,-28,1,1,1,-11,1,1,1,-23,1,-14,1,-6,1
460,-3,1,-30,1,-27,1,16,1,12,1,-29,1,2,1,-10,1,2,1,-22,1,-14,1,-6,1
461,-3,1,-30,1,-27,1,16,1,12,1,-29,1,4,1,-10,1,3,1,-21,1,-14,1,-5,1
462,-2,1,-30,1,-28,1,16,1,13,1,-29,1,5,1,-9,1,5,1,-20,1,-12,1,-5,1
463,-1,1,-29,1,-28,1,15,1,13,1,-29,1,5,1,-8,1,5,1,-19,1,-12,1,-5,1
464,0,1,-29,1,-29,1,14,1,14,1,-29,1,6,1,-8,1,6,1,-18,1,-11,1,-4,1
465,1,1,-27,1,-28,1,13,1,14,1,-27,1,6,1,-8,1,6,1,-18,1,-11,1,-3,1
466,1,1,-25,1,-26,1,12,1,13,1,-25,1,7,1,-7,1,6,1,-18,1,-10,1,-2,1
467,2,1,-22,1,-24,1,10,1,13,1,-23,1,7,1,-8,1,6,1,-17,1,-10,1,-1,1
468,2,1,-20,1,-22,1,9,1,12,1,-21,1,8,1,-7,1,6,1,-16,1,-8,1,-1,1
469,3,1,-19,1,-22,1,8,1,12,1,-20,1,9,1,-6,1,7,1,-15,1,-7,1,0,1
470,4,1,-19,1,-23,1,7,1,13,1,-21,1,9,1,-5,1,8,1,-15,1,-7,1,1,1
471,4,1,-19,1,-23,1,7,1,13,1,-21,1,10,1,-5,1,9,1,-13,1,-6,1,1,1
472,4,1,-18,1,-22,1,7,1,13,1,-20,1,10,1,-5,1,9,1,-13,1,-6,1,2,1
473,4,1,-19,1,-23,1,7,1,13,1,-21,1,10,1,-5,1,9,1,-14,1,-6,1,2,1
474,4,1,-20,1,-24,1,8,1,14,1,-22,1,9,1,-6,1,8,1,-14,1,-7,1,1,1
475,3,1,-20,1,-23,1,8,1,13,1,-21,1,7,1,-6,1,8,1,-15,1,-7,1,0,1
476,4,1,-21,1,-25,1,8,1,14,1,-23,1,7,1,-6,1,7,1,-15,1,-8,1,0,1
477,5,1,-22,1,-27,1,8,1,16,1,-24,1,6,1,-6,1,7,1,-15,1,-8,1,0,1
478,6,1,-23,1,-29,1,8,1,17,1,-26,1,4,1,-6,1,8,1,-14,1,-7,1,1,1
479,6,1,-23,1,-29,1,8,1,17,1,-26,1,4,1,-6,1,9,1,-13,1,-7,1,2,1
480,6,1,-22,1,-28,1,8,1,17,1,-25,1,4,1,-5,1,10,1,-13,1,-7,1,2,1
481,7,1,-21,1,-28,1,7,1,17,1,-24,1,2,1,-4,1,10,1,-12,1,-6,1,3,1
482,8,1,-21,1,-29,1,6,1,18,1,-25,1,1,1,-3,1,9,1,-13,1,-4,1,3,1
483,8,1,-21,1,-29,1,6,1,18,1,-25,1,0,1,-2,1,10,1,-13,1,-5,1,3,1
484,9,1,-20,1,-29,1,5,1,19,1,-24,1,0,1,-2,1,10,1,-13,1,-5,1,4,1
485,10,1,-19,1,-29,1,4,1,19,1,-24,1,0,1,-2,1,10,1,-13,1,-5,1,4,1
486,10,1,-19,1,-29,1,4,1,19,1,-24,1,0,1,-2,1,10,1,-13,1,-5,1,4,1
487,11,1,-18,1,-29,1,3,1,20,1,-23,1,0,1,-2,1,10,1,-13,1,-5,1,4,1
488,10,1,-19,1,-29,1,4,1,19,1,-24,1,1,1,-2,1,10,1,-13,1,-5,1,5,1
489,9,1,-19,1,-28,1,5,1,18,1,-23,1,1,1,-2,1,10,1,-13,1,-4,1,5,1
490,9,1,-19,1,-28,1,5,1,18,1,-23,1,1,1,-2,1,10,1,-13,1,-4,1,6,1
491,9,1,-19,1,-28,1,5,1,18,1,-23,1,1,1,-3,1,10,1,-13,1,-3,1,6,1
492,9,1,-19,1,-28,1,5,1,18,1,-23,1,2,1,-3,1,10,1,-13,1,-3,1,6,1
493,9,1,-19,1,-28,1,5,1,18,1,-23,1,3,1,-3,1,10,1,-13,1,-3,1,5,1
494,9,1,-19,1,-28,1,5,1,18,1,-23,1,3,1,-3,1,10,1,-13,1,-3,1,5,1
495,9,1,-19,1,-28,1,5,1,18,1,-23,1,3,1,-4,1,9,1,-13,1,-3,1,3,1
496,9,1,-20,1,-29,1,5,1,19,1,-24,1,3,1,-5,1,8,1,-14,1,-3,1,3,1
497,8,1,-21,1,-29,1,6,1,18,1,-25,1,3,1,-6,1,6,1,-15,1,-4,1,3,1
498,8,1,-21,1,-29,1,6,1,18,1,-25,1,4,1,-5,1,5,1,-15,1,-4,1,3,1
499,6,1,-22,1,-28,1,8,1,17,1,-25,1,6,1,-5,1,5,1,-15,1,-4,1,3,1
500,5,1,-22,1,-27,1,8,1,16,1,-24,1,6,1,-5,1,3,1,-15,1,-4,1,3,1
501,4,1,-22,1,-26,1,9,1,15,1,-24,1,7,1,-6,1,3,1,-15,1,-4,1,3,1
502,3,1,-22,1,-25,1,9,1,14,1,-23,1,8,1,-6,1,2,1,-15,1,-4,1,3,1
503,2,1,-23,1,-25,1,10,1,13,1,-24,1,7,1,-8,1,1,1,-15,1,-5,1,2,1
504,1,1,-23,1,-24,1,11,1,12,1,-23,1,7,1,-9,1,0,1,-16,1,-5,1,0,1
505,0,1,-24,1,-24,1,12,1,12,1,-24,1,7,1,-10,1,-1,1,-17,1,-6,1,-1,1
506,-1,1,-26,1,-25,1,13,1,12,1,-26,1,7,1,-10,1,-2,1,-18,1,-6,1,-1,1
507,-1,1,-27,1,-26,1,14,1,12,1,-27,1,6,1,-11,1,-4,1,-19,1,-8,1,-1,1
508,-2,1,-28,1,-26,1,15,1,12,1,-27,1,6,1,-13,1,-5,1,-21,1,-11,1,-3,1
509,-2,1,-28,1,-26,1,15,1,12,1,-27,1,5,1,-13,1,-5,1,-22,1,-13,1,-3,1
510,-3,1,-28,1,-25,1,15,1,11,1,-27,1,5,1,-14,1,-7,1,-23,1,-14,1,-3,1
511,-3,1,-28,1,-25,1,15,1,11,1,-27,1,5,1,-14,1,-7,1,-24,1,-14,1,-4,1
512,-4,1,-31,1,-27,1,17,1,11,1,-29,1,4,1,-15,1,-8,1,-23,1,-14,1,-4,1
513,-4,1,-31,1,-27,1,17,1,11,1,-29,1,4,1,-15,1,-9,1,-23,1,-14,1,-4,1
514,-4,1,-31,1,-27,1,17,1,11,1,-29,1,4,1,-15,1,-9,1,-24,1,-14,1,-4,1
515,-3,1,-30,1,-27,1,16,1,12,1,-29,1,4,1,-15,1,-8,1,-24,1,-14,1,-3,1
516,-4,1,-30,1,-26,1,17,1,11,1,-28,1,5,1,-16,1,-8,1,-24,1,-14,1,-3,1
517,-4,1,-30,1,-26,1,17,1,11,1,-28,1,5,1,-16,1,-8,1,-24,1,-14,1,-2,1
518,-4,1,-30,1,-26,1,17,1,11,1,-28,1,5,1,-15,1,-8,1,-23,1,-13,1,-1,1
519,-4,1,-30,1,-26,1,17,1,11,1,-28,1,6,1,-15,1,-7,1,-23,1,-13,1,-1,1
520,-3,1,-30,1,-27,1,16,1,12,1,-29,1,7,1,-15,1,-7,1,-23,1,-13,1,0,1
521,-3,1,-30,1,-27,1,16,1,12,1,-29,1,7,1,-15,1,-7,1,-22,1,-13,1,0,1
522,-3,1,-29,1,-26,1,16,1,11,1,-28,1,8,1,-15,1,-7,1,-22,1,-13,1,0,1
523,-4,1,-29,1,-25,1,16,1,10,1,-27,1,8,1,-15,1,-6,1,-22,1,-13,1,0,1
524,-4,1,-29,1,-25,1,16,1,10,1,-27,1,8,1,-14,1,-6,1,-22,1,-13,1,0,1
525,-4,1,-28,1,-24,1,16,1,10,1,-26,1,8,1,-14,1,-6,1,-21,1,-13,1,0,1
526,-4,1,-27,1,-23,1,15,1,9,1,-25,1,8,1,-13,1,-6,1,-21,1,-13,1,1,1
527,-3,1,-25,1,-22,1,14,1,9,1,-24,1,8,1,-12,1,-5,1,-20,1,-13,1,1,1
528,-3,1,-25,1,-22,1,14,1,9,1,-24,1,8,1,-11,1,-4,1,-19,1,-14,1,1,1
529,-5,1,-25,1,-20,1,15,1,7,1,-23,1,9,1,-8,1,-3,1,-19,1,-14,1,1,1
530,-4,1,-25,1,-21,1,14,1,8,1,-23,1,12,1,-5,1,0,1,-16,1,-13,1,1,1
531,-4,1,-23,1,-19,1,13,1,7,1,-21,1,15,1,-1,1,3,1,-13,1,-11,1,1,1
532,-3,1,-20,1,-17,1,11,1,7,1,-19,1,17,1,2,1,6,1,-11,1,-10,1,1,1
533,-3,1,-17,1,-14,1,10,1,5,1,-16,1,20,1,6,1,10,1,-8,1,-9,1,3,1
534,-3,1,-14,1,-11,1,8,1,4,1,-13,1,22,1,8,1,13,1,-5,1,-7,1,5,1
535,-4,1,-11,1,-7,1,7,1,1,1,-9,1,24,1,11,1,18,1,0,1,-3,1,7,1
536,-3,1,-10,1,-7,1,6,1,2,1,-9,1,27,1,18,1,25,1,6,1,0,1,9,1
537,-3,1,-8,1,-5,1,5,1,1,1,-7,1,30,1,28,1,36,1,15,1,6,1,11,1
538,-1,1,-5,1,-4,1,3,1,1,1,-5,1,35,1,44,1,50,1,27,1,14,1,15,1
539,2,1,-3,1,-5,1,0,1,3,1,-4,1,40,1,64,1,68,1,41,1,24,1,19,1
540,6,1,1,1,-5,1,-3,1,6,1,-2,1,45,1,84,1,88,1,57,1,36,1,27,1
541,10,1,7,1,-3,1,-8,1,7,1,2,1,47,1,97,1,106,1,73,1,50,1,37,1
542,16,1,16,1,0,1,-16,1,8,1,8,1,48,1,97,1,119,1,92,1,65,1,49,1
543,23,1,27,1,4,1,-25,1,10,1,16,1,44,1,78,1,125,1,109,1,82,1,62,1
544,31,1,36,1,5,1,-33,1,13,1,21,1,36,1,43,1,124,1,124,1,99,1,76,1
545,38,1,44,1,6,1,-41,1,16,1,25,1,26,1,4,1,122,1,135,1,113,1,86,1
546,43,1,47,1,4,1,-45,1,20,1,26,1,17,1,-35,1,116,1,139,1,121,1,90,1
547,43,1,42,1,-1,1,-42,1,22,1,21,1,9,1,-77,1,102,1,129,1,118,1,88,1
548,40,1,33,1,-7,1,-36,1,24,1,13,1,2,1,-116,1,81,1,111,1,106,1,81,1
549,37,1,20,1,-17,1,-28,1,27,1,2,1,-3,1,-151,1,55,1,89,1,90,1,71,1
550,32,1,7,1,-25,1,-19,1,29,1,-9,1,-7,1,-181,1,25,1,64,1,71,1,61,1
551,23,1,-6,1,-29,1,-8,1,26,1,-17,1,-11,1,-212,1,-16,1,32,1,49,1,48,1
552,13,1,-21,1,-34,1,4,1,23,1,-27,1,-15,1,-247,1,-74,1,-9,1,21,1,34,1
553,2,1,-37,1,-39,1,17,1,20,1,-38,1,-18,1,-276,1,-132,1,-52,1,-8,1,17,1
554,-8,1,-54,1,-46,1,31,1,19,1,-50,1,-20,1,-295,1,-177,1,-90,1,-35,1,-1,1
555,-17,1,-71,1,-54,1,44,1,18,1,-63,1,-22,1,-301,1,-204,1,-120,1,-58,1,-19,1
556,-24,1,-86,1,-62,1,55,1,19,1,-74,1,-26,1,-299,1,-218,1,-140,1,-78,1,-33,1
557,-28,1,-99,1,-71,1,63,1,21,1,-85,1,-35,1,-292,1,-222,1,-154,1,-92,1,-45,1
558,-30,1,-108,1,-78,1,69,1,24,1,-93,1,-44,1,-286,1,-222,1,-162,1,-101,1,-53,1
559,-30,1,-113,1,-83,1,71,1,26,1,-98,1,-54,1,-279,1,-220,1,-165,1,-106,1,-58,1
560,-30,1,-116,1,-86,1,73,1,28,1,-101,1,-62,1,-269,1,-220,1,-164,1,-108,1,-58,1
561,-30,1,-116,1,-86,1,73,1,28,1,-101,1,-66,1,-256,1,-217,1,-162,1,-107,1,-57,1
562,-30,1,-116,1,-86,1,73,1,28,1,-101,1,-67,1,-238,1,-210,1,-158,1,-106,1,-57,1
563,-30,1,-116,1,-86,1,73,1,28,1,-101,1,-66,1,-217,1,-198,1,-153,1,-104,1,-57,1
564,-30,1,-116,1,-86,1,73,1,28,1,-101,1,-64,1,-194,1,-180,1,-147,1,-102,1,-57,1
565,-30,1,-113,1,-83,1,71,1,26,1,-98,1,-61,1,-174,1,-160,1,-139,1,-98,1,-56,1
566,-28,1,-106,1,-78,1,67,1,25,1,-92,1,-59,1,-155,1,-138,1,-127,1,-92,1,-52,1
567,-25,1,-97,1,-72,1,61,1,23,1,-85,1,-56,1,-139,1,-116,1,-113,1,-82,1,-46,1
568,-22,1,-84,1,-62,1,53,1,20,1,-73,1,-52,1,-124,1,-97,1,-96,1,-71,1,-39,1
569,-21,1,-71,1,-50,1,46,1,14,1,-61,1,-46,1,-111,1,-82,1,-80,1,-59,1,-31,1
570,-19,1,-58,1,-39,1,38,1,10,1,-49,1,-39,1,-96,1,-69,1,-65,1,-47,1,-23,1
571,-16,1,-45,1,-29,1,30,1,6,1,-37,1,-28,1,-80,1,-60,1,-53,1,-38,1,-16,1
572,-13,1,-37,1,-24,1,25,1,5,1,-31,1,-19,1,-63,1,-51,1,-44,1,-31,1,-10,1
573,-10,1,-33,1,-23,1,21,1,6,1,-28,1,-10,1,-45,1,-42,1,-40,1,-28,1,-7,1
574,-8,1,-32,1,-24,1,20,1,8,1,-28,1,-4,1,-28,1,-31,1,-36,1,-26,1,-6,1
575,-7,1,-32,1,-25,1,19,1,9,1,-29,1,-1,1,-15,1,-21,1,-34,1,-24,1,-5,1
576,-6,1,-30,1,-24,1,18,1,9,1,-27,1,0,1,-6,1,-9,1,-31,1,-22,1,-4,1
577,-4,1,-26,1,-22,1,15,1,9,1,-24,1,0,1,-3,1,0,1,-26,1,-19,1,-2,1
578,-3,1,-21,1,-18,1,12,1,7,1,-20,1,0,1,-3,1,5,1,-21,1,-15,1,0,1
579,-2,1,-16,1,-14,1,9,1,6,1,-15,1,0,1,-5,1,7,1,-16,1,-11,1,0,1
580,-2,1,-14,1,-12,1,8,1,5,1,-13,1,2,1,-5,1,5,1,-11,1,-8,1,3,1
581,-3,1,-13,1,-10,1,8,1,3,1,-12,1,3,1,-4,1,2,1,-9,1,-7,1,4,1
582,-3,1,-13,1,-10,1,8,1,3,1,-12,1,5,1,-2,1,2,1,-9,1,-7,1,5,1
583,-3,1,-14,1,-11,1,8,1,4,1,-13,1,7,1,2,1,2,1,-10,1,-8,1,5,1
584,-3,1,-15,1,-12,1,9,1,4,1,-14,1,7,1,7,1,4,1,-11,1,-9,1,5,1
585,-3,1,-16,1,-13,1,9,1,5,1,-15,1,8,1,10,1,6,1,-11,1,-10,1,5,1
586,-3,1,-14,1,-11,1,8,1,4,1,-13,1,8,1,12,1,8,1,-12,1,-9,1,5,1
587,-3,1,-14,1,-11,1,8,1,4,1,-13,1,8,1,12,1,10,1,-11,1,-8,1,5,1
588,-2,1,-13,1,-11,1,7,1,4,1,-12,1,8,1,12,1,11,1,-9,1,-7,1,5,1
589,-2,1,-13,1,-11,1,7,1,4,1,-12,1,8,1,11,1,11,1,-8,1,-6,1,5,1
590,-1,1,-13,1,-12,1,7,1,5,1,-13,1,8,1,11,1,11,1,-7,1,-5,1,5,1
591,-1,1,-13,1,-12,1,7,1,5,1,-13,1,8,1,12,1,11,1,-7,1,-3,1,6,1
592,-1,1,-13,1,-12,1,7,1,5,1,-13,1,8,1,13,1,11,1,-6,1,-2,1,7,1
593,-1,1,-13,1,-12,1,7,1,5,1,-13,1,8,1,14,1,11,1,-6,1,-2,1,7,1
594,-1,1,-12,1,-11,1,6,1,5,1,-12,1,8,1,15,1,11,1,-6,1,-2,1,7,1
595,-1,1,-12,1,-11,1,6,1,5,1,-12,1,8,1,15,1,12,1,-6,1,-2,1,8,1
596,-1,1,-13,1,-12,1,7,1,5,1,-13,1,8,1,16,1,14,1,-4,1,-2,1,8,1
597,-1,1,-13,1,-12,1,7,1,5,1,-13,1,8,1,17,1,14,1,-4,1,-2,1,9,1
598,-1,1,-12,1,-11,1,6,1,5,1,-12,1,8,1,16,1,15,1,-4,1,-2,1,9,1
599,0,1,-12,1,-12,1,6,1,6,1,-12,1,8,1,17,1,15,1,-3,1,-2,1,9,1
600,0,1,-11,1,-11,1,5,1,5,1,-11,1,8,1,17,1,16,1,-3,1,-2,1,9,1
601,0,1,-10,1,-10,1,5,1,5,1,-10,1,8,1,17,1,16,1,-2,1,-1,1,10,1
602,1,1,-10,1,-11,1,4,1,6,1,-10,1,8,1,17,1,17,1,-2,1,-1,1,10,1
603,1,1,-10,1,-11,1,4,1,6,1,-10,1,8,1,17,1,17,1,-2,1,-1,1,9,1
604,1,1,-11,1,-12,1,5,1,6,1,-11,1,7,1,17,1,17,1,-2,1,-1,1,9,1
605,1,1,-10,1,-11,1,4,1,6,1,-10,1,7,1,17,1,17,1,-1,1,-1,1,9,1
606,2,1,-10,1,-12,1,4,1,7,1,-11,1,6,1,16,1,17,1,-2,1,-1,1,9,1
607,2,1,-10,1,-12,1,4,1,7,1,-11,1,6,1,16,1,17,1,-2,1,-1,1,9,1
608,1,1,-10,1,-11,1,4,1,6,1,-10,1,6,1,17,1,18,1,-1,1,-1,1,9,1
609,1,1,-10,1,-11,1,4,1,6,1,-10,1,6,1,17,1,18,1,-1,1,-1,1,9,1
610,1,1,-10,1,-11,1,4,1,6,1,-10,1,6,1,18,1,19,1,-1,1,0,1,9,1
611,1,1,-10,1,-11,1,4,1,6,1,-10,1,6,1,19,1,21,1,0,1,1,1,10,1
612,0,1,-10,1,-10,1,5,1,5,1,-10,1,6,1,20,1,21,1,-1,1,1,1,10,1
613,0,1,-10,1,-10,1,5,1,5,1,-10,1,6,1,20,1,21,1,0,1,1,1,10,1
614,-1,1,-11,1,-10,1,6,1,4,1,-11,1,7,1,21,1,22,1,0,1,1,1,10,1
615,0,1,-10,1,-10,1,5,1,5,1,-10,1,7,1,21,1,22,1,0,1,1,1,10,1
616,1,1,-10,1,-11,1,4,1,6,1,-10,1,7,1,21,1,23,1,1,1,3,1,10,1
617,3,1,-9,1,-12,1,3,1,7,1,-10,1,7,1,22,1,23,1,2,1,3,1,11,1
618,3,1,-8,1,-11,1,2,1,7,1,-9,1,7,1,23,1,24,1,2,1,4,1,12,1
619,4,1,-8,1,-12,1,2,1,8,1,-10,1,6,1,23,1,25,1,2,1,4,1,12,1
620,4,1,-8,1,-12,1,2,1,8,1,-10,1,6,1,24,1,26,1,3,1,5,1,12,1
621,4,1,-8,1,-12,1,2,1,8,1,-10,1,6,1,24,1,26,1,4,1,5,1,13,1
622,4,1,-6,1,-10,1,1,1,7,1,-8,1,6,1,25,1,27,1,4,1,6,1,14,1
623,5,1,-5,1,-10,1,0,1,7,1,-7,1,6,1,26,1,27,1,5,1,7,1,15,1
624,5,1,-4,1,-9,1,0,1,7,1,-6,1,6,1,27,1,29,1,6,1,7,1,15,1
625,7,1,-4,1,-11,1,-1,1,9,1,-7,1,5,1,27,1,30,1,6,1,8,1,16,1
626,7,1,-3,1,-10,1,-2,1,8,1,-6,1,4,1,28,1,31,1,8,1,9,1,16,1
627,7,1,-3,1,-10,1,-2,1,8,1,-6,1,4,1,29,1,31,1,8,1,10,1,16,1
628,7,1,-3,1,-10,1,-2,1,8,1,-6,1,4,1,30,1,33,1,9,1,11,1,17,1
629,7,1,-2,1,-9,1,-2,1,8,1,-5,1,4,1,30,1,34,1,10,1,11,1,17,1
630,8,1,-1,1,-9,1,-3,1,8,1,-5,1,3,1,31,1,35,1,11,1,13,1,17,1
631,9,1,0,1,-9,1,-4,1,9,1,-4,1,3,1,32,1,36,1,12,1,14,1,18,1
632,9,1,0,1,-9,1,-4,1,9,1,-4,1,3,1,33,1,38,1,13,1,14,1,18,1
633,9,1,1,1,-8,1,-5,1,9,1,-3,1,2,1,35,1,39,1,14,1,14,1,19,1
634,9,1,2,1,-7,1,-5,1,8,1,-2,1,2,1,35,1,40,1,15,1,16,1,20,1
635,10,1,3,1,-7,1,-6,1,9,1,-2,1,1,1,36,1,41,1,17,1,17,1,20,1
636,10,1,3,1,-7,1,-6,1,9,1,-2,1,0,1,38,1,42,1,18,1,18,1,21,1
637,10,1,4,1,-6,1,-7,1,8,1,-1,1,-1,1,39,1,43,1,18,1,18,1,22,1
638,10,1,5,1,-5,1,-7,1,8,1,0,1,-1,1,40,1,45,1,21,1,21,1,23,1
639,11,1,6,1,-5,1,-8,1,8,1,1,1,0,1,42,1,47,1,24,1,22,1,25,1
640,12,1,7,1,-5,1,-9,1,9,1,1,1,-1,1,43,1,49,1,25,1,24,1,26,1
641,12,1,7,1,-5,1,-9,1,9,1,1,1,-1,1,44,1,50,1,27,1,24,1,28,1
642,13,1,9,1,-4,1,-11,1,9,1,3,1,-2,1,46,1,51,1,28,1,25,1,29,1
643,13,1,10,1,-3,1,-11,1,8,1,4,1,-2,1,47,1,54,1,31,1,27,1,30,1
644,14,1,11,1,-3,1,-12,1,9,1,4,1,-3,1,49,1,57,1,32,1,28,1,31,1
645,15,1,12,1,-3,1,-13,1,9,1,5,1,-4,1,50,1,59,1,33,1,30,1,31,1
646,16,1,13,1,-3,1,-14,1,10,1,5,1,-6,1,51,1,62,1,34,1,31,1,32,1
647,17,1,15,1,-2,1,-16,1,10,1,7,1,-6,1,53,1,64,1,36,1,33,1,33,1
648,18,1,16,1,-2,1,-17,1,10,1,7,1,-6,1,54,1,65,1,38,1,34,1,35,1
649,18,1,18,1,0,1,-18,1,9,1,9,1,-6,1,55,1,67,1,39,1,35,1,35,1
650,18,1,18,1,0,1,-18,1,9,1,9,1,-7,1,57,1,68,1,41,1,36,1,37,1
651,20,1,19,1,-1,1,-19,1,11,1,9,1,-8,1,58,1,70,1,44,1,38,1,39,1
652,21,1,21,1,0,1,-21,1,11,1,11,1,-8,1,59,1,73,1,45,1,40,1,39,1
653,22,1,21,1,-1,1,-21,1,12,1,10,1,-9,1,60,1,75,1,46,1,43,1,40,1
654,23,1,22,1,-1,1,-22,1,12,1,11,1,-10,1,61,1,78,1,49,1,45,1,41,1
655,23,1,23,1,0,1,-23,1,12,1,12,1,-10,1,61,1,80,1,52,1,47,1,43,1
656,23,1,24,1,1,1,-23,1,11,1,13,1,-11,1,62,1,82,1,54,1,48,1,44,1
657,23,1,25,1,2,1,-24,1,11,1,14,1,-12,1,63,1,83,1,55,1,49,1,45,1
658,23,1,26,1,3,1,-24,1,10,1,15,1,-12,1,64,1,84,1,56,1,51,1,46,1
659,24,1,28,1,4,1,-26,1,10,1,16,1,-14,1,64,1,85,1,57,1,52,1,47,1
660,25,1,29,1,4,1,-27,1,11,1,17,1,-15,1,65,1,87,1,59,1,53,1,49,1
661,26,1,30,1,4,1,-28,1,11,1,17,1,-15,1,65,1,87,1,60,1,54,1,50,1
662,26,1,32,1,6,1,-29,1,10,1,19,1,-15,1,66,1,88,1,61,1,55,1,51,1
663,26,1,32,1,6,1,-29,1,10,1,19,1,-15,1,65,1,89,1,62,1,56,1,52,1
664,26,1,33,1,7,1,-29,1,10,1,20,1,-15,1,64,1,89,1,62,1,56,1,52,1
665,26,1,33,1,7,1,-29,1,10,1,20,1,-16,1,63,1,89,1,62,1,57,1,52,1
666,26,1,34,1,8,1,-30,1,9,1,21,1,-17,1,62,1,89,1,62,1,57,1,53,1
667,27,1,35,1,8,1,-31,1,10,1,22,1,-17,1,61,1,90,1,63,1,58,1,54,1
668,27,1,35,1,8,1,-31,1,10,1,22,1,-17,1,60,1,90,1,63,1,58,1,55,1
669,26,1,35,1,9,1,-30,1,9,1,22,1,-17,1,58,1,89,1,63,1,59,1,55,1
670,26,1,35,1,9,1,-30,1,9,1,22,1,-18,1,57,1,88,1,62,1,59,1,55,1
671,26,1,35,1,9,1,-30,1,9,1,22,1,-18,1,56,1,87,1,62,1,58,1,55,1
672,26,1,35,1,9,1,-30,1,9,1,22,1,-18,1,54,1,86,1,61,1,58,1,56,1
673,27,1,35,1,8,1,-31,1,10,1,22,1,-18,1,52,1,85,1,61,1,59,1,55,1
674,27,1,36,1,9,1,-31,1,9,1,23,1,-18,1,51,1,83,1,61,1,58,1,55,1
675,27,1,36,1,9,1,-31,1,9,1,23,1,-17,1,50,1,82,1,61,1,58,1,55,1
676,26,1,36,1,10,1,-31,1,8,1,23,1,-17,1,48,1,81,1,60,1,56,1,55,1
677,26,1,36,1,10,1,-31,1,8,1,23,1,-17,1,47,1,79,1,60,1,56,1,54,1
678,26,1,36,1,10,1,-31,1,8,1,23,1,-16,1,47,1,78,1,58,1,55,1,53,1
679,25,1,35,1,10,1,-30,1,8,1,23,1,-15,1,46,1,77,1,57,1,54,1,53,1
680,25,1,35,1,10,1,-30,1,8,1,23,1,-14,1,45,1,76,1,56,1,54,1,51,1
681,23,1,35,1,12,1,-29,1,6,1,24,1,-13,1,44,1,74,1,55,1,53,1,51,1
682,22,1,33,1,11,1,-27,1,6,1,22,1,-13,1,42,1,73,1,53,1,52,1,50,1
683,20,1,32,1,12,1,-26,1,4,1,22,1,-12,1,41,1,72,1,52,1,50,1,49,1
684,19,1,31,1,12,1,-25,1,4,1,22,1,-12,1,39,1,71,1,51,1,49,1,49,1
685,19,1,31,1,12,1,-25,1,4,1,22,1,-11,1,37,1,69,1,49,1,48,1,47,1
686,18,1,29,1,11,1,-23,1,4,1,20,1,-10,1,37,1,68,1,48,1,46,1,46,1
687,17,1,29,1,12,1,-23,1,3,1,21,1,-9,1,36,1,66,1,45,1,44,1,44,1
688,16,1,28,1,12,1,-22,1,2,1,20,1,-9,1,34,1,65,1,42,1,43,1,42,1
689,14,1,26,1,12,1,-20,1,1,1,19,1,-7,1,33,1,62,1,39,1,41,1,40,1
690,13,1,24,1,11,1,-18,1,1,1,18,1,-6,1,32,1,60,1,38,1,40,1,40,1
691,13,1,22,1,9,1,-17,1,2,1,16,1,-5,1,31,1,57,1,36,1,38,1,38,1
692,13,1,21,1,8,1,-17,1,3,1,15,1,-4,1,31,1,55,1,34,1,37,1,37,1
693,12,1,20,1,8,1,-16,1,2,1,14,1,-3,1,29,1,54,1,33,1,35,1,34,1
694,10,1,20,1,10,1,-15,1,0,1,15,1,-3,1,29,1,53,1,31,1,33,1,32,1
695,10,1,20,1,10,1,-15,1,0,1,15,1,-2,1,27,1,51,1,29,1,31,1,31,1
696,9,1,19,1,10,1,-14,1,0,1,15,1,-1,1,27,1,48,1,28,1,29,1,30,1
697,9,1,18,1,9,1,-13,1,0,1,14,1,0,1,26,1,46,1,26,1,28,1,29,1
698,9,1,16,1,7,1,-12,1,1,1,12,1,0,1,24,1,45,1,24,1,27,1,28,1
699,8,1,15,1,7,1,-11,1,1,1,11,1,1,1,23,1,44,1,22,1,26,1,26,1
700,6,1,13,1,7,1,-9,1,0,1,10,1,2,1,23,1,42,1,21,1,24,1,25,1
701,5,1,11,1,6,1,-8,1,0,1,9,1,4,1,22,1,41,1,20,1,22,1,24,1
702,3,1,10,1,7,1,-6,1,-2,1,9,1,4,1,21,1,39,1,19,1,20,1,24,1
703,2,1,10,1,8,1,-6,1,-3,1,9,1,5,1,21,1,37,1,17,1,20,1,23,1
704,2,1,9,1,7,1,-5,1,-2,1,8,1,5,1,20,1,34,1,15,1,18,1,22,1
705,2,1,8,1,6,1,-5,1,-2,1,7,1,5,1,19,1,33,1,13,1,17,1,20,1
706,2,1,7,1,5,1,-4,1,-1,1,6,1,6,1,18,1,32,1,11,1,15,1,19,1
707,1,1,6,1,5,1,-3,1,-2,1,6,1,7,1,18,1,30,1,9,1,15,1,18,1
708,1,1,4,1,3,1,-2,1,-1,1,4,1,7,1,16,1,28,1,8,1,13,1,18,1
709,0,1,3,1,3,1,-1,1,-1,1,3,1,7,1,16,1,27,1,7,1,13,1,17,1
710,0,1,2,1,2,1,-1,1,-1,1,2,1,8,1,15,1,26,1,6,1,11,1,15,1
711,-2,1,1,1,3,1,0,1,-2,1,2,1,9,1,14,1,25,1,5,1,11,1,15,1
712,-2,1,1,1,3,1,0,1,-2,1,2,1,9,1,14,1,24,1,4,1,9,1,14,1
713,-2,1,0,1,2,1,1,1,-2,1,1,1,9,1,13,1,22,1,4,1,8,1,13,1
714,-2,1,-1,1,1,1,1,1,-2,1,0,1,9,1,12,1,20,1,2,1,7,1,12,1
715,-3,1,-2,1,1,1,2,1,-2,1,-1,1,9,1,10,1,19,1,1,1,6,1,12,1
716,-3,1,-3,1,0,1,3,1,-2,1,-2,1,8,1,10,1,19,1,0,1,5,1,11,1
717,-4,1,-3,1,1,1,3,1,-3,1,-1,1,8,1,10,1,17,1,0,1,5,1,10,1
718,-4,1,-3,1,1,1,3,1,-3,1,-1,1,8,1,10,1,17,1,-1,1,4,1,10,1
719,-2,1,-3,1,-1,1,2,1,-1,1,-2,1,9,1,10,1,16,1,-1,1,3,1,10,1
720,-2,1,-3,1,-1,1,2,1,-1,1,-2,1,10,1,10,1,16,1,-1,1,3,1,10,1
721,-2,1,-3,1,-1,1,2,1,-1,1,-2,1,10,1,9,1,14,1,-2,1,2,1,9,1
722,-3,1,-2,1,1,1,2,1,-2,1,-1,1,10,1,9,1,14,1,-3,1,2,1,9,1
723,-4,1,-2,1,2,1,3,1,-3,1,0,1,10,1,10,1,14,1,-3,1,3,1,8,1
724,-3,1,-1,1,2,1,2,1,-3,1,0,1,11,1,11,1,14,1,-3,1,3,1,9,1
725,-3,1,-1,1,2,1,2,1,-3,1,0,1,11,1,11,1,14,1,-2,1,2,1,9,1
726,-3,1,-1,1,2,1,2,1,-3,1,0,1,11,1,12,1,14,1,-2,1,1,1,9,1
727,-3,1,-1,1,2,1,2,1,-3,1,0,1,11,1,11,1,14,1,-2,1,0,1,8,1
728,-3,1,-1,1,2,1,2,1,-3,1,0,1,11,1,11,1,14,1,-2,1,0,1,8,1
729,-3,1,-2,1,1,1,2,1,-2,1,-1,1,11,1,12,1,14,1,-2,1,0,1,8,1
730,-4,1,-3,1,1,1,3,1,-3,1,-1,1,11,1,12,1,14,1,-2,1,0,1,8,1
731,-4,1,-3,1,1,1,3,1,-3,1,-1,1,11,1,12,1,14,1,-1,1,1,1,9,1
732,-3,1,-1,1,2,1,2,1,-3,1,0,1,11,1,14,1,15,1,-1,1,2,1,9,1
733,-3,1,0,1,3,1,1,1,-3,1,1,1,11,1,14,1,15,1,0,1,2,1,11,1
734,-3,1,0,1,3,1,1,1,-3,1,1,1,12,1,15,1,15,1,0,1,3,1,11,1
735,-3,1,1,1,4,1,1,1,-3,1,2,1,13,1,15,1,16,1,0,1,3,1,11,1
736,-2,1,1,1,3,1,0,1,-2,1,2,1,12,1,16,1,16,1,1,1,3,1,12,1
737,-2,1,1,1,3,1,0,1,-2,1,2,1,12,1,16,1,17,1,1,1,4,1,12,1
738,-2,1,1,1,3,1,0,1,-2,1,2,1,13,1,16,1,17,1,1,1,4,1,12,1
739,-2,1,1,1,3,1,0,1,-2,1,2,1,13,1,17,1,17,1,2,1,4,1,12,1
740,-3,1,1,1,4,1,1,1,-3,1,2,1,13,1,17,1,19,1,2,1,4,1,12,1
741,-3,1,1,1,4,1,1,1,-3,1,2,1,13,1,17,1,19,1,2,1,4,1,12,1
742,-3,1,1,1,4,1,1,1,-3,1,2,1,13,1,18,1,19,1,2,1,3,1,12,1
743,-3,1,1,1,4,1,1,1,-3,1,2,1,13,1,18,1,19,1,2,1,3,1,12,1
744,-3,1,1,1,4,1,1,1,-3,1,2,1,14,1,18,1,20,1,2,1,4,1,12,1
745,-3,1,1,1,4,1,1,1,-3,1,2,1,14,1,18,1,20,1,2,1,3,1,13,1
746,-3,1,2,1,5,1,0,1,-4,1,3,1,14,1,19,1,21,1,2,1,2,1,13,1
747,-3,1,2,1,5,1,0,1,-4,1,3,1,13,1,19,1,21,1,2,1,1,1,13,1
748,-4,1,1,1,5,1,1,1,-4,1,3,1,13,1,19,1,22,1,2,1,1,1,12,1
749,-4,1,1,1,5,1,1,1,-4,1,3,1,13,1,20,1,22,1,2,1,1,1,13,1
750,-4,1,2,1,6,1,1,1,-5,1,4,1,13,1,20,1,22,1,2,1,2,1,12,1
751,-4,1,3,1,7,1,0,1,-5,1,5,1,13,1,21,1,22,1,3,1,4,1,12,1
752,-4,1,3,1,7,1,0,1,-5,1,5,1,12,1,21,1,22,1,3,1,4,1,12,1
753,-3,1,3,1,6,1,0,1,-4,1,4,1,12,1,21,1,23,1,3,1,5,1,12,1
754,-3,1,3,1,6,1,0,1,-4,1,4,1,12,1,22,1,23,1,3,1,5,1,12,1
755,-3,1,3,1,6,1,0,1,-4,1,4,1,13,1,23,1,24,1,4,1,4,1,11,1
756,-3,1,3,1,6,1,0,1,-4,1,4,1,11,1,23,1,24,1,4,1,3,1,11,1
757,-3,1,3,1,6,1,0,1,-4,1,4,1,11,1,23,1,23,1,4,1,2,1,11,1
758,-3,1,2,1,5,1,0,1,-4,1,3,1,11,1,23,1,23,1,4,1,2,1,11,1
759,-3,1,2,1,5,1,0,1,-4,1,3,1,11,1,24,1,24,1,4,1,2,1,11,1
760,-3,1,2,1,5,1,0,1,-4,1,3,1,12,1,24,1,24,1,3,1,3,1,12,1
761,-3,1,1,1,4,1,1,1,-3,1,2,1,13,1,24,1,24,1,3,1,4,1,13,1
762,-3,1,1,1,4,1,1,1,-3,1,2,1,12,1,24,1,24,1,3,1,4,1,13,1
763,-3,1,1,1,4,1,1,1,-3,1,2,1,12,1,23,1,24,1,3,1,4,1,13,1
764,-2,1,1,1,3,1,0,1,-2,1,2,1,11,1,23,1,24,1,3,1,3,1,13,1
765,-1,1,3,1,4,1,-1,1,-2,1,3,1,11,1,23,1,23,1,3,1,3,1,13,1
766,-1,1,4,1,5,1,-1,1,-3,1,4,1,11,1,23,1,23,1,4,1,3,1,14,1
767,0,1,4,1,4,1,-2,1,-2,1,4,1,11,1,23,1,23,1,4,1,3,1,14,1
768,0,1,4,1,4,1,-2,1,-2,1,4,1,11,1,23,1,24,1,4,1,3,1,14,1
769,0,1,5,1,5,1,-2,1,-2,1,5,1,11,1,23,1,24,1,4,1,3,1,13,1
770,1,1,5,1,4,1,-3,1,-1,1,5,1,12,1,23,1,25,1,4,1,4,1,14,1
771,0,1,5,1,5,1,-2,1,-2,1,5,1,12,1,24,1,25,1,4,1,4,1,14,1
772,0,1,5,1,5,1,-2,1,-2,1,5,1,12,1,25,1,26,1,5,1,5,1,15,1
773,0,1,5,1,5,1,-2,1,-2,1,5,1,13,1,26,1,26,1,5,1,5,1,14,1
774,0,1,4,1,4,1,-2,1,-2,1,4,1,12,1,25,1,25,1,4,1,5,1,14,1
775,0,1,4,1,4,1,-2,1,-2,1,4,1,11,1,25,1,23,1,3,1,5,1,14,1
776,0,1,3,1,3,1,-1,1,-1,1,3,1,10,1,24,1,22,1,2,1,5,1,14,1
777,0,1,3,1,3,1,-1,1,-1,1,3,1,10,1,24,1,22,1,2,1,5,1,14,1
778,-1,1,4,1,5,1,-1,1,-3,1,4,1,10,1,23,1,22,1,2,1,4,1,13,1
779,-1,1,4,1,5,1,-1,1,-3,1,4,1,10,1,23,1,22,1,2,1,4,1,12,1
780,-1,1,3,1,4,1,-1,1,-2,1,3,1,10,1,23,1,20,1,2,1,3,1,11,1
781,-1,1,3,1,4,1,-1,1,-2,1,3,1,10,1,23,1,20,1,2,1,3,1,11,1
782,-1,1,4,1,5,1,-1,1,-3,1,4,1,9,1,23,1,19,1,2,1,2,1,11,1
783,-2,1,3,1,5,1,0,1,-3,1,4,1,9,1,23,1,18,1,2,1,3,1,11,1
784,-2,1,2,1,4,1,0,1,-3,1,3,1,9,1,23,1,18,1,2,1,3,1,11,1
785,-3,1,2,1,5,1,0,1,-4,1,3,1,10,1,23,1,18,1,2,1,2,1,11,1
786,-3,1,1,1,4,1,1,1,-3,1,2,1,10,1,23,1,16,1,1,1,1,1,11,1
787,-3,1,2,1,5,1,0,1,-4,1,3,1,9,1,22,1,16,1,1,1,0,1,11,1
788,-3,1,2,1,5,1,0,1,-4,1,3,1,9,1,22,1,16,1,0,1,0,1,10,1
789,-4,1,1,1,5,1,1,1,-4,1,3,1,9,1,22,1,16,1,1,1,0,1,10,1
790,-4,1,0,1,4,1,2,1,-4,1,2,1,10,1,21,1,17,1,1,1,0,1,10,1
791,-5,1,0,1,5,1,2,1,-5,1,2,1,11,1,21,1,17,1,2,1,0,1,10,1
792,-5,1,0,1,5,1,2,1,-5,1,2,1,11,1,21,1,17,1,2,1,1,1,10,1
793,-4,1,1,1,5,1,1,1,-4,1,3,1,12,1,22,1,16,1,2,1,1,1,11,1
794,-3,1,0,1,3,1,1,1,-3,1,1,1,12,1,21,1,16,1,2,1,1,1,11,1
795,-3,1,0,1,3,1,1,1,-3,1,1,1,10,1,21,1,15,1,2,1,1,1,11,1
796,-3,1,0,1,3,1,1,1,-3,1,1,1,10,1,21,1,15,1,2,1,2,1,11,1
797,-4,1,0,1,4,1,2,1,-4,1,2,1,10,1,21,1,14,1,2,1,2,1,11,1
798,-4,1,0,1,4,1,2,1,-4,1,2,1,10,1,21,1,14,1,2,1,2,1,11,1
799,-4,1,0,1,4,1,2,1,-4,1,2,1,10,1,20,1,14,1,2,1,2,1,10,1
800,-4,1,0,1,4,1,2,1,-4,1,2,1,10,1,20,1,14,1,2,1,1,1,10,1
801,-4,1,0,1,4,1,2,1,-4,1,2,1,11,1,20,1,14,1,1,1,0,1,9,1
802,-5,1,-1,1,4,1,3,1,-5,1,1,1,11,1,20,1,14,1,2,1,0,1,9,1
803,-5,1,-1,1,4,1,3,1,-5,1,1,1,11,1,20,1,13,1,2,1,0,1,9,1
804,-5,1,-1,1,4,1,3,1,-5,1,1,1,11,1,19,1,13,1,1,1,1,1,8,1
805,-5,1,0,1,5,1,2,1,-5,1,2,1,10,1,19,1,11,1,1,1,0,1,8,1
806,-5,1,0,1,5,1,2,1,-5,1,2,1,8,1,18,1,11,1,0,1,-1,1,8,1
807,-5,1,0,1,5,1,2,1,-5,1,2,1,8,1,18,1,10,1,-1,1,-2,1,8,1
808,-5,1,0,1,5,1,2,1,-5,1,2,1,8,1,18,1,9,1,-1,1,-3,1,7,1
809,-5,1,0,1,5,1,2,1,-5,1,2,1,9,1,18,1,9,1,-1,1,-3,1,7,1
810,-5,1,-1,1,4,1,3,1,-5,1,1,1,9,1,17,1,9,1,-1,1,-2,1,7,1
811,-6,1,-1,1,5,1,3,1,-6,1,2,1,9,1,17,1,9,1,-1,1,-2,1,6,1
812,-6,1,-2,1,4,1,4,1,-5,1,1,1,9,1,16,1,8,1,-1,1,-3,1,6,1
813,-5,1,-1,1,4,1,3,1,-5,1,1,1,9,1,16,1,8,1,-1,1,-3,1,5,1
814,-5,1,-1,1,4,1,3,1,-5,1,1,1,9,1,16,1,8,1,-1,1,-3,1,5,1
815,-4,1,-2,1,2,1,3,1,-3,1,0,1,9,1,17,1,9,1,-1,1,-3,1,6,1
816,-4,1,-2,1,2,1,3,1,-3,1,0,1,9,1,17,1,9,1,-1,1,-3,1,5,1
817,-4,1,-2,1,2,1,3,1,-3,1,0,1,9,1,17,1,9,1,-2,1,-3,1,5,1
818,-4,1,-2,1,2,1,3,1,-3,1,0,1,9,1,17,1,9,1,-2,1,-4,1,6,1
819,-4,1,-2,1,2,1,3,1,-3,1,0,1,10,1,17,1,9,1,-2,1,-3,1,6,1
820,-6,1,-2,1,4,1,4,1,-5,1,1,1,10,1,17,1,8,1,-2,1,-3,1,6,1
821,-6,1,-2,1,4,1,4,1,-5,1,1,1,10,1,18,1,8,1,-2,1,-2,1,6,1
822,-6,1,-1,1,5,1,3,1,-6,1,2,1,10,1,17,1,8,1,-2,1,-1,1,7,1
823,-6,1,-1,1,5,1,3,1,-6,1,2,1,10,1,17,1,8,1,-2,1,-1,1,6,1
824,-5,1,-1,1,4,1,3,1,-5,1,1,1,10,1,18,1,8,1,-1,1,-1,1,6,1
825,-5,1,-1,1,4,1,3,1,-5,1,1,1,10,1,18,1,8,1,-1,1,-2,1,6,1
826,-4,1,-1,1,3,1,2,1,-4,1,1,1,10,1,18,1,9,1,-1,1,-2,1,7,1
827,-4,1,-1,1,3,1,2,1,-4,1,1,1,9,1,19,1,8,1,0,1,-2,1,7,1
828,-4,1,0,1,4,1,2,1,-4,1,2,1,9,1,18,1,8,1,0,1,-2,1,7,1
829,-5,1,0,1,5,1,2,1,-5,1,2,1,9,1,18,1,8,1,0,1,-2,1,7,1
830,-5,1,-1,1,4,1,3,1,-5,1,1,1,10,1,18,1,8,1,0,1,-2,1,7,1
831,-6,1,-1,1,5,1,3,1,-6,1,2,1,11,1,18,1,8,1,0,1,-1,1,7,1
832,-7,1,-1,1,6,1,4,1,-7,1,2,1,11,1,17,1,8,1,0,1,-1,1,7,1
833,-6,1,-1,1,5,1,3,1,-6,1,2,1,11,1,17,1,8,1,0,1,-1,1,7,1
834,-6,1,-1,1,5,1,3,1,-6,1,2,1,10,1,18,1,7,1,0,1,-1,1,7,1
835,-6,1,-1,1,5,1,3,1,-6,1,2,1,10,1,17,1,7,1,0,1,-1,1,6,1
836,-6,1,-2,1,4,1,4,1,-5,1,1,1,10,1,17,1,7,1,0,1,-2,1,6,1
837,-6,1,-2,1,4,1,4,1,-5,1,1,1,10,1,18,1,6,1,0,1,-2,1,6,1
838,-6,1,-2,1,4,1,4,1,-5,1,1,1,9,1,17,1,7,1,0,1,-2,1,6,1
839,-6,1,0,1,6,1,3,1,-6,1,3,1,9,1,17,1,6,1,0,1,-2,1,6,1
840,-6,1,0,1,6,1,3,1,-6,1,3,1,8,1,16,1,6,1,-1,1,-2,1,6,1
841,-6,1,0,1,6,1,3,1,-6,1,3,1,8,1,16,1,6,1,0,1,-1,1,7,1
842,-6,1,0,1,6,1,3,1,-6,1,3,1,9,1,17,1,6,1,0,1,-1,1,7,1
843,-5,1,-1,1,4,1,3,1,-5,1,1,1,9,1,17,1,6,1,0,1,-1,1,6,1
844,-5,1,-1,1,4,1,3,1,-5,1,1,1,9,1,17,1,6,1,0,1,-1,1,6,1
845,-5,1,-1,1,4,1,3,1,-5,1,1,1,9,1,17,1,6,1,0,1,-2,1,6,1
846,-4,1,-1,1,3,1,2,1,-4,1,1,1,10,1,17,1,6,1,0,1,-3,1,5,1
847,-4,1,-1,1,3,1,2,1,-4,1,1,1,10,1,17,1,6,1,0,1,-4,1,5,1
848,-4,1,-2,1,2,1,3,1,-3,1,0,1,10,1,17,1,6,1,0,1,-5,1,5,1
849,-4,1,-2,1,2,1,3,1,-3,1,0,1,10,1,17,1,6,1,0,1,-4,1,5,1
850,-5,1,-3,1,2,1,4,1,-4,1,-1,1,10,1,16,1,6,1,0,1,-4,1,5,1
851,-5,1,-2,1,3,1,3,1,-4,1,0,1,10,1,16,1,6,1,0,1,-4,1,5,1
852,-6,1,-2,1,4,1,4,1,-5,1,1,1,10,1,17,1,6,1,1,1,-4,1,5,1
853,-6,1,-1,1,5,1,3,1,-6,1,2,1,10,1,17,1,6,1,1,1,-4,1,5,1
854,-7,1,0,1,7,1,3,1,-7,1,3,1,10,1,17,1,6,1,1,1,-4,1,5,1
855,-6,1,0,1,6,1,3,1,-6,1,3,1,10,1,17,1,6,1,2,1,-5,1,5,1
856,-6,1,1,1,7,1,2,1,-6,1,4,1,10,1,18,1,6,1,3,1,-5,1,6,1
857,-5,1,2,1,7,1,1,1,-6,1,4,1,10,1,18,1,6,1,4,1,-4,1,6,1
858,-5,1,3,1,8,1,1,1,-6,1,5,1,11,1,18,1,6,1,4,1,-4,1,6,1
859,-5,1,3,1,8,1,1,1,-6,1,5,1,12,1,18,1,5,1,5,1,-3,1,7,1
860,-5,1,5,1,10,1,0,1,-7,1,7,1,13,1,18,1,6,1,5,1,-2,1,8,1
861,-4,1,6,1,10,1,-1,1,-7,1,8,1,14,1,18,1,7,1,6,1,-1,1,8,1
862,-4,1,6,1,10,1,-1,1,-7,1,8,1,14,1,18,1,6,1,6,1,-1,1,8,1
863,-4,1,6,1,10,1,-1,1,-7,1,8,1,14,1,19,1,6,1,6,1,-1,1,9,1
864,-4,1,6,1,10,1,-1,1,-7,1,8,1,14,1,19,1,7,1,6,1,-1,1,9,1
865,-3,1,7,1,10,1,-2,1,-6,1,8,1,14,1,20,1,6,1,5,1,-1,1,9,1
866,-3,1,6,1,9,1,-1,1,-6,1,7,1,12,1,19,1,6,1,5,1,-2,1,9,1
867,-3,1,6,1,9,1,-1,1,-6,1,7,1,12,1,19,1,5,1,4,1,-2,1,8,1
868,-3,1,5,1,8,1,-1,1,-5,1,6,1,11,1,19,1,6,1,4,1,-2,1,8,1
869,-2,1,5,1,7,1,-1,1,-4,1,6,1,10,1,20,1,6,1,5,1,-2,1,8,1
870,-1,1,5,1,6,1,-2,1,-3,1,5,1,10,1,20,1,7,1,7,1,-1,1,8,1
871,0,1,6,1,6,1,-3,1,-3,1,6,1,9,1,21,1,7,1,7,1,-1,1,8,1
872,0,1,6,1,6,1,-3,1,-3,1,6,1,7,1,21,1,8,1,8,1,0,1,9,1
873,0,1,7,1,7,1,-3,1,-3,1,7,1,6,1,22,1,9,1,10,1,1,1,10,1
874,1,1,7,1,6,1,-4,1,-2,1,7,1,4,1,22,1,10,1,11,1,2,1,11,1
875,2,1,7,1,5,1,-4,1,-1,1,6,1,3,1,22,1,9,1,11,1,2,1,10,1
876,2,1,7,1,5,1,-4,1,-1,1,6,1,2,1,23,1,9,1,11,1,2,1,10,1
877,4,1,7,1,3,1,-5,1,1,1,5,1,2,1,23,1,9,1,11,1,2,1,10,1
878,4,1,8,1,4,1,-6,1,0,1,6,1,2,1,24,1,10,1,11,1,3,1,10,1
879,3,1,8,1,5,1,-5,1,-1,1,7,1,2,1,25,1,10,1,11,1,3,1,10,1
880,3,1,8,1,5,1,-5,1,-1,1,7,1,3,1,24,1,10,1,11,1,3,1,10,1
881,3,1,8,1,5,1,-5,1,-1,1,7,1,4,1,24,1,10,1,11,1,2,1,10,1
882,4,1,8,1,4,1,-6,1,0,1,6,1,4,1,25,1,11,1,11,1,2,1,10,1
883,4,1,8,1,4,1,-6,1,0,1,6,1,5,1,25,1,11,1,12,1,3,1,10,1
884,5,1,9,1,4,1,-7,1,1,1,7,1,5,1,25,1,10,1,12,1,2,1,10,1
885,6,1,10,1,4,1,-8,1,1,1,7,1,5,1,25,1,9,1,11,1,2,1,10,1
886,6,1,10,1,4,1,-8,1,1,1,7,1,5,1,25,1,9,1,11,1,2,1,10,1
887,5,1,11,1,6,1,-8,1,0,1,9,1,6,1,24,1,9,1,10,1,2,1,10,1
888,5,1,11,1,6,1,-8,1,0,1,9,1,6,1,24,1,9,1,10,1,2,1,11,1
889,4,1,12,1,8,1,-8,1,-2,1,10,1,7,1,24,1,9,1,10,1,2,1,11,1
890,3,1,12,1,9,1,-7,1,-3,1,11,1,6,1,24,1,9,1,10,1,2,1,11,1
891,3,1,11,1,8,1,-7,1,-2,1,10,1,6,1,23,1,8,1,10,1,1,1,11,1
892,1,1,11,1,10,1,-6,1,-4,1,11,1,7,1,21,1,6,1,10,1,1,1,11,1
893,0,1,10,1,10,1,-5,1,-5,1,10,1,7,1,21,1,6,1,9,1,1,1,10,1
894,-1,1,9,1,10,1,-4,1,-5,1,9,1,7,1,21,1,5,1,9,1,0,1,9,1
895,-2,1,9,1,11,1,-3,1,-6,1,10,1,7,1,20,1,4,1,9,1,0,1,7,1
896,-3,1,8,1,11,1,-2,1,-7,1,9,1,8,1,18,1,4,1,8,1,-1,1,6,1
897,-4,1,7,1,11,1,-1,1,-7,1,9,1,8,1,18,1,2,1,7,1,-3,1,5,1
898,-4,1,6,1,10,1,-1,1,-7,1,8,1,8,1,17,1,1,1,6,1,-4,1,5,1
899,-6,1,6,1,12,1,0,1,-9,1,9,1,7,1,17,1,1,1,5,1,-4,1,5,1
900,-7,1,5,1,12,1,1,1,-9,1,8,1,7,1,16,1,0,1,4,1,-5,1,4,1
901,-7,1,2,1,9,1,2,1,-8,1,5,1,6,1,15,1,0,1,3,1,-6,1,3,1
902,-8,1,1,1,9,1,3,1,-8,1,5,1,6,1,14,1,-2,1,3,1,-7,1,2,1
903,-8,1,0,1,8,1,4,1,-8,1,4,1,5,1,14,1,-3,1,1,1,-7,1,2,1
904,-8,1,-2,1,6,1,5,1,-7,1,2,1,4,1,13,1,-4,1,1,1,-8,1,1,1
905,-8,1,-3,1,5,1,5,1,-7,1,1,1,4,1,13,1,-5,1,0,1,-8,1,1,1
906,-8,1,-3,1,5,1,5,1,-7,1,1,1,4,1,12,1,-6,1,0,1,-9,1,1,1
907,-8,1,-3,1,5,1,5,1,-7,1,1,1,3,1,12,1,-6,1,-1,1,-9,1,1,1
908,-9,1,-3,1,6,1,6,1,-8,1,1,1,3,1,12,1,-7,1,-1,1,-9,1,1,1
909,-9,1,-3,1,6,1,6,1,-8,1,1,1,4,1,12,1,-7,1,-2,1,-9,1,0,1
910,-10,1,-2,1,8,1,6,1,-9,1,3,1,3,1,11,1,-8,1,-2,1,-9,1,0,1
911,-9,1,-1,1,8,1,5,1,-9,1,3,1,3,1,11,1,-9,1,-1,1,-9,1,0,1
912,-9,1,0,1,9,1,4,1,-9,1,4,1,4,1,12,1,-9,1,-1,1,-9,1,0,1
913,-9,1,0,1,9,1,4,1,-9,1,4,1,4,1,12,1,-9,1,-1,1,-9,1,0,1
914,-10,1,1,1,11,1,4,1,-10,1,6,1,5,1,12,1,-9,1,-1,1,-8,1,0,1
915,-9,1,1,1,10,1,4,1,-9,1,5,1,6,1,13,1,-7,1,0,1,-8,1,0,1
916,-8,1,2,1,10,1,3,1,-9,1,6,1,6,1,14,1,-6,1,1,1,-8,1,1,1
917,-7,1,2,1,9,1,2,1,-8,1,5,1,5,1,14,1,-6,1,1,1,-8,1,1,1
918,-8,1,2,1,10,1,3,1,-9,1,6,1,5,1,14,1,-6,1,2,1,-8,1,1,1
919,-8,1,2,1,10,1,3,1,-9,1,6,1,6,1,15,1,-5,1,3,1,-8,1,1,1
920,-8,1,3,1,11,1,2,1,-9,1,7,1,6,1,16,1,-5,1,4,1,-8,1,2,1
921,-8,1,2,1,10,1,3,1,-9,1,6,1,7,1,16,1,-5,1,4,1,-7,1,2,1
922,-8,1,2,1,10,1,3,1,-9,1,6,1,8,1,17,1,-4,1,5,1,-6,1,2,1
923,-9,1,2,1,11,1,3,1,-10,1,6,1,9,1,19,1,-2,1,5,1,-6,1,2,1
924,-9,1,3,1,12,1,3,1,-10,1,7,1,9,1,21,1,0,1,6,1,-6,1,2,1
925,-10,1,4,1,14,1,3,1,-12,1,9,1,10,1,23,1,2,1,7,1,-5,1,2,1
926,-10,1,6,1,16,1,2,1,-13,1,11,1,12,1,25,1,4,1,8,1,-5,1,2,1
927,-10,1,7,1,17,1,1,1,-13,1,12,1,14,1,28,1,7,1,10,1,-4,1,2,1
928,-10,1,10,1,20,1,0,1,-15,1,15,1,15,1,32,1,10,1,13,1,-2,1,4,1
929,-11,1,13,1,24,1,-1,1,-17,1,18,1,18,1,35,1,14,1,17,1,-1,1,5,1
930,-11,1,15,1,26,1,-2,1,-18,1,20,1,20,1,42,1,20,1,22,1,2,1,7,1
931,-10,1,17,1,27,1,-3,1,-18,1,22,1,24,1,51,1,28,1,30,1,6,1,10,1
932,-8,1,20,1,28,1,-6,1,-18,1,24,1,28,1,64,1,41,1,42,1,14,1,14,1
933,-5,1,24,1,29,1,-9,1,-17,1,26,1,34,1,79,1,58,1,58,1,24,1,19,1
934,-2,1,29,1,31,1,-13,1,-16,1,30,1,41,1,97,1,78,1,76,1,37,1,26,1
935,2,1,35,1,33,1,-18,1,-15,1,34,1,45,1,112,1,99,1,95,1,53,1,34,1
936,8,1,42,1,34,1,-25,1,-13,1,38,1,47,1,121,1,117,1,114,1,70,1,45,1
937,15,1,50,1,35,1,-32,1,-10,1,43,1,44,1,117,1,127,1,132,1,88,1,58,1
938,23,1,60,1,37,1,-41,1,-7,1,49,1,37,1,94,1,128,1,147,1,106,1,74,1
939,30,1,68,1,38,1,-49,1,-4,1,53,1,27,1,61,1,123,1,160,1,122,1,88,1
940,35,1,71,1,36,1,-53,1,0,1,54,1,17,1,23,1,115,1,167,1,132,1,98,1
941,36,1,69,1,33,1,-52,1,2,1,51,1,9,1,-16,1,100,1,164,1,134,1,101,1
942,33,1,60,1,27,1,-46,1,3,1,44,1,4,1,-57,1,76,1,150,1,124,1,95,1
943,29,1,47,1,18,1,-38,1,6,1,33,1,0,1,-96,1,46,1,128,1,111,1,83,1
944,24,1,35,1,11,1,-29,1,7,1,23,1,-4,1,-132,1,13,1,103,1,93,1,69,1
945,18,1,22,1,4,1,-20,1,7,1,13,1,-7,1,-167,1,-28,1,69,1,71,1,55,1
946,10,1,8,1,-2,1,-9,1,6,1,3,1,-11,1,-204,1,-85,1,22,1,42,1,41,1
947,1,1,-6,1,-7,1,2,1,4,1,-6,1,-14,1,-236,1,-146,1,-30,1,9,1,25,1
948,-7,1,-23,1,-16,1,15,1,4,1,-20,1,-17,1,-256,1,-195,1,-77,1,-24,1,9,1
949,-17,1,-40,1,-23,1,28,1,3,1,-32,1,-18,1,-263,1,-228,1,-114,1,-53,1,-7,1
950,-26,1,-54,1,-28,1,40,1,1,1,-41,1,-19,1,-259,1,-244,1,-138,1,-76,1,-22,1
951,-31,1,-67,1,-36,1,49,1,2,1,-52,1,-22,1,-253,1,-250,1,-152,1,-92,1,-33,1
952,-33,1,-76,1,-43,1,54,1,5,1,-60,1,-29,1,-246,1,-249,1,-157,1,-101,1,-42,1
953,-35,1,-80,1,-45,1,57,1,5,1,-63,1,-37,1,-239,1,-246,1,-158,1,-105,1,-50,1
954,-35,1,-82,1,-47,1,58,1,6,1,-65,1,-46,1,-232,1,-243,1,-156,1,-105,1,-54,1
955,-35,1,-83,1,-48,1,59,1,6,1,-66,1,-52,1,-222,1,-238,1,-153,1,-104,1,-56,1
956,-34,1,-85,1,-51,1,59,1,8,1,-68,1,-55,1,-208,1,-229,1,-151,1,-104,1,-56,1
957,-32,1,-85,1,-53,1,58,1,10,1,-69,1,-54,1,-188,1,-215,1,-148,1,-103,1,-54,1
958,-32,1,-85,1,-53,1,58,1,10,1,-69,1,-54,1,-167,1,-197,1,-141,1,-101,1,-53,1
959,-31,1,-84,1,-53,1,57,1,11,1,-69,1,-52,1,-144,1,-176,1,-131,1,-98,1,-51,1
960,-31,1,-81,1,-50,1,56,1,9,1,-66,1,-50,1,-124,1,-155,1,-118,1,-93,1,-48,1
961,-29,1,-75,1,-46,1,52,1,8,1,-61,1,-48,1,-108,1,-134,1,-102,1,-85,1,-46,1
962,-27,1,-65,1,-38,1,46,1,5,1,-52,1,-45,1,-95,1,-116,1,-84,1,-76,1,-42,1
963,-25,1,-52,1,-27,1,38,1,1,1,-40,1,-41,1,-84,1,-100,1,-67,1,-63,1,-36,1
964,-22,1,-38,1,-16,1,30,1,-3,1,-27,1,-35,1,-74,1,-89,1,-53,1,-50,1,-30,1
965,-21,1,-25,1,-4,1,23,1,-9,1,-15,1,-29,1,-61,1,-78,1,-42,1,-39,1,-23,1
966,-19,1,-15,1,4,1,17,1,-12,1,-6,1,-22,1,-47,1,-69,1,-36,1,-31,1,-16,1
967,-16,1,-8,1,8,1,12,1,-12,1,0,1,-16,1,-31,1,-58,1,-32,1,-28,1,-11,1
968,-14,1,-4,1,10,1,9,1,-12,1,3,1,-11,1,-14,1,-47,1,-29,1,-27,1,-7,1
969,-12,1,-3,1,9,1,7,1,-11,1,3,1,-6,1,0,1,-34,1,-24,1,-26,1,-5,1
970,-10,1,-2,1,8,1,6,1,-9,1,3,1,-2,1,13,1,-22,1,-17,1,-24,1,-3,1
971,-8,1,0,1,8,1,4,1,-8,1,4,1,1,1,20,1,-12,1,-8,1,-21,1,-3,1
972,-8,1,3,1,11,1,2,1,-9,1,7,1,3,1,22,1,-6,1,0,1,-15,1,-1,1
973,-7,1,7,1,14,1,0,1,-10,1,10,1,4,1,21,1,-3,1,8,1,-9,1,1,1
974,-7,1,10,1,17,1,-1,1,-12,1,13,1,5,1,19,1,-4,1,12,1,-4,1,3,1
975,-6,1,12,1,18,1,-3,1,-12,1,15,1,5,1,19,1,-6,1,12,1,-1,1,5,1
976,-6,1,12,1,18,1,-3,1,-12,1,15,1,6,1,19,1,-8,1,9,1,-1,1,5,1
977,-6,1,12,1,18,1,-3,1,-12,1,15,1,6,1,22,1,-8,1,6,1,-2,1,5,1
978,-6,1,11,1,17,1,-2,1,-11,1,14,1,6,1,26,1,-6,1,5,1,-4,1,6,1
979,-5,1,11,1,16,1,-3,1,-10,1,13,1,6,1,28,1,-4,1,5,1,-6,1,6,1
980,-5,1,11,1,16,1,-3,1,-10,1,13,1,7,1,31,1,-3,1,5,1,-6,1,5,1
981,-5,1,12,1,17,1,-3,1,-11,1,14,1,7,1,32,1,-1,1,8,1,-6,1,5,1
982,-5,1,13,1,18,1,-4,1,-11,1,15,1,8,1,32,1,-1,1,11,1,-6,1,5,1
983,-5,1,14,1,19,1,-4,1,-12,1,16,1,8,1,32,1,0,1,12,1,-5,1,5,1
984,-5,1,15,1,20,1,-5,1,-12,1,17,1,8,1,32,1,0,1,13,1,-3,1,5,1
985,-5,1,16,1,21,1,-5,1,-13,1,18,1,8,1,32,1,1,1,13,1,-3,1,5,1
986,-5,1,15,1,20,1,-5,1,-12,1,17,1,8,1,33,1,1,1,12,1,-3,1,6,1
987,-5,1,15,1,20,1,-5,1,-12,1,17,1,8,1,33,1,2,1,13,1,-3,1,6,1
988,-6,1,15,1,21,1,-4,1,-13,1,18,1,7,1,34,1,2,1,13,1,-3,1,6,1
989,-6,1,15,1,21,1,-4,1,-13,1,18,1,7,1,34,1,2,1,14,1,-3,1,6,1
990,-6,1,16,1,22,1,-5,1,-14,1,19,1,7,1,35,1,3,1,15,1,-2,1,6,1
991,-6,1,16,1,22,1,-5,1,-14,1,19,1,7,1,36,1,4,1,15,1,-1,1,7,1
992,-6,1,16,1,22,1,-5,1,-14,1,19,1,8,1,37,1,4,1,16,1,-1,1,7,1
993,-6,1,16,1,22,1,-5,1,-14,1,19,1,8,1,37,1,4,1,16,1,-1,1,7,1
994,-5,1,16,1,21,1,-5,1,-13,1,18,1,7,1,37,1,4,1,16,1,0,1,7,1
995,-4,1,17,1,21,1,-6,1,-12,1,19,1,7,1,37,1,4,1,16,1,0,1,7,1
996,-4,1,18,1,22,1,-7,1,-13,1,20,1,8,1,37,1,5,1,17,1,0,1,7,1
997,-4,1,19,1,23,1,-7,1,-13,1,21,1,8,1,37,1,6,1,18,1,0,1,7,1
998,-3,1,19,1,22,1,-8,1,-12,1,20,1,8,1,37,1,6,1,18,1,0,1,7,1
999,-3,1,19,1,22,1,-8,1,-12,1,20,1,7,1,37,1,6,1,18,1,0,1,7,1
1000,-3,1,19,1,22,1,-8,1,-12,1,20,1,7,1,37,1,7,1,18,1,0,1,8,1
1001,-2,1,19,1,21,1,-8,1,-11,1,20,1,7,1,37,1,7,1,19,1,1,1,8,1
1002,-2,1,19,1,21,1,-8,1,-11,1,20,1,7,1,38,1,7,1,19,1,1,1,8,1
1003,-2,1,19,1,21,1,-8,1,-11,1,20,1,7,1,38,1,6,1,19,1,1,1,9,1
1004,-1,1,19,1,20,1,-9,1,-10,1,19,1,7,1,40,1,6,1,19,1,2,1,11,1
1005,-1,1,19,1,20,1,-9,1,-10,1,19,1,6,1,40,1,7,1,19,1,2,1,10,1
1006,-1,1,19,1,20,1,-9,1,-10,1,19,1,7,1,40,1,7,1,19,1,2,1,10,1
1007,-1,1,19,1,20,1,-9,1,-10,1,19,1,7,1,40,1,7,1,20,1,3,1,10,1
1008,-1,1,19,1,20,1,-9,1,-10,1,19,1,7,1,40,1,7,1,20,1,3,1,10,1
1009,-1,1,19,1,20,1,-9,1,-10,1,19,1,7,1,41,1,7,1,21,1,3,1,10,1
1010,-2,1,19,1,21,1,-8,1,-11,1,20,1,5,1,41,1,8,1,21,1,3,1,10,1
1011,-2,1,20,1,22,1,-9,1,-12,1,21,1,5,1,41,1,7,1,21,1,3,1,10,1
1012,-2,1,21,1,23,1,-9,1,-12,1,22,1,5,1,41,1,7,1,21,1,3,1,10,1
1013,-1,1,21,1,22,1,-10,1,-11,1,21,1,5,1,41,1,7,1,21,1,3,1,10,1
1014,0,1,21,1,21,1,-10,1,-10,1,21,1,5,1,42,1,7,1,22,1,3,1,11,1
1015,0,1,22,1,22,1,-11,1,-11,1,22,1,4,1,42,1,8,1,23,1,4,1,12,1
1016,0,1,22,1,22,1,-11,1,-11,1,22,1,3,1,43,1,8,1,23,1,4,1,12,1
1017,0,1,22,1,22,1,-11,1,-11,1,22,1,3,1,43,1,9,1,24,1,4,1,12,1
1018,1,1,22,1,21,1,-11,1,-10,1,22,1,3,1,43,1,9,1,24,1,4,1,12,1
1019,1,1,23,1,22,1,-12,1,-10,1,23,1,3,1,43,1,10,1,24,1,4,1,12,1
1020,1,1,22,1,21,1,-11,1,-10,1,22,1,2,1,44,1,11,1,25,1,4,1,13,1
1021,1,1,22,1,21,1,-11,1,-10,1,22,1,2,1,45,1,12,1,26,1,5,1,15,1
1022,1,1,23,1,22,1,-12,1,-10,1,23,1,3,1,46,1,13,1,27,1,7,1,15,1
1023,1,1,23,1,22,1,-12,1,-10,1,23,1,3,1,47,1,14,1,28,1,9,1,16,1
1024,1,1,23,1,22,1,-12,1,-10,1,23,1,2,1,47,1,15,1,29,1,10,1,15,1
1025,1,1,23,1,22,1,-12,1,-10,1,23,1,1,1,47,1,15,1,29,1,11,1,15,1
1026,2,1,24,1,22,1,-13,1,-10,1,23,1,1,1,47,1,15,1,29,1,11,1,15,1
1027,2,1,26,1,24,1,-14,1,-11,1,25,1,0,1,48,1,17,1,31,1,11,1,16,1
1028,3,1,27,1,24,1,-15,1,-10,1,26,1,0,1,49,1,20,1,32,1,11,1,16,1
1029,5,1,29,1,24,1,-17,1,-9,1,27,1,0,1,51,1,22,1,34,1,12,1,17,1
1030,6,1,29,1,23,1,-17,1,-8,1,26,1,0,1,52,1,23,1,36,1,14,1,17,1
1031,7,1,29,1,22,1,-18,1,-7,1,26,1,-1,1,53,1,25,1,37,1,14,1,18,1
1032,7,1,30,1,23,1,-18,1,-8,1,27,1,-2,1,54,1,26,1,38,1,16,1,18,1
1033,8,1,33,1,25,1,-20,1,-8,1,29,1,-2,1,56,1,27,1,39,1,17,1,20,1
1034,9,1,34,1,25,1,-21,1,-8,1,30,1,-3,1,56,1,30,1,40,1,19,1,20,1
1035,9,1,34,1,25,1,-21,1,-8,1,30,1,-4,1,57,1,32,1,42,1,20,1,22,1
1036,10,1,34,1,24,1,-22,1,-7,1,29,1,-4,1,58,1,34,1,43,1,20,1,22,1
1037,10,1,34,1,24,1,-22,1,-7,1,29,1,-4,1,59,1,36,1,46,1,23,1,24,1
1038,11,1,35,1,24,1,-23,1,-6,1,30,1,-6,1,61,1,37,1,49,1,25,1,26,1
1039,12,1,37,1,25,1,-24,1,-6,1,31,1,-6,1,63,1,39,1,51,1,27,1,28,1
1040,14,1,38,1,24,1,-26,1,-5,1,31,1,-6,1,64,1,41,1,53,1,29,1,30,1
1041,15,1,39,1,24,1,-27,1,-4,1,32,1,-6,1,67,1,43,1,54,1,31,1,31,1
1042,17,1,40,1,23,1,-28,1,-3,1,32,1,-8,1,69,1,45,1,57,1,32,1,32,1
1043,18,1,41,1,23,1,-29,1,-2,1,32,1,-8,1,70,1,49,1,59,1,34,1,33,1
1044,19,1,43,1,24,1,-31,1,-2,1,34,1,-9,1,71,1,51,1,62,1,36,1,35,1
1045,20,1,45,1,25,1,-32,1,-2,1,35,1,-10,1,72,1,54,1,64,1,37,1,37,1
1046,21,1,46,1,25,1,-33,1,-2,1,36,1,-10,1,73,1,57,1,66,1,40,1,39,1
1047,21,1,48,1,27,1,-34,1,-3,1,38,1,-10,1,74,1,58,1,67,1,42,1,40,1
1048,22,1,49,1,27,1,-35,1,-2,1,38,1,-11,1,75,1,60,1,68,1,44,1,40,1
1049,22,1,51,1,29,1,-36,1,-3,1,40,1,-11,1,76,1,61,1,69,1,45,1,42,1
1050,22,1,52,1,30,1,-37,1,-4,1,41,1,-12,1,77,1,62,1,70,1,46,1,42,1
1051,22,1,53,1,31,1,-37,1,-4,1,42,1,-13,1,78,1,63,1,72,1,47,1,43,1
1052,22,1,54,1,32,1,-38,1,-5,1,43,1,-13,1,78,1,64,1,73,1,47,1,43,1
1053,23,1,54,1,31,1,-38,1,-4,1,43,1,-15,1,79,1,66,1,75,1,49,1,44,1
1054,23,1,54,1,31,1,-38,1,-4,1,43,1,-16,1,79,1,66,1,76,1,49,1,44,1
1055,24,1,55,1,31,1,-39,1,-3,1,43,1,-16,1,79,1,66,1,77,1,50,1,45,1
1056,24,1,55,1,31,1,-39,1,-3,1,43,1,-17,1,78,1,67,1,77,1,51,1,45,1
1057,24,1,56,1,32,1,-40,1,-4,1,44,1,-17,1,78,1,67,1,78,1,52,1,47,1
1058,24,1,56,1,32,1,-40,1,-4,1,44,1,-17,1,78,1,68,1,79,1,51,1,47,1
1059,24,1,56,1,32,1,-40,1,-4,1,44,1,-18,1,78,1,67,1,79,1,52,1,47,1
1060,24,1,57,1,33,1,-40,1,-4,1,45,1,-18,1,77,1,67,1,80,1,52,1,47,1
1061,24,1,57,1,33,1,-40,1,-4,1,45,1,-19,1,75,1,66,1,79,1,51,1,47,1
1062,23,1,57,1,34,1,-40,1,-5,1,46,1,-19,1,74,1,65,1,79,1,51,1,47,1
1063,23,1,58,1,35,1,-40,1,-6,1,47,1,-19,1,72,1,64,1,79,1,51,1,47,1
1064,24,1,58,1,34,1,-41,1,-5,1,46,1,-20,1,71,1,63,1,78,1,51,1,47,1
1065,24,1,59,1,35,1,-41,1,-5,1,47,1,-20,1,70,1,61,1,78,1,50,1,46,1
1066,25,1,59,1,34,1,-42,1,-4,1,47,1,-21,1,69,1,61,1,76,1,50,1,45,1
1067,25,1,61,1,36,1,-43,1,-5,1,49,1,-21,1,66,1,60,1,76,1,49,1,45,1
1068,25,1,61,1,36,1,-43,1,-5,1,49,1,-21,1,65,1,59,1,75,1,49,1,45,1
1069,24,1,60,1,36,1,-42,1,-6,1,48,1,-20,1,64,1,57,1,74,1,49,1,45,1
1070,23,1,60,1,37,1,-41,1,-7,1,49,1,-19,1,63,1,56,1,73,1,48,1,45,1
1071,22,1,59,1,37,1,-40,1,-7,1,48,1,-17,1,62,1,55,1,73,1,47,1,44,1
1072,22,1,59,1,37,1,-40,1,-7,1,48,1,-17,1,60,1,52,1,71,1,46,1,44,1
1073,22,1,58,1,36,1,-40,1,-7,1,47,1,-17,1,59,1,49,1,69,1,45,1,43,1
1074,21,1,58,1,37,1,-39,1,-8,1,48,1,-16,1,58,1,47,1,67,1,44,1,41,1
1075,21,1,57,1,36,1,-39,1,-7,1,47,1,-15,1,57,1,44,1,66,1,43,1,40,1
1076,21,1,55,1,34,1,-38,1,-6,1,45,1,-14,1,55,1,42,1,65,1,42,1,39,1
1077,19,1,54,1,35,1,-36,1,-8,1,45,1,-14,1,53,1,39,1,63,1,41,1,38,1
1078,17,1,53,1,36,1,-35,1,-9,1,45,1,-13,1,51,1,37,1,61,1,39,1,38,1
1079,16,1,52,1,36,1,-34,1,-10,1,44,1,-13,1,51,1,35,1,58,1,38,1,37,1
1080,16,1,50,1,34,1,-33,1,-9,1,42,1,-11,1,50,1,33,1,56,1,36,1,36,1
1081,14,1,50,1,36,1,-32,1,-11,1,43,1,-11,1,48,1,30,1,54,1,35,1,34,1
1082,13,1,49,1,36,1,-31,1,-11,1,43,1,-10,1,47,1,27,1,52,1,33,1,32,1
1083,12,1,47,1,35,1,-29,1,-11,1,41,1,-8,1,46,1,25,1,49,1,31,1,31,1
1084,11,1,45,1,34,1,-28,1,-11,1,40,1,-6,1,45,1,22,1,48,1,29,1,29,1
1085,10,1,43,1,33,1,-26,1,-11,1,38,1,-6,1,44,1,20,1,46,1,27,1,28,1
1086,9,1,42,1,33,1,-25,1,-12,1,38,1,-5,1,42,1,18,1,44,1,25,1,26,1
1087,9,1,42,1,33,1,-25,1,-12,1,38,1,-5,1,41,1,16,1,41,1,23,1,25,1
1088,9,1,42,1,33,1,-25,1,-12,1,38,1,-4,1,40,1,14,1,39,1,20,1,24,1
1089,9,1,43,1,34,1,-26,1,-12,1,39,1,-3,1,40,1,11,1,36,1,20,1,23,1
1090,9,1,41,1,32,1,-25,1,-11,1,37,1,-1,1,38,1,8,1,34,1,18,1,22,1
1091,7,1,38,1,31,1,-22,1,-12,1,35,1,-1,1,37,1,6,1,32,1,17,1,21,1
1092,6,1,36,1,30,1,-21,1,-12,1,33,1,0,1,35,1,4,1,30,1,15,1,19,1
1093,6,1,35,1,29,1,-20,1,-11,1,32,1,1,1,34,1,2,1,29,1,13,1,17,1
1094,5,1,33,1,28,1,-19,1,-11,1,31,1,1,1,34,1,0,1,28,1,11,1,16,1
1095,5,1,32,1,27,1,-18,1,-11,1,30,1,1,1,32,1,-1,1,27,1,9,1,15,1
1096,4,1,32,1,28,1,-18,1,-12,1,30,1,2,1,32,1,-2,1,25,1,9,1,14,1
1097,4,1,31,1,27,1,-17,1,-11,1,29,1,2,1,31,1,-4,1,22,1,8,1,13,1
1098,3,1,31,1,28,1,-17,1,-12,1,30,1,3,1,31,1,-5,1,20,1,7,1,13,1
1099,2,1,30,1,28,1,-16,1,-13,1,29,1,4,1,29,1,-7,1,19,1,6,1,12,1
1100,2,1,30,1,28,1,-16,1,-13,1,29,1,5,1,28,1,-8,1,17,1,4,1,11,1
1101,2,1,29,1,27,1,-15,1,-12,1,28,1,5,1,28,1,-10,1,16,1,4,1,10,1
1102,1,1,29,1,28,1,-15,1,-13,1,29,1,6,1,27,1,-12,1,15,1,2,1,10,1
1103,2,1,29,1,27,1,-15,1,-12,1,28,1,6,1,27,1,-13,1,14,1,2,1,8,1
1104,2,1,28,1,26,1,-15,1,-12,1,27,1,6,1,26,1,-16,1,13,1,1,1,7,1
1105,2,1,28,1,26,1,-15,1,-12,1,27,1,6,1,24,1,-17,1,11,1,0,1,6,1
1106,1,1,27,1,26,1,-14,1,-12,1,27,1,6,1,24,1,-17,1,11,1,-1,1,6,1
1107,1,1,26,1,25,1,-13,1,-12,1,26,1,6,1,23,1,-18,1,10,1,-2,1,5,1
1108,0,1,24,1,24,1,-12,1,-12,1,24,1,6,1,22,1,-20,1,10,1,-2,1,4,1
1109,0,1,23,1,23,1,-11,1,-11,1,23,1,6,1,20,1,-21,1,8,1,-3,1,3,1
1110,-1,1,22,1,23,1,-10,1,-12,1,22,1,6,1,20,1,-22,1,8,1,-4,1,2,1
1111,-1,1,21,1,22,1,-10,1,-11,1,21,1,6,1,19,1,-23,1,7,1,-5,1,2,1
1112,-2,1,21,1,23,1,-9,1,-12,1,22,1,6,1,19,1,-24,1,7,1,-5,1,2,1
1113,-2,1,21,1,23,1,-9,1,-12,1,22,1,6,1,18,1,-24,1,6,1,-7,1,1,1
1114,-2,1,21,1,23,1,-9,1,-12,1,22,1,6,1,18,1,-25,1,6,1,-7,1,2,1
1115,-2,1,20,1,22,1,-9,1,-12,1,21,1,7,1,18,1,-26,1,5,1,-8,1,2,1
1116,-3,1,20,1,23,1,-8,1,-13,1,21,1,6,1,18,1,-27,1,4,1,-8,1,1,1
1117,-3,1,20,1,23,1,-8,1,-13,1,21,1,6,1,18,1,-27,1,4,1,-9,1,1,1
1118,-3,1,20,1,23,1,-8,1,-13,1,21,1,6,1,18,1,-28,1,4,1,-9,1,1,1
1119,-3,1,20,1,23,1,-8,1,-13,1,21,1,6,1,18,1,-28,1,4,1,-8,1,1,1
1120,-3,1,19,1,22,1,-8,1,-12,1,20,1,6,1,18,1,-28,1,4,1,-7,1,1,1
1121,-3,1,19,1,22,1,-8,1,-12,1,20,1,6,1,18,1,-28,1,4,1,-6,1,1,1
1122,-4,1,20,1,24,1,-8,1,-14,1,22,1,6,1,18,1,-27,1,4,1,-6,1,0,1
1123,-4,1,20,1,24,1,-8,1,-14,1,22,1,6,1,18,1,-27,1,3,1,-6,1,0,1
1124,-4,1,19,1,23,1,-7,1,-13,1,21,1,6,1,18,1,-27,1,3,1,-6,1,0,1
1125,-4,1,17,1,21,1,-6,1,-12,1,19,1,6,1,18,1,-28,1,3,1,-7,1,0,1
1126,-4,1,17,1,21,1,-6,1,-12,1,19,1,6,1,18,1,-27,1,3,1,-8,1,-1,1
1127,-4,1,18,1,22,1,-7,1,-13,1,20,1,6,1,18,1,-27,1,4,1,-9,1,0,1
1128,-4,1,19,1,23,1,-7,1,-13,1,21,1,6,1,19,1,-27,1,4,1,-9,1,0,1
1129,-4,1,19,1,23,1,-7,1,-13,1,21,1,6,1,19,1,-27,1,5,1,-8,1,0,1
1130,-4,1,20,1,24,1,-8,1,-14,1,22,1,6,1,19,1,-27,1,5,1,-7,1,1,1
1131,-3,1,20,1,23,1,-8,1,-13,1,21,1,6,1,19,1,-26,1,5,1,-5,1,1,1
1132,-2,1,20,1,22,1,-9,1,-12,1,21,1,6,1,20,1,-25,1,6,1,-5,1,2,1
1133,-2,1,20,1,22,1,-9,1,-12,1,21,1,7,1,21,1,-24,1,6,1,-5,1,2,1
1134,-1,1,20,1,21,1,-9,1,-11,1,20,1,7,1,21,1,-24,1,6,1,-5,1,2,1
1135,-1,1,21,1,22,1,-10,1,-11,1,21,1,8,1,23,1,-24,1,7,1,-5,1,2,1
1136,-1,1,21,1,22,1,-10,1,-11,1,21,1,7,1,23,1,-23,1,7,1,-5,1,2,1
1137,-2,1,21,1,23,1,-9,1,-12,1,22,1,7,1,23,1,-23,1,7,1,-6,1,2,1
1138,-2,1,20,1,22,1,-9,1,-12,1,21,1,7,1,23,1,-24,1,6,1,-6,1,1,1
1139,-2,1,20,1,22,1,-9,1,-12,1,21,1,6,1,23,1,-24,1,6,1,-6,1,1,1
1140,-2,1,20,1,22,1,-9,1,-12,1,21,1,6,1,23,1,-23,1,6,1,-6,1,1,1
1141,-1,1,20,1,21,1,-9,1,-11,1,20,1,7,1,24,1,-23,1,6,1,-5,1,1,1
1142,-1,1,21,1,22,1,-10,1,-11,1,21,1,7,1,24,1,-23,1,6,1,-5,1,1,1
1143,0,1,21,1,21,1,-10,1,-10,1,21,1,8,1,24,1,-22,1,7,1,-4,1,2,1
1144,0,1,22,1,22,1,-11,1,-11,1,22,1,8,1,25,1,-22,1,7,1,-4,1,2,1
1145,1,1,22,1,21,1,-11,1,-10,1,22,1,8,1,25,1,-22,1,7,1,-4,1,1,1
1146,1,1,23,1,22,1,-12,1,-10,1,23,1,8,1,25,1,-22,1,7,1,-3,1,2,1
1147,0,1,23,1,23,1,-11,1,-11,1,23,1,8,1,26,1,-22,1,8,1,-3,1,2,1
1148,0,1,23,1,23,1,-11,1,-11,1,23,1,7,1,26,1,-22,1,8,1,-3,1,2,1
1149,-1,1,23,1,24,1,-11,1,-12,1,23,1,7,1,27,1,-22,1,7,1,-3,1,2,1
1150,-1,1,23,1,24,1,-11,1,-12,1,23,1,8,1,26,1,-23,1,7,1,-3,1,2,1
1151,0,1,23,1,23,1,-11,1,-11,1,23,1,8,1,27,1,-22,1,7,1,-3,1,2,1
1152,0,1,23,1,23,1,-11,1,-11,1,23,1,8,1,28,1,-22,1,8,1,-3,1,1,1
1153,1,1,23,1,22,1,-12,1,-10,1,23,1,9,1,28,1,-22,1,8,1,-3,1,1,1
1154,1,1,23,1,22,1,-12,1,-10,1,23,1,9,1,28,1,-22,1,8,1,-3,1,1,1
1155,1,1,23,1,22,1,-12,1,-10,1,23,1,10,1,28,1,-22,1,8,1,-2,1,1,1
1156,2,1,23,1,21,1,-12,1,-9,1,22,1,9,1,28,1,-22,1,8,1,-2,1,2,1
1157,2,1,24,1,22,1,-13,1,-10,1,23,1,9,1,29,1,-22,1,9,1,-2,1,2,1
1158,1,1,24,1,23,1,-12,1,-11,1,24,1,9,1,29,1,-22,1,9,1,-2,1,1,1
1159,1,1,24,1,23,1,-12,1,-11,1,24,1,9,1,29,1,-22,1,9,1,-2,1,1,1
1160,0,1,24,1,24,1,-12,1,-12,1,24,1,9,1,29,1,-22,1,9,1,-2,1,1,1
1161,0,1,24,1,24,1,-12,1,-12,1,24,1,9,1,29,1,-22,1,9,1,-2,1,1,1
1162,0,1,23,1,23,1,-11,1,-11,1,23,1,9,1,29,1,-22,1,8,1,-2,1,0,1
1163,0,1,23,1,23,1,-11,1,-11,1,23,1,9,1,29,1,-22,1,8,1,-3,1,0,1
1164,0,1,23,1,23,1,-11,1,-11,1,23,1,9,1,28,1,-23,1,8,1,-3,1,-1,1
1165,0,1,22,1,22,1,-11,1,-11,1,22,1,9,1,27,1,-23,1,8,1,-3,1,-1,1
1166,0,1,22,1,22,1,-11,1,-11,1,22,1,8,1,27,1,-23,1,7,1,-3,1,-1,1
1167,0,1,22,1,22,1,-11,1,-11,1,22,1,8,1,27,1,-24,1,7,1,-4,1,-1,1
1168,1,1,22,1,21,1,-11,1,-10,1,22,1,8,1,27,1,-25,1,6,1,-4,1,-1,1
1169,1,1,22,1,21,1,-11,1,-10,1,22,1,8,1,27,1,-25,1,6,1,-4,1,-1,1
1170,1,1,22,1,21,1,-11,1,-10,1,22,1,8,1,27,1,-25,1,6,1,-4,1,-1,1
1171,1,1,21,1,20,1,-11,1,-9,1,21,1,8,1,26,1,-27,1,6,1,-4,1,-1,1
1172,0,1,21,1,21,1,-10,1,-10,1,21,1,8,1,26,1,-27,1,5,1,-4,1,-1,1
1173,0,1,21,1,21,1,-10,1,-10,1,21,1,8,1,26,1,-27,1,5,1,-4,1,-1,1
1174,0,1,20,1,20,1,-10,1,-10,1,20,1,8,1,26,1,-27,1,5,1,-4,1,-1,1
1175,1,1,19,1,18,1,-10,1,-8,1,19,1,8,1,26,1,-27,1,5,1,-5,1,-2,1
1176,1,1,18,1,17,1,-9,1,-8,1,18,1,9,1,25,1,-28,1,4,1,-5,1,-2,1
1177,1,1,18,1,17,1,-9,1,-8,1,18,1,9,1,25,1,-28,1,4,1,-5,1,-2,1
1178,1,1,18,1,17,1,-9,1,-8,1,18,1,9,1,25,1,-28,1,3,1,-6,1,-3,1
1179,2,1,19,1,17,1,-10,1,-7,1,18,1,9,1,24,1,-29,1,3,1,-6,1,-3,1
1180,1,1,19,1,18,1,-10,1,-8,1,19,1,9,1,24,1,-29,1,3,1,-6,1,-3,1
1181,1,1,20,1,19,1,-10,1,-9,1,20,1,9,1,24,1,-29,1,3,1,-6,1,-3,1
1182,1,1,20,1,19,1,-10,1,-9,1,20,1,10,1,24,1,-29,1,2,1,-5,1,-4,1
1183,1,1,20,1,19,1,-10,1,-9,1,20,1,10,1,24,1,-29,1,2,1,-5,1,-4,1
1184,1,1,20,1,19,1,-10,1,-9,1,20,1,10,1,25,1,-29,1,2,1,-5,1,-3,1
1185,2,1,21,1,19,1,-11,1,-8,1,20,1,10,1,24,1,-29,1,3,1,-5,1,-4,1
1186,2,1,21,1,19,1,-11,1,-8,1,20,1,10,1,24,1,-29,1,2,1,-5,1,-4,1
1187,3,1,21,1,18,1,-12,1,-7,1,20,1,10,1,24,1,-30,1,2,1,-6,1,-4,1
1188,3,1,21,1,18,1,-12,1,-7,1,20,1,11,1,23,1,-30,1,1,1,-6,1,-5,1
1189,2,1,19,1,17,1,-10,1,-7,1,18,1,10,1,22,1,-30,1,1,1,-7,1,-5,1
1190,1,1,18,1,17,1,-9,1,-8,1,18,1,10,1,21,1,-31,1,1,1,-7,1,-6,1
1191,1,1,18,1,17,1,-9,1,-8,1,18,1,9,1,21,1,-32,1,0,1,-8,1,-6,1
1192,2,1,18,1,16,1,-10,1,-7,1,17,1,10,1,22,1,-32,1,0,1,-7,1,-7,1
1193,2,1,18,1,16,1,-10,1,-7,1,17,1,10,1,21,1,-32,1,0,1,-8,1,-7,1
1194,2,1,17,1,15,1,-9,1,-6,1,16,1,10,1,21,1,-33,1,-1,1,-8,1,-7,1
1195,2,1,17,1,15,1,-9,1,-6,1,16,1,9,1,20,1,-33,1,-1,1,-8,1,-8,1
1196,2,1,16,1,14,1,-9,1,-6,1,15,1,9,1,19,1,-33,1,-1,1,-8,1,-8,1
1197,1,1,16,1,15,1,-8,1,-7,1,16,1,9,1,19,1,-34,1,-2,1,-9,1,-8,1
1198,1,1,16,1,15,1,-8,1,-7,1,16,1,9,1,19,1,-34,1,-2,1,-9,1,-8,1
1199,0,1,17,1,17,1,-8,1,-8,1,17,1,8,1,20,1,-34,1,-2,1,-9,1,-8,1
1200,0,1,17,1,17,1,-8,1,-8,1,17,1,8,1,20,1,-34,1,-3,1,-8,1,-8,1
1201,0,1,16,1,16,1,-8,1,-8,1,16,1,9,1,19,1,-35,1,-3,1,-7,1,-9,1
1202,0,1,16,1,16,1,-8,1,-8,1,16,1,9,1,19,1,-35,1,-3,1,-7,1,-9,1
1203,0,1,15,1,15,1,-7,1,-7,1,15,1,9,1,19,1,-35,1,-3,1,-7,1,-9,1
1204,-1,1,14,1,15,1,-6,1,-8,1,14,1,9,1,19,1,-35,1,-3,1,-7,1,-9,1
1205,0,1,14,1,14,1,-7,1,-7,1,14,1,9,1,18,1,-35,1,-3,1,-7,1,-10,1
1206,0,1,14,1,14,1,-7,1,-7,1,14,1,9,1,17,1,-36,1,-3,1,-7,1,-10,1
1207,0,1,13,1,13,1,-6,1,-6,1,13,1,9,1,17,1,-36,1,-3,1,-7,1,-10,1
1208,-1,1,12,1,13,1,-5,1,-7,1,12,1,9,1,17,1,-36,1,-4,1,-8,1,-11,1
1209,-3,1,12,1,15,1,-4,1,-9,1,13,1,8,1,17,1,-36,1,-4,1,-8,1,-11,1
1210,-3,1,12,1,15,1,-4,1,-9,1,13,1,8,1,17,1,-36,1,-4,1,-8,1,-12,1
1211,-3,1,14,1,17,1,-5,1,-10,1,15,1,8,1,17,1,-36,1,-4,1,-7,1,-11,1
1212,-3,1,14,1,17,1,-5,1,-10,1,15,1,8,1,16,1,-37,1,-4,1,-7,1,-11,1
1213,-3,1,14,1,17,1,-5,1,-10,1,15,1,8,1,16,1,-37,1,-5,1,-8,1,-12,1
1214,-3,1,13,1,16,1,-5,1,-9,1,14,1,8,1,16,1,-37,1,-5,1,-8,1,-11,1
1215,-2,1,14,1,16,1,-6,1,-9,1,15,1,7,1,16,1,-37,1,-5,1,-7,1,-11,1
1216,-2,1,13,1,15,1,-5,1,-8,1,14,1,7,1,15,1,-38,1,-6,1,-7,1,-12,1
1217,-3,1,12,1,15,1,-4,1,-9,1,13,1,7,1,15,1,-38,1,-7,1,-8,1,-13,1
1218,-3,1,12,1,15,1,-4,1,-9,1,13,1,7,1,15,1,-38,1,-7,1,-8,1,-13,1
1219,-2,1,12,1,14,1,-5,1,-8,1,13,1,6,1,15,1,-39,1,-6,1,-7,1,-14,1
1220,-2,1,12,1,14,1,-5,1,-8,1,13,1,6,1,15,1,-39,1,-6,1,-7,1,-14,1
1221,-2,1,13,1,15,1,-5,1,-8,1,14,1,6,1,15,1,-39,1,-6,1,-7,1,-14,1
1222,-2,1,13,1,15,1,-5,1,-8,1,14,1,6,1,15,1,-39,1,-6,1,-7,1,-14,1
1223,-2,1,13,1,15,1,-5,1,-8,1,14,1,6,1,15,1,-38,1,-6,1,-7,1,-15,1
1224,-2,1,13,1,15,1,-5,1,-8,1,14,1,6,1,15,1,-38,1,-6,1,-6,1,-14,1
1225,-2,1,13,1,15,1,-5,1,-8,1,14,1,6,1,14,1,-38,1,-6,1,-6,1,-14,1
1226,-2,1,13,1,15,1,-5,1,-8,1,14,1,6,1,14,1,-38,1,-6,1,-6,1,-15,1
1227,-2,1,13,1,15,1,-5,1,-8,1,14,1,6,1,14,1,-38,1,-6,1,-6,1,-15,1
1228,-2,1,12,1,14,1,-5,1,-8,1,13,1,5,1,14,1,-39,1,-6,1,-5,1,-15,1
1229,-2,1,11,1,13,1,-4,1,-7,1,12,1,5,1,14,1,-39,1,-6,1,-5,1,-15,1
1230,-3,1,10,1,13,1,-3,1,-8,1,11,1,5,1,14,1,-39,1,-7,1,-5,1,-15,1
1231,-2,1,10,1,12,1,-4,1,-7,1,11,1,5,1,14,1,-39,1,-7,1,-4,1,-15,1
1232,-1,1,10,1,11,1,-4,1,-6,1,10,1,5,1,13,1,-39,1,-7,1,-4,1,-15,1
1233,-1,1,10,1,11,1,-4,1,-6,1,10,1,5,1,13,1,-39,1,-7,1,-4,1,-15,1
1234,-1,1,9,1,10,1,-4,1,-5,1,9,1,5,1,13,1,-39,1,-7,1,-4,1,-15,1
1235,0,1,9,1,9,1,-4,1,-4,1,9,1,5,1,13,1,-39,1,-6,1,-3,1,-14,1
1236,1,1,11,1,10,1,-6,1,-4,1,11,1,5,1,12,1,-39,1,-6,1,-3,1,-14,1
1237,1,1,12,1,11,1,-6,1,-5,1,12,1,5,1,12,1,-39,1,-7,1,-3,1,-14,1
1238,1,1,12,1,11,1,-6,1,-5,1,12,1,5,1,12,1,-39,1,-7,1,-3,1,-15,1
1239,2,1,11,1,9,1,-6,1,-3,1,10,1,5,1,12,1,-39,1,-7,1,-3,1,-15,1
1240,2,1,10,1,8,1,-6,1,-3,1,9,1,5,1,12,1,-39,1,-7,1,-2,1,-15,1
1241,2,1,10,1,8,1,-6,1,-3,1,9,1,5,1,12,1,-39,1,-7,1,-1,1,-15,1
1242,2,1,10,1,8,1,-6,1,-3,1,9,1,5,1,12,1,-39,1,-6,1,-1,1,-15,1
1243,1,1,11,1,10,1,-6,1,-4,1,11,1,6,1,12,1,-38,1,-6,1,-2,1,-15,1
1244,1,1,12,1,11,1,-6,1,-5,1,12,1,6,1,12,1,-38,1,-6,1,-1,1,-15,1
1245,1,1,13,1,12,1,-7,1,-5,1,13,1,7,1,13,1,-37,1,-5,1,0,1,-14,1
1246,0,1,13,1,13,1,-6,1,-6,1,13,1,8,1,13,1,-37,1,-4,1,0,1,-14,1
1247,0,1,13,1,13,1,-6,1,-6,1,13,1,8,1,13,1,-36,1,-3,1,1,1,-13,1
1248,0,1,14,1,14,1,-7,1,-7,1,14,1,8,1,14,1,-36,1,-3,1,1,1,-13,1
1249,0,1,15,1,15,1,-7,1,-7,1,15,1,9,1,14,1,-36,1,-2,1,1,1,-13,1
1250,0,1,17,1,17,1,-8,1,-8,1,17,1,9,1,14,1,-35,1,-2,1,1,1,-13,1
1251,0,1,18,1,18,1,-9,1,-9,1,18,1,10,1,14,1,-35,1,-1,1,2,1,-13,1
1252,1,1,18,1,17,1,-9,1,-8,1,18,1,10,1,14,1,-35,1,-2,1,2,1,-13,1
1253,1,1,18,1,17,1,-9,1,-8,1,18,1,10,1,14,1,-36,1,-2,1,2,1,-14,1
1254,1,1,17,1,16,1,-9,1,-7,1,17,1,9,1,14,1,-36,1,-2,1,2,1,-13,1
1255,2,1,16,1,14,1,-9,1,-6,1,15,1,7,1,14,1,-36,1,-3,1,1,1,-14,1
1256,3,1,14,1,11,1,-8,1,-4,1,13,1,6,1,13,1,-37,1,-4,1,0,1,-14,1
1257,3,1,12,1,9,1,-7,1,-3,1,11,1,4,1,13,1,-37,1,-4,1,0,1,-15,1
1258,2,1,11,1,9,1,-6,1,-3,1,10,1,3,1,13,1,-37,1,-4,1,0,1,-15,1
1259,2,1,11,1,9,1,-6,1,-3,1,10,1,1,1,13,1,-37,1,-4,1,0,1,-15,1
1260,3,1,11,1,8,1,-7,1,-2,1,10,1,0,1,13,1,-37,1,-2,1,0,1,-16,1
1261,5,1,11,1,6,1,-8,1,0,1,9,1,0,1,14,1,-36,1,-2,1,1,1,-15,1
1262,6,1,12,1,6,1,-9,1,0,1,9,1,-1,1,14,1,-36,1,-2,1,1,1,-15,1
1263,7,1,12,1,5,1,-9,1,1,1,9,1,-1,1,14,1,-36,1,-1,1,2,1,-14,1
1264,8,1,12,1,4,1,-10,1,2,1,8,1,-1,1,14,1,-36,1,-1,1,2,1,-14,1
1265,9,1,12,1,3,1,-10,1,3,1,8,1,-1,1,15,1,-35,1,-1,1,3,1,-14,1
1266,11,1,13,1,2,1,-12,1,5,1,8,1,0,1,15,1,-34,1,-1,1,3,1,-12,1
1267,11,1,13,1,2,1,-12,1,5,1,8,1,0,1,15,1,-34,1,0,1,4,1,-12,1
1268,12,1,15,1,3,1,-13,1,5,1,9,1,0,1,15,1,-34,1,0,1,4,1,-11,1
1269,11,1,14,1,3,1,-12,1,4,1,9,1,1,1,15,1,-34,1,1,1,4,1,-11,1
1270,10,1,13,1,3,1,-11,1,4,1,8,1,1,1,14,1,-34,1,1,1,4,1,-11,1
1271,9,1,13,1,4,1,-11,1,3,1,9,1,1,1,13,1,-34,1,0,1,4,1,-11,1
1272,8,1,12,1,4,1,-10,1,2,1,8,1,1,1,13,1,-34,1,0,1,4,1,-12,1
1273,8,1,12,1,4,1,-10,1,2,1,8,1,1,1,12,1,-34,1,0,1,4,1,-12,1
1274,8,1,12,1,4,1,-10,1,2,1,8,1,1,1,12,1,-35,1,0,1,3,1,-13,1
1275,8,1,12,1,4,1,-10,1,2,1,8,1,1,1,11,1,-35,1,-1,1,2,1,-13,1
1276,8,1,12,1,4,1,-10,1,2,1,8,1,1,1,12,1,-36,1,-1,1,2,1,-13,1
1277,8,1,12,1,4,1,-10,1,2,1,8,1,1,1,11,1,-36,1,-2,1,1,1,-13,1
1278,8,1,12,1,4,1,-10,1,2,1,8,1,1,1,11,1,-37,1,-2,1,1,1,-13,1
1279,8,1,12,1,4,1,-10,1,2,1,8,1,1,1,10,1,-37,1,-2,1,2,1,-14,1
1280,8,1,11,1,3,1,-9,1,3,1,7,1,1,1,10,1,-37,1,-3,1,1,1,-14,1
1281,8,1,11,1,3,1,-9,1,3,1,7,1,1,1,9,1,-37,1,-3,1,1,1,-14,1
1282,6,1,10,1,4,1,-8,1,1,1,7,1,2,1,8,1,-38,1,-3,1,2,1,-14,1
1283,5,1,9,1,4,1,-7,1,1,1,7,1,2,1,7,1,-38,1,-2,1,2,1,-14,1
1284,4,1,9,1,5,1,-6,1,0,1,7,1,3,1,6,1,-39,1,-3,1,1,1,-15,1
1285,3,1,7,1,4,1,-5,1,0,1,6,1,3,1,6,1,-39,1,-3,1,0,1,-15,1
1286,2,1,5,1,3,1,-3,1,0,1,4,1,3,1,4,1,-40,1,-5,1,-2,1,-17,1
1287,1,1,4,1,3,1,-2,1,-1,1,4,1,4,1,3,1,-41,1,-5,1,-2,1,-18,1
1288,0,1,3,1,3,1,-1,1,-1,1,3,1,4,1,2,1,-42,1,-6,1,-3,1,-19,1
1289,-1,1,2,1,3,1,0,1,-2,1,2,1,3,1,1,1,-43,1,-7,1,-4,1,-19,1
1290,-1,1,1,1,2,1,0,1,-1,1,1,1,3,1,1,1,-43,1,-9,1,-4,1,-19,1
1291,-2,1,0,1,2,1,1,1,-2,1,1,1,3,1,0,1,-44,1,-10,1,-5,1,-20,1
1292,-3,1,-1,1,2,1,2,1,-3,1,0,1,4,1,0,1,-46,1,-11,1,-6,1,-21,1
1293,-3,1,-1,1,2,1,2,1,-3,1,0,1,4,1,-2,1,-47,1,-11,1,-7,1,-21,1
1294,-3,1,-2,1,1,1,2,1,-2,1,-1,1,4,1,-4,1,-48,1,-12,1,-7,1,-21,1
1295,-3,1,-3,1,0,1,3,1,-2,1,-2,1,3,1,-5,1,-48,1,-12,1,-8,1,-22,1
1296,-3,1,-4,1,-1,1,3,1,-1,1,-3,1,3,1,-6,1,-49,1,-13,1,-9,1,-23,1
1297,-2,1,-5,1,-3,1,3,1,0,1,-4,1,3,1,-6,1,-50,1,-13,1,-9,1,-23,1
1298,-2,1,-5,1,-3,1,3,1,0,1,-4,1,2,1,-6,1,-49,1,-13,1,-9,1,-23,1
1299,-2,1,-4,1,-2,1,3,1,0,1,-3,1,2,1,-6,1,-49,1,-13,1,-8,1,-23,1
1300,-2,1,-4,1,-2,1,3,1,0,1,-3,1,2,1,-6,1,-49,1,-13,1,-7,1,-22,1
1301,-3,1,-4,1,-1,1,3,1,-1,1,-3,1,1,1,-6,1,-49,1,-13,1,-7,1,-23,1
1302,-3,1,-4,1,-1,1,3,1,-1,1,-3,1,1,1,-7,1,-49,1,-13,1,-7,1,-23,1
1303,-2,1,-3,1,-1,1,2,1,-1,1,-2,1,1,1,-7,1,-48,1,-13,1,-7,1,-22,1
1304,-1,1,-1,1,0,1,1,1,-1,1,-1,1,1,1,-7,1,-47,1,-13,1,-7,1,-22,1
1305,-1,1,0,1,1,1,0,1,-1,1,0,1,1,1,-7,1,-47,1,-11,1,-7,1,-22,1
1306,-1,1,0,1,1,1,0,1,-1,1,0,1,1,1,-8,1,-47,1,-11,1,-7,1,-23,1
1307,-1,1,0,1,1,1,0,1,-1,1,0,1,0,1,-7,1,-46,1,-11,1,-8,1,-24,1
1308,-2,1,0,1,2,1,1,1,-2,1,1,1,0,1,-7,1,-45,1,-11,1,-8,1,-22,1
1309,-2,1,0,1,2,1,1,1,-2,1,1,1,0,1,-7,1,-43,1,-11,1,-7,1,-22,1
1310,-3,1,1,1,4,1,1,1,-3,1,2,1,0,1,-6,1,-43,1,-11,1,-6,1,-22,1
1311,-3,1,1,1,4,1,1,1,-3,1,2,1,0,1,-5,1,-41,1,-10,1,-6,1,-21,1
1312,-3,1,0,1,3,1,1,1,-3,1,1,1,3,1,-3,1,-40,1,-9,1,-5,1,-21,1
1313,-4,1,0,1,4,1,2,1,-4,1,2,1,4,1,1,1,-37,1,-6,1,-4,1,-21,1
1314,-5,1,2,1,7,1,1,1,-6,1,4,1,8,1,5,1,-33,1,-4,1,-4,1,-20,1
1315,-5,1,4,1,9,1,0,1,-7,1,6,1,11,1,8,1,-29,1,-4,1,-3,1,-20,1
1316,-6,1,7,1,13,1,0,1,-9,1,10,1,13,1,10,1,-26,1,-1,1,-1,1,-19,1
1317,-5,1,10,1,15,1,-2,1,-10,1,12,1,15,1,12,1,-24,1,2,1,0,1,-18,1
1318,-5,1,12,1,17,1,-3,1,-11,1,14,1,18,1,15,1,-20,1,6,1,3,1,-16,1
1319,-3,1,15,1,18,1,-6,1,-10,1,16,1,21,1,22,1,-13,1,14,1,7,1,-13,1
1320,-1,1,18,1,19,1,-8,1,-10,1,18,1,25,1,34,1,-1,1,24,1,15,1,-10,1
1321,1,1,22,1,21,1,-11,1,-10,1,22,1,31,1,50,1,14,1,37,1,23,1,-5,1
1322,4,1,26,1,22,1,-15,1,-9,1,24,1,37,1,69,1,34,1,53,1,35,1,1,1
1323,8,1,31,1,23,1,-19,1,-7,1,27,1,41,1,87,1,55,1,70,1,47,1,10,1
1324,13,1,38,1,25,1,-25,1,-6,1,32,1,43,1,94,1,72,1,89,1,63,1,21,1
1325,20,1,46,1,26,1,-33,1,-3,1,36,1,42,1,87,1,84,1,108,1,80,1,33,1
1326,27,1,55,1,28,1,-41,1,0,1,42,1,34,1,63,1,88,1,124,1,97,1,45,1
1327,34,1,62,1,28,1,-48,1,3,1,45,1,20,1,28,1,87,1,137,1,112,1,57,1
1328,40,1,66,1,26,1,-53,1,7,1,46,1,5,1,-8,1,86,1,145,1,124,1,65,1
1329,43,1,64,1,21,1,-53,1,11,1,43,1,-8,1,-44,1,80,1,145,1,128,1,67,1
1330,43,1,56,1,13,1,-49,1,15,1,35,1,-18,1,-82,1,66,1,133,1,123,1,62,1
1331,41,1,44,1,3,1,-42,1,19,1,24,1,-27,1,-119,1,47,1,114,1,110,1,54,1
1332,38,1,30,1,-8,1,-34,1,23,1,11,1,-33,1,-151,1,24,1,92,1,92,1,43,1
1333,35,1,16,1,-19,1,-25,1,27,1,-1,1,-39,1,-180,1,-4,1,66,1,72,1,32,1
1334,29,1,-1,1,-30,1,-14,1,29,1,-15,1,-45,1,-211,1,-49,1,30,1,47,1,17,1
1335,21,1,-20,1,-41,1,0,1,31,1,-30,1,-49,1,-243,1,-108,1,-14,1,16,1,0,1
1336,11,1,-40,1,-51,1,14,1,31,1,-45,1,-51,1,-269,1,-165,1,-60,1,-15,1,-18,1
1337,1,1,-58,1,-59,1,28,1,30,1,-58,1,-52,1,-282,1,-208,1,-99,1,-42,1,-36,1
1338,-7,1,-75,1,-68,1,41,1,30,1,-72,1,-53,1,-285,1,-236,1,-129,1,-66,1,-53,1
1339,-15,1,-90,1,-75,1,52,1,30,1,-83,1,-57,1,-283,1,-250,1,-150,1,-84,1,-68,1
1340,-21,1,-101,1,-80,1,61,1,29,1,-91,1,-63,1,-280,1,-255,1,-163,1,-96,1,-79,1
1341,-24,1,-108,1,-84,1,66,1,30,1,-96,1,-69,1,-276,1,-253,1,-170,1,-103,1,-85,1
1342,-25,1,-112,1,-87,1,68,1,31,1,-100,1,-74,1,-270,1,-249,1,-171,1,-105,1,-88,1
1343,-25,1,-113,1,-88,1,69,1,31,1,-101,1,-77,1,-261,1,-243,1,-168,1,-105,1,-86,1
1344,-24,1,-113,1,-89,1,68,1,32,1,-101,1,-79,1,-247,1,-234,1,-162,1,-104,1,-85,1
1345,-24,1,-113,1,-89,1,68,1,32,1,-101,1,-79,1,-226,1,-221,1,-156,1,-103,1,-85,1
1346,-24,1,-111,1,-87,1,67,1,31,1,-99,1,-78,1,-203,1,-205,1,-148,1,-102,1,-84,1
1347,-23,1,-108,1,-85,1,65,1,31,1,-97,1,-76,1,-179,1,-185,1,-139,1,-99,1,-82,1
1348,-23,1,-102,1,-79,1,62,1,28,1,-91,1,-72,1,-157,1,-164,1,-129,1,-92,1,-79,1
1349,-21,1,-92,1,-71,1,56,1,25,1,-82,1,-68,1,-137,1,-141,1,-116,1,-83,1,-74,1
1350,-19,1,-78,1,-59,1,48,1,20,1,-69,1,-60,1,-121,1,-119,1,-101,1,-71,1,-67,1
1351,-16,1,-61,1,-45,1,38,1,14,1,-53,1,-51,1,-108,1,-99,1,-84,1,-57,1,-58,1
1352,-13,1,-45,1,-32,1,29,1,9,1,-39,1,-42,1,-96,1,-83,1,-68,1,-45,1,-48,1
1353,-10,1,-30,1,-20,1,20,1,5,1,-25,1,-34,1,-83,1,-72,1,-54,1,-34,1,-39,1
1354,-8,1,-20,1,-12,1,14,1,2,1,-16,1,-26,1,-69,1,-63,1,-43,1,-27,1,-33,1
1355,-6,1,-14,1,-8,1,10,1,1,1,-11,1,-20,1,-52,1,-57,1,-36,1,-24,1,-30,1
1356,-5,1,-14,1,-9,1,9,1,2,1,-12,1,-14,1,-36,1,-49,1,-32,1,-23,1,-30,1
1357,-4,1,-15,1,-11,1,9,1,3,1,-13,1,-10,1,-22,1,-40,1,-31,1,-23,1,-29,1
1358,-3,1,-15,1,-12,1,9,1,4,1,-14,1,-7,1,-10,1,-30,1,-29,1,-21,1,-29,1
1359,-2,1,-12,1,-10,1,7,1,4,1,-11,1,-6,1,-5,1,-20,1,-26,1,-19,1,-28,1
1360,-1,1,-9,1,-8,1,5,1,3,1,-9,1,-5,1,-4,1,-12,1,-23,1,-15,1,-26,1
1361,-1,1,-5,1,-4,1,3,1,1,1,-5,1,-3,1,-6,1,-9,1,-19,1,-11,1,-25,1
1362,-1,1,-1,1,0,1,1,1,-1,1,-1,1,-3,1,-9,1,-9,1,-16,1,-8,1,-23,1
1363,-1,1,0,1,1,1,0,1,-1,1,0,1,-1,1,-9,1,-12,1,-12,1,-6,1,-21,1
1364,-1,1,0,1,1,1,0,1,-1,1,0,1,0,1,-7,1,-13,1,-11,1,-6,1,-21,1
1365,-1,1,0,1,1,1,0,1,-1,1,0,1,2,1,-5,1,-14,1,-11,1,-6,1,-20,1
1366,0,1,-1,1,-1,1,0,1,0,1,-1,1,2,1,-2,1,-12,1,-11,1,-6,1,-20,1
1367,0,1,-1,1,-1,1,0,1,0,1,-1,1,3,1,0,1,-11,1,-11,1,-7,1,-19,1
1368,0,1,-1,1,-1,1,0,1,0,1,-1,1,3,1,3,1,-8,1,-11,1,-7,1,-19,1
1369,0,1,-1,1,-1,1,0,1,0,1,-1,1,4,1,4,1,-5,1,-11,1,-7,1,-19,1
1370,0,1,0,1,0,1,0,1,0,1,0,1,4,1,5,1,-4,1,-11,1,-6,1,-18,1
1371,-1,1,0,1,1,1,0,1,-1,1,0,1,4,1,5,1,-4,1,-11,1,-6,1,-18,1
1372,-1,1,0,1,1,1,0,1,-1,1,0,1,4,1,5,1,-3,1,-11,1,-5,1,-18,1
1373,0,1,1,1,1,1,0,1,0,1,1,1,5,1,6,1,-4,1,-11,1,-5,1,-18,1
1374,1,1,1,1,0,1,-1,1,1,1,1,1,5,1,7,1,-4,1,-10,1,-4,1,-18,1
1375,2,1,2,1,0,1,-2,1,1,1,1,1,5,1,7,1,-4,1,-10,1,-4,1,-18,1
1376,3,1,2,1,-1,1,-2,1,2,1,1,1,5,1,8,1,-3,1,-10,1,-4,1,-18,1
1377,3,1,3,1,0,1,-3,1,2,1,2,1,5,1,8,1,-2,1,-10,1,-4,1,-19,1
1378,2,1,2,1,0,1,-2,1,1,1,1,1,5,1,9,1,-2,1,-11,1,-4,1,-19,1
1379,3,1,1,1,-2,1,-2,1,3,1,0,1,5,1,9,1,-2,1,-10,1,-4,1,-19,1
1380,2,1,1,1,-1,1,-1,1,2,1,0,1,4,1,8,1,-2,1,-10,1,-4,1,-20,1
1381,2,1,1,1,-1,1,-1,1,2,1,0,1,4,1,8,1,-1,1,-10,1,-4,1,-20,1
1382,1,1,2,1,1,1,-1,1,0,1,2,1,4,1,9,1,-1,1,-10,1,-3,1,-19,1
1383,2,1,2,1,0,1,-2,1,1,1,1,1,4,1,9,1,0,1,-9,1,-3,1,-19,1
1384,2,1,2,1,0,1,-2,1,1,1,1,1,4,1,9,1,0,1,-8,1,-2,1,-19,1
1385,1,1,2,1,1,1,-1,1,0,1,2,1,4,1,10,1,1,1,-7,1,-2,1,-19,1
1386,1,1,2,1,1,1,-1,1,0,1,2,1,3,1,10,1,1,1,-7,1,-2,1,-19,1
1387,1,1,1,1,0,1,-1,1,1,1,1,1,3,1,10,1,2,1,-7,1,-2,1,-19,1
1388,0,1,1,1,1,1,0,1,0,1,1,1,3,1,10,1,3,1,-6,1,-2,1,-19,1
1389,2,1,1,1,-1,1,-1,1,2,1,0,1,3,1,10,1,5,1,-6,1,-1,1,-19,1
1390,2,1,2,1,0,1,-2,1,1,1,1,1,4,1,11,1,5,1,-5,1,-1,1,-19,1
1391,3,1,2,1,-1,1,-2,1,2,1,1,1,5,1,12,1,5,1,-5,1,-1,1,-19,1
1392,3,1,2,1,-1,1,-2,1,2,1,1,1,4,1,12,1,5,1,-5,1,-2,1,-19,1
1393,4,1,2,1,-2,1,-3,1,3,1,0,1,4,1,13,1,7,1,-5,1,-2,1,-19,1
1394,4,1,3,1,-1,1,-3,1,3,1,1,1,4,1,13,1,7,1,-5,1,-1,1,-19,1
1395,5,1,4,1,-1,1,-4,1,3,1,2,1,4,1,13,1,7,1,-5,1,-1,1,-18,1
1396,5,1,6,1,1,1,-5,1,2,1,4,1,3,1,13,1,9,1,-4,1,0,1,-18,1
1397,5,1,6,1,1,1,-5,1,2,1,4,1,3,1,13,1,9,1,-4,1,0,1,-17,1
1398,6,1,6,1,0,1,-6,1,3,1,3,1,3,1,13,1,11,1,-4,1,-1,1,-17,1
1399,6,1,5,1,-1,1,-5,1,4,1,2,1,4,1,14,1,12,1,-3,1,0,1,-17,1
1400,6,1,5,1,-1,1,-5,1,4,1,2,1,4,1,14,1,13,1,-3,1,1,1,-17,1
1401,6,1,5,1,-1,1,-5,1,4,1,2,1,5,1,15,1,14,1,-3,1,2,1,-17,1
1402,6,1,5,1,-1,1,-5,1,4,1,2,1,4,1,16,1,15,1,-2,1,3,1,-17,1
1403,6,1,4,1,-2,1,-5,1,4,1,1,1,5,1,16,1,16,1,-2,1,3,1,-16,1
1404,6,1,4,1,-2,1,-5,1,4,1,1,1,5,1,17,1,16,1,-1,1,3,1,-16,1
1405,7,1,4,1,-3,1,-5,1,5,1,1,1,3,1,17,1,16,1,-1,1,2,1,-16,1
1406,7,1,5,1,-2,1,-6,1,5,1,2,1,3,1,17,1,16,1,0,1,3,1,-16,1
1407,8,1,5,1,-3,1,-6,1,6,1,1,1,3,1,18,1,17,1,0,1,3,1,-16,1
1408,8,1,6,1,-2,1,-7,1,5,1,2,1,3,1,19,1,18,1,0,1,4,1,-15,1
1409,8,1,6,1,-2,1,-7,1,5,1,2,1,2,1,19,1,19,1,1,1,4,1,-15,1
1410,8,1,6,1,-2,1,-7,1,5,1,2,1,2,1,19,1,21,1,1,1,4,1,-15,1
1411,8,1,7,1,-1,1,-7,1,5,1,3,1,2,1,20,1,22,1,1,1,5,1,-14,1
1412,9,1,8,1,-1,1,-8,1,5,1,4,1,2,1,20,1,22,1,2,1,6,1,-14,1
1413,9,1,9,1,0,1,-9,1,5,1,5,1,2,1,21,1,23,1,3,1,7,1,-13,1
1414,9,1,9,1,0,1,-9,1,5,1,5,1,2,1,22,1,24,1,4,1,8,1,-12,1
1415,9,1,10,1,1,1,-9,1,4,1,6,1,1,1,22,1,24,1,4,1,8,1,-11,1
1416,9,1,11,1,2,1,-10,1,4,1,7,1,1,1,23,1,25,1,5,1,9,1,-11,1
1417,9,1,11,1,2,1,-10,1,4,1,7,1,1,1,24,1,27,1,6,1,10,1,-10,1
1418,10,1,11,1,1,1,-10,1,5,1,6,1,1,1,25,1,30,1,7,1,11,1,-8,1
1419,12,1,13,1,1,1,-12,1,6,1,7,1,0,1,26,1,32,1,9,1,12,1,-7,1
1420,12,1,14,1,2,1,-13,1,5,1,8,1,0,1,28,1,34,1,10,1,14,1,-6,1
1421,13,1,15,1,2,1,-14,1,6,1,9,1,-1,1,29,1,37,1,11,1,15,1,-5,1
1422,14,1,15,1,1,1,-14,1,7,1,8,1,0,1,29,1,39,1,12,1,16,1,-4,1
1423,15,1,16,1,1,1,-15,1,7,1,9,1,-1,1,31,1,41,1,15,1,18,1,-4,1
1424,17,1,17,1,0,1,-17,1,9,1,9,1,-2,1,32,1,41,1,16,1,19,1,-3,1
1425,18,1,17,1,-1,1,-17,1,10,1,8,1,-3,1,33,1,43,1,17,1,20,1,-2,1
1426,18,1,17,1,-1,1,-17,1,10,1,8,1,-3,1,35,1,45,1,18,1,22,1,-1,1
1427,19,1,18,1,-1,1,-18,1,10,1,9,1,-3,1,36,1,47,1,19,1,23,1,0,1
1428,19,1,20,1,1,1,-19,1,9,1,11,1,-4,1,38,1,49,1,22,1,26,1,2,1
1429,19,1,22,1,3,1,-20,1,8,1,13,1,-4,1,39,1,52,1,24,1,28,1,3,1
1430,20,1,24,1,4,1,-22,1,8,1,14,1,-4,1,40,1,55,1,27,1,30,1,5,1
1431,20,1,25,1,5,1,-22,1,8,1,15,1,-6,1,43,1,58,1,28,1,31,1,7,1
1432,21,1,27,1,6,1,-24,1,8,1,17,1,-6,1,44,1,61,1,31,1,32,1,8,1
1433,22,1,29,1,7,1,-25,1,8,1,18,1,-7,1,45,1,64,1,33,1,35,1,10,1
1434,23,1,32,1,9,1,-27,1,7,1,21,1,-7,1,47,1,66,1,33,1,35,1,11,1
1435,25,1,33,1,8,1,-29,1,9,1,21,1,-8,1,48,1,67,1,35,1,37,1,12,1
1436,27,1,35,1,8,1,-31,1,10,1,22,1,-10,1,49,1,68,1,36,1,38,1,14,1
1437,28,1,36,1,8,1,-32,1,10,1,22,1,-10,1,50,1,71,1,38,1,40,1,15,1
1438,28,1,37,1,9,1,-32,1,10,1,23,1,-10,1,50,1,73,1,39,1,41,1,16,1
1439,28,1,38,1,10,1,-33,1,9,1,24,1,-9,1,50,1,74,1,40,1,43,1,18,1
1440,28,1,38,1,10,1,-33,1,9,1,24,1,-9,1,51,1,76,1,42,1,45,1,19,1
1441,28,1,40,1,12,1,-34,1,8,1,26,1,-9,1,52,1,77,1,43,1,45,1,21,1
1442,28,1,41,1,13,1,-34,1,8,1,27,1,-10,1,52,1,78,1,44,1,46,1,22,1
1443,28,1,43,1,15,1,-35,1,7,1,29,1,-10,1,51,1,79,1,45,1,48,1,22,1
1444,28,1,43,1,15,1,-35,1,7,1,29,1,-11,1,51,1,80,1,46,1,48,1,22,1
1445,29,1,44,1,15,1,-36,1,7,1,30,1,-12,1,50,1,80,1,47,1,48,1,23,1
1446,29,1,45,1,16,1,-37,1,7,1,31,1,-13,1,49,1,81,1,47,1,49,1,23,1
1447,30,1,45,1,15,1,-37,1,8,1,30,1,-14,1,47,1,82,1,49,1,50,1,25,1
1448,30,1,44,1,14,1,-37,1,8,1,29,1,-14,1,46,1,82,1,49,1,51,1,25,1
1449,29,1,44,1,15,1,-36,1,7,1,30,1,-13,1,44,1,82,1,48,1,51,1,26,1
1450,29,1,44,1,15,1,-36,1,7,1,30,1,-14,1,42,1,81,1,48,1,50,1,25,1
1451,30,1,46,1,16,1,-38,1,7,1,31,1,-14,1,40,1,81,1,47,1,50,1,26,1
1452,30,1,47,1,17,1,-38,1,7,1,32,1,-14,1,38,1,81,1,46,1,51,1,26,1
1453,31,1,47,1,16,1,-39,1,8,1,32,1,-15,1,35,1,80,1,46,1,51,1,26,1
1454,30,1,46,1,16,1,-38,1,7,1,31,1,-15,1,32,1,78,1,44,1,50,1,26,1
1455,30,1,46,1,16,1,-38,1,7,1,31,1,-16,1,31,1,76,1,42,1,49,1,25,1
1456,30,1,46,1,16,1,-38,1,7,1,31,1,-16,1,28,1,76,1,42,1,47,1,24,1
1457,30,1,46,1,16,1,-38,1,7,1,31,1,-17,1,27,1,75,1,41,1,47,1,24,1
1458,30,1,46,1,16,1,-38,1,7,1,31,1,-16,1,25,1,75,1,40,1,46,1,23,1
1459,30,1,45,1,15,1,-37,1,8,1,30,1,-15,1,23,1,73,1,39,1,46,1,23,1
1460,29,1,44,1,15,1,-36,1,7,1,30,1,-14,1,20,1,71,1,39,1,46,1,23,1
1461,28,1,43,1,15,1,-35,1,7,1,29,1,-13,1,18,1,69,1,37,1,45,1,21,1
1462,27,1,43,1,16,1,-35,1,6,1,30,1,-13,1,16,1,67,1,36,1,43,1,21,1
1463,25,1,42,1,17,1,-33,1,4,1,30,1,-12,1,14,1,65,1,34,1,42,1,19,1
1464,25,1,41,1,16,1,-33,1,5,1,29,1,-12,1,12,1,63,1,32,1,40,1,17,1
1465,24,1,41,1,17,1,-32,1,4,1,29,1,-12,1,10,1,60,1,29,1,38,1,16,1
1466,24,1,39,1,15,1,-31,1,5,1,27,1,-11,1,8,1,58,1,27,1,37,1,15,1
1467,24,1,38,1,14,1,-31,1,5,1,26,1,-10,1,6,1,57,1,25,1,36,1,14,1
1468,23,1,37,1,14,1,-30,1,5,1,26,1,-9,1,3,1,54,1,23,1,34,1,13,1
1469,21,1,36,1,15,1,-28,1,3,1,26,1,-8,1,0,1,52,1,22,1,32,1,12,1
1470,20,1,34,1,14,1,-27,1,3,1,24,1,-7,1,-2,1,50,1,20,1,30,1,11,1
1471,19,1,34,1,15,1,-26,1,2,1,25,1,-6,1,-3,1,48,1,18,1,28,1,10,1
1472,19,1,33,1,14,1,-26,1,3,1,24,1,-5,1,-5,1,46,1,17,1,26,1,8,1
1473,18,1,31,1,13,1,-24,1,3,1,22,1,-4,1,-7,1,42,1,15,1,24,1,6,1
1474,17,1,30,1,13,1,-23,1,2,1,22,1,-4,1,-7,1,40,1,13,1,23,1,4,1
1475,16,1,29,1,13,1,-22,1,2,1,21,1,-3,1,-9,1,38,1,11,1,22,1,3,1
1476,14,1,26,1,12,1,-20,1,1,1,19,1,-1,1,-10,1,36,1,10,1,20,1,2,1
1477,12,1,23,1,11,1,-17,1,1,1,17,1,0,1,-12,1,33,1,8,1,18,1,0,1
1478,12,1,22,1,10,1,-17,1,1,1,16,1,0,1,-13,1,30,1,6,1,16,1,0,1
1479,12,1,21,1,9,1,-16,1,2,1,15,1,1,1,-15,1,27,1,3,1,15,1,-1,1
1480,12,1,20,1,8,1,-16,1,2,1,14,1,2,1,-18,1,25,1,1,1,13,1,-3,1
1481,12,1,18,1,6,1,-15,1,3,1,12,1,2,1,-20,1,23,1,-1,1,11,1,-5,1
1482,9,1,17,1,8,1,-13,1,1,1,13,1,2,1,-21,1,20,1,-3,1,8,1,-6,1
1483,9,1,16,1,7,1,-12,1,1,1,12,1,3,1,-23,1,18,1,-5,1,7,1,-7,1
1484,8,1,14,1,6,1,-11,1,1,1,10,1,3,1,-25,1,17,1,-6,1,5,1,-9,1
1485,8,1,13,1,5,1,-10,1,2,1,9,1,3,1,-27,1,15,1,-7,1,4,1,-10,1
1486,7,1,12,1,5,1,-9,1,1,1,9,1,3,1,-28,1,13,1,-9,1,3,1,-10,1
1487,7,1,12,1,5,1,-9,1,1,1,9,1,4,1,-29,1,10,1,-11,1,3,1,-11,1
1488,7,1,10,1,3,1,-8,1,2,1,7,1,5,1,-30,1,9,1,-12,1,3,1,-12,1
1489,6,1,10,1,4,1,-8,1,1,1,7,1,4,1,-32,1,8,1,-14,1,1,1,-12,1
1490,5,1,8,1,3,1,-6,1,1,1,6,1,4,1,-32,1,6,1,-17,1,1,1,-13,1
1491,4,1,8,1,4,1,-6,1,0,1,6,1,5,1,-33,1,5,1,-19,1,0,1,-14,1
1492,4,1,7,1,3,1,-5,1,1,1,5,1,5,1,-34,1,4,1,-20,1,-1,1,-15,1
1493,4,1,7,1,3,1,-5,1,1,1,5,1,4,1,-36,1,2,1,-20,1,-2,1,-15,1
1494,4,1,6,1,2,1,-5,1,1,1,4,1,4,1,-38,1,0,1,-21,1,-4,1,-17,1
1495,4,1,5,1,1,1,-4,1,2,1,3,1,4,1,-39,1,-1,1,-23,1,-5,1,-18,1
1496,4,1,3,1,-1,1,-3,1,3,1,1,1,3,1,-40,1,-1,1,-24,1,-7,1,-18,1
1497,4,1,3,1,-1,1,-3,1,3,1,1,1,3,1,-41,1,-3,1,-24,1,-7,1,-18,1
1498,3,1,1,1,-2,1,-2,1,3,1,0,1,2,1,-41,1,-5,1,-25,1,-8,1,-19,1
1499,3,1,1,1,-2,1,-2,1,3,1,0,1,2,1,-42,1,-5,1,-25,1,-8,1,-19,1
1500,2,1,0,1,-2,1,-1,1,2,1,-1,1,2,1,-42,1,-5,1,-26,1,-9,1,-19,1
1501,2,1,-1,1,-3,1,0,1,2,1,-2,1,2,1,-43,1,-6,1,-26,1,-9,1,-19,1
1502,1,1,-1,1,-2,1,0,1,1,1,-1,1,2,1,-44,1,-7,1,-27,1,-9,1,-20,1
1503,1,1,-1,1,-2,1,0,1,1,1,-1,1,2,1,-45,1,-8,1,-27,1,-10,1,-20,1
1504,0,1,-2,1,-2,1,1,1,1,1,-2,1,2,1,-45,1,-9,1,-28,1,-10,1,-20,1
1505,1,1,-2,1,-3,1,0,1,2,1,-2,1,3,1,-45,1,-9,1,-28,1,-10,1,-20,1
1506,1,1,-2,1,-3,1,0,1,2,1,-2,1,3,1,-46,1,-10,1,-29,1,-10,1,-20,1
1507,0,1,-2,1,-2,1,1,1,1,1,-2,1,2,1,-45,1,-11,1,-29,1,-10,1,-20,1
1508,0,1,-2,1,-2,1,1,1,1,1,-2,1,2,1,-45,1,-10,1,-29,1,-10,1,-20,1
1509,0,1,-3,1,-3,1,1,1,1,1,-3,1,2,1,-45,1,-10,1,-29,1,-10,1,-20,1
1510,0,1,-2,1,-2,1,1,1,1,1,-2,1,2,1,-45,1,-10,1,-29,1,-10,1,-21,1
1511,0,1,-1,1,-1,1,0,1,0,1,-1,1,3,1,-45,1,-9,1,-29,1,-10,1,-21,1
1512,0,1,-1,1,-1,1,0,1,0,1,-1,1,4,1,-44,1,-9,1,-29,1,-10,1,-21,1
1513,1,1,-1,1,-2,1,0,1,1,1,-1,1,5,1,-44,1,-10,1,-29,1,-10,1,-21,1
1514,1,1,-1,1,-2,1,0,1,1,1,-1,1,5,1,-44,1,-9,1,-29,1,-10,1,-21,1
1515,1,1,0,1,-1,1,0,1,1,1,0,1,5,1,-43,1,-10,1,-28,1,-10,1,-21,1
1516,1,1,0,1,-1,1,0,1,1,1,0,1,5,1,-43,1,-10,1,-28,1,-11,1,-21,1
1517,1,1,1,1,0,1,-1,1,1,1,1,1,5,1,-42,1,-10,1,-28,1,-11,1,-21,1
1518,0,1,1,1,1,1,0,1,0,1,1,1,5,1,-42,1,-10,1,-28,1,-11,1,-21,1
1519,0,1,1,1,1,1,0,1,0,1,1,1,5,1,-42,1,-10,1,-28,1,-11,1,-21,1
1520,0,1,0,1,0,1,0,1,0,1,0,1,5,1,-42,1,-9,1,-28,1,-11,1,-21,1
1521,1,1,0,1,-1,1,0,1,1,1,0,1,5,1,-41,1,-9,1,-28,1,-11,1,-22,1
1522,1,1,0,1,-1,1,0,1,1,1,0,1,6,1,-41,1,-9,1,-27,1,-10,1,-22,1
1523,1,1,1,1,0,1,-1,1,1,1,1,1,6,1,-40,1,-8,1,-27,1,-10,1,-22,1
1524,1,1,1,1,0,1,-1,1,1,1,1,1,6,1,-39,1,-8,1,-27,1,-10,1,-21,1
1525,1,1,1,1,0,1,-1,1,1,1,1,1,7,1,-38,1,-7,1,-26,1,-10,1,-21,1
1526,1,1,0,1,-1,1,0,1,1,1,0,1,7,1,-38,1,-7,1,-26,1,-10,1,-21,1
1527,1,1,0,1,-1,1,0,1,1,1,0,1,6,1,-38,1,-7,1,-26,1,-10,1,-21,1
1528,1,1,1,1,0,1,-1,1,1,1,1,1,6,1,-37,1,-7,1,-26,1,-9,1,-21,1
1529,0,1,1,1,1,1,0,1,0,1,1,1,7,1,-37,1,-7,1,-26,1,-9,1,-21,1
1530,0,1,1,1,1,1,0,1,0,1,1,1,7,1,-36,1,-6,1,-26,1,-10,1,-21,1
1531,0,1,1,1,1,1,0,1,0,1,1,1,7,1,-36,1,-6,1,-26,1,-9,1,-21,1
1532,0,1,0,1,0,1,0,1,0,1,0,1,7,1,-35,1,-6,1,-25,1,-9,1,-20,1
1533,0,1,-1,1,-1,1,0,1,0,1,-1,1,7,1,-35,1,-6,1,-25,1,-9,1,-20,1
1534,0,1,-1,1,-1,1,0,1,0,1,-1,1,7,1,-35,1,-6,1,-25,1,-9,1,-20,1
1535,1,1,0,1,-1,1,0,1,1,1,0,1,7,1,-34,1,-6,1,-25,1,-9,1,-20,1
1536,1,1,0,1,-1,1,0,1,1,1,0,1,7,1,-34,1,-6,1,-24,1,-9,1,-20,1
1537,2,1,2,1,0,1,-2,1,1,1,1,1,8,1,-34,1,-5,1,-24,1,-9,1,-20,1
1538,2,1,3,1,1,1,-2,1,1,1,2,1,8,1,-33,1,-5,1,-24,1,-9,1,-20,1
1539,3,1,3,1,0,1,-3,1,2,1,2,1,8,1,-33,1,-5,1,-24,1,-9,1,-20,1
1540,3,1,3,1,0,1,-3,1,2,1,2,1,8,1,-32,1,-4,1,-24,1,-9,1,-21,1
1541,2,1,3,1,1,1,-2,1,1,1,2,1,8,1,-32,1,-4,1,-24,1,-9,1,-21,1
1542,3,1,3,1,0,1,-3,1,2,1,2,1,8,1,-32,1,-3,1,-23,1,-9,1,-21,1
1543,3,1,4,1,1,1,-3,1,1,1,3,1,8,1,-32,1,-3,1,-23,1,-9,1,-20,1
1544,3,1,4,1,1,1,-3,1,1,1,3,1,8,1,-32,1,-3,1,-23,1,-9,1,-20,1
1545,4,1,5,1,1,1,-4,1,2,1,3,1,8,1,-31,1,-2,1,-24,1,-8,1,-19,1
1546,4,1,5,1,1,1,-4,1,2,1,3,1,7,1,-31,1,-2,1,-23,1,-8,1,-19,1
1547,3,1,3,1,0,1,-3,1,2,1,2,1,7,1,-31,1,-2,1,-23,1,-8,1,-19,1
1548,3,1,2,1,-1,1,-2,1,2,1,1,1,8,1,-31,1,-2,1,-23,1,-9,1,-19,1
1549,1,1,2,1,1,1,-1,1,0,1,2,1,7,1,-31,1,-3,1,-23,1,-9,1,-20,1
1550,1,1,1,1,0,1,-1,1,1,1,1,1,7,1,-32,1,-4,1,-23,1,-9,1,-19,1
1551,1,1,1,1,0,1,-1,1,1,1,1,1,8,1,-32,1,-4,1,-24,1,-10,1,-19,1
1552,1,1,0,1,-1,1,0,1,1,1,0,1,8,1,-32,1,-4,1,-24,1,-10,1,-19,1
1553,0,1,-1,1,-1,1,0,1,0,1,-1,1,8,1,-31,1,-4,1,-25,1,-10,1,-19,1
1554,0,1,-1,1,-1,1,0,1,0,1,-1,1,8,1,-31,1,-4,1,-24,1,-10,1,-19,1
1555,0,1,-1,1,-1,1,0,1,0,1,-1,1,9,1,-32,1,-4,1,-24,1,-10,1,-19,1
1556,0,1,0,1,0,1,0,1,0,1,0,1,8,1,-32,1,-4,1,-25,1,-11,1,-20,1
1557,0,1,0,1,0,1,0,1,0,1,0,1,8,1,-33,1,-5,1,-25,1,-11,1,-20,1
1558,0,1,0,1,0,1,0,1,0,1,0,1,8,1,-33,1,-5,1,-25,1,-11,1,-20,1
1559,0,1,0,1,0,1,0,1,0,1,0,1,8,1,-33,1,-6,1,-25,1,-11,1,-20,1
1560,0,1,-1,1,-1,1,0,1,0,1,-1,1,8,1,-34,1,-6,1,-25,1,-11,1,-20,1
1561,-1,1,-2,1,-1,1,1,1,0,1,-2,1,7,1,-34,1,-6,1,-25,1,-11,1,-21,1
1562,-1,1,-2,1,-1,1,1,1,0,1,-2,1,6,1,-35,1,-7,1,-25,1,-11,1,-21,1
1563,-1,1,-3,1,-2,1,2,1,0,1,-3,1,6,1,-36,1,-8,1,-25,1,-12,1,-21,1
1564,0,1,-3,1,-3,1,1,1,1,1,-3,1,6,1,-36,1,-8,1,-25,1,-12,1,-21,1
1565,0,1,-3,1,-3,1,1,1,1,1,-3,1,5,1,-37,1,-9,1,-26,1,-13,1,-22,1
1566,1,1,-4,1,-5,1,1,1,3,1,-4,1,4,1,-37,1,-10,1,-26,1,-13,1,-22,1
1567,0,1,-4,1,-4,1,2,1,2,1,-4,1,4,1,-37,1,-11,1,-26,1,-14,1,-22,1
1568,0,1,-4,1,-4,1,2,1,2,1,-4,1,4,1,-37,1,-11,1,-26,1,-14,1,-22,1
1569,0,1,-4,1,-4,1,2,1,2,1,-4,1,4,1,-38,1,-12,1,-27,1,-14,1,-22,1
1570,-1,1,-4,1,-3,1,2,1,1,1,-4,1,4,1,-39,1,-12,1,-28,1,-14,1,-22,1
1571,-2,1,-4,1,-2,1,3,1,0,1,-3,1,4,1,-39,1,-13,1,-28,1,-15,1,-23,1
1572,-2,1,-4,1,-2,1,3,1,0,1,-3,1,4,1,-39,1,-13,1,-29,1,-15,1,-23,1
1573,-1,1,-4,1,-3,1,2,1,1,1,-4,1,3,1,-40,1,-13,1,-29,1,-15,1,-23,1
1574,-1,1,-4,1,-3,1,2,1,1,1,-4,1,3,1,-40,1,-13,1,-29,1,-15,1,-23,1
1575,-1,1,-4,1,-3,1,2,1,1,1,-4,1,3,1,-40,1,-13,1,-29,1,-15,1,-23,1
1576,-1,1,-4,1,-3,1,2,1,1,1,-4,1,3,1,-41,1,-13,1,-29,1,-16,1,-23,1
1577,-1,1,-5,1,-4,1,3,1,1,1,-5,1,3,1,-42,1,-14,1,-30,1,-16,1,-23,1
1578,-2,1,-6,1,-4,1,4,1,1,1,-5,1,2,1,-42,1,-14,1,-30,1,-17,1,-24,1
1579,-1,1,-6,1,-5,1,3,1,2,1,-6,1,2,1,-41,1,-15,1,-30,1,-17,1,-24,1
1580,0,1,-6,1,-6,1,3,1,3,1,-6,1,2,1,-40,1,-15,1,-30,1,-16,1,-24,1
1581,0,1,-5,1,-5,1,2,1,2,1,-5,1,2,1,-40,1,-16,1,-30,1,-16,1,-24,1
1582,0,1,-5,1,-5,1,2,1,2,1,-5,1,2,1,-39,1,-16,1,-31,1,-15,1,-24,1
1583,0,1,-5,1,-5,1,2,1,2,1,-5,1,2,1,-39,1,-16,1,-31,1,-15,1,-24,1
1584,0,1,-5,1,-5,1,2,1,2,1,-5,1,3,1,-41,1,-17,1,-31,1,-17,1,-24,1
1585,0,1,-5,1,-5,1,2,1,2,1,-5,1,3,1,-41,1,-18,1,-32,1,-17,1,-24,1
1586,0,1,-5,1,-5,1,2,1,2,1,-5,1,3,1,-41,1,-19,1,-32,1,-17,1,-24,1
1587,1,1,-5,1,-6,1,2,1,3,1,-5,1,3,1,-42,1,-19,1,-32,1,-18,1,-24,1
1588,1,1,-6,1,-7,1,2,1,4,1,-6,1,2,1,-41,1,-19,1,-32,1,-18,1,-24,1
1589,1,1,-6,1,-7,1,2,1,4,1,-6,1,2,1,-41,1,-18,1,-32,1,-18,1,-25,1
1590,1,1,-6,1,-7,1,2,1,4,1,-6,1,2,1,-42,1,-18,1,-32,1,-18,1,-25,1
1591,0,1,-6,1,-6,1,3,1,3,1,-6,1,2,1,-42,1,-18,1,-32,1,-18,1,-25,1
1592,0,1,-6,1,-6,1,3,1,3,1,-6,1,2,1,-42,1,-18,1,-32,1,-19,1,-25,1
1593,0,1,-7,1,-7,1,3,1,3,1,-7,1,2,1,-41,1,-18,1,-32,1,-19,1,-25,1
1594,1,1,-8,1,-9,1,3,1,5,1,-8,1,2,1,-42,1,-18,1,-32,1,-18,1,-25,1
1595,1,1,-8,1,-9,1,3,1,5,1,-8,1,3,1,-42,1,-18,1,-32,1,-18,1,-25,1
1596,1,1,-8,1,-9,1,3,1,5,1,-8,1,2,1,-42,1,-18,1,-32,1,-18,1,-25,1
1597,2,1,-8,1,-10,1,3,1,6,1,-9,1,2,1,-42,1,-19,1,-32,1,-19,1,-25,1
1598,2,1,-9,1,-11,1,3,1,6,1,-10,1,2,1,-42,1,-20,1,-32,1,-19,1,-25,1
1599,1,1,-9,1,-10,1,4,1,5,1,-9,1,2,1,-43,1,-20,1,-32,1,-19,1,-25,1
1600,0,1,-10,1,-10,1,5,1,5,1,-10,1,1,1,-44,1,-20,1,-32,1,-19,1,-26,1
1601,0,1,-10,1,-10,1,5,1,5,1,-10,1,1,1,-44,1,-20,1,-32,1,-19,1,-26,1
1602,-1,1,-10,1,-9,1,5,1,4,1,-10,1,1,1,-44,1,-20,1,-32,1,-19,1,-26,1
1603,-2,1,-11,1,-9,1,6,1,3,1,-10,1,1,1,-44,1,-20,1,-33,1,-19,1,-26,1
1604,-2,1,-11,1,-9,1,6,1,3,1,-10,1,1,1,-45,1,-20,1,-33,1,-19,1,-26,1
1605,-2,1,-12,1,-10,1,7,1,4,1,-11,1,1,1,-44,1,-21,1,-33,1,-19,1,-26,1
1606,-1,1,-11,1,-10,1,6,1,4,1,-11,1,0,1,-45,1,-21,1,-33,1,-19,1,-26,1
1607,-1,1,-11,1,-10,1,6,1,4,1,-11,1,0,1,-45,1,-21,1,-33,1,-19,1,-26,1
1608,0,1,-10,1,-10,1,5,1,5,1,-10,1,1,1,-43,1,-21,1,-32,1,-19,1,-26,1
1609,0,1,-10,1,-10,1,5,1,5,1,-10,1,1,1,-43,1,-21,1,-33,1,-19,1,-27,1
1610,-1,1,-10,1,-9,1,5,1,4,1,-10,1,2,1,-43,1,-21,1,-33,1,-20,1,-27,1
1611,-2,1,-10,1,-8,1,6,1,3,1,-9,1,2,1,-43,1,-21,1,-33,1,-20,1,-27,1
1612,0,1,-9,1,-9,1,4,1,4,1,-9,1,2,1,-43,1,-21,1,-33,1,-19,1,-27,1
1613,0,1,-9,1,-9,1,4,1,4,1,-9,1,2,1,-43,1,-20,1,-33,1,-19,1,-27,1
1614,0,1,-10,1,-10,1,5,1,5,1,-10,1,2,1,-43,1,-21,1,-33,1,-20,1,-27,1
1615,0,1,-11,1,-11,1,5,1,5,1,-11,1,1,1,-43,1,-22,1,-32,1,-20,1,-27,1
1616,0,1,-11,1,-11,1,5,1,5,1,-11,1,0,1,-44,1,-22,1,-32,1,-20,1,-28,1
1617,0,1,-12,1,-12,1,6,1,6,1,-12,1,0,1,-44,1,-22,1,-33,1,-21,1,-28,1
1618,-1,1,-12,1,-11,1,6,1,5,1,-12,1,0,1,-43,1,-22,1,-33,1,-21,1,-28,1
1619,-1,1,-12,1,-11,1,6,1,5,1,-12,1,1,1,-43,1,-22,1,-34,1,-21,1,-28,1
1620,-2,1,-12,1,-10,1,7,1,4,1,-11,1,1,1,-43,1,-22,1,-34,1,-20,1,-27,1
1621,-2,1,-13,1,-11,1,7,1,4,1,-12,1,1,1,-42,1,-22,1,-34,1,-20,1,-27,1
1622,-2,1,-13,1,-11,1,7,1,4,1,-12,1,1,1,-42,1,-22,1,-34,1,-20,1,-27,1
1623,-1,1,-12,1,-11,1,6,1,5,1,-12,1,1,1,-42,1,-22,1,-34,1,-20,1,-27,1
1624,0,1,-12,1,-12,1,6,1,6,1,-12,1,1,1,-42,1,-22,1,-33,1,-21,1,-27,1
1625,0,1,-11,1,-11,1,5,1,5,1,-11,1,1,1,-42,1,-22,1,-33,1,-21,1,-26,1
1626,0,1,-11,1,-11,1,5,1,5,1,-11,1,1,1,-42,1,-22,1,-33,1,-21,1,-26,1
1627,0,1,-11,1,-11,1,5,1,5,1,-11,1,1,1,-42,1,-22,1,-33,1,-22,1,-26,1
1628,0,1,-11,1,-11,1,5,1,5,1,-11,1,1,1,-41,1,-22,1,-33,1,-22,1,-26,1
1629,0,1,-11,1,-11,1,5,1,5,1,-11,1,1,1,-41,1,-22,1,-33,1,-21,1,-26,1
1630,0,1,-11,1,-11,1,5,1,5,1,-11,1,1,1,-40,1,-22,1,-33,1,-20,1,-26,1
1631,0,1,-10,1,-10,1,5,1,5,1,-10,1,1,1,-40,1,-22,1,-33,1,-20,1,-26,1
1632,0,1,-10,1,-10,1,5,1,5,1,-10,1,1,1,-40,1,-23,1,-33,1,-19,1,-25,1
1633,0,1,-10,1,-10,1,5,1,5,1,-10,1,1,1,-39,1,-22,1,-32,1,-19,1,-25,1
1634,0,1,-8,1,-8,1,4,1,4,1,-8,1,1,1,-39,1,-22,1,-32,1,-19,1,-25,1
1635,0,1,-8,1,-8,1,4,1,4,1,-8,1,1,1,-39,1,-23,1,-31,1,-20,1,-24,1
1636,0,1,-7,1,-7,1,3,1,3,1,-7,1,1,1,-40,1,-23,1,-30,1,-19,1,-24,1
1637,0,1,-7,1,-7,1,3,1,3,1,-7,1,1,1,-39,1,-23,1,-30,1,-19,1,-24,1
1638,0,1,-5,1,-5,1,2,1,2,1,-5,1,1,1,-39,1,-23,1,-30,1,-19,1,-24,1
1639,1,1,-4,1,-5,1,1,1,3,1,-4,1,1,1,-40,1,-21,1,-29,1,-19,1,-23,1
1640,2,1,-3,1,-5,1,0,1,3,1,-4,1,1,1,-39,1,-21,1,-28,1,-18,1,-22,1
1641,2,1,-2,1,-4,1,0,1,3,1,-3,1,1,1,-38,1,-21,1,-28,1,-17,1,-22,1
1642,2,1,-2,1,-4,1,0,1,3,1,-3,1,2,1,-37,1,-20,1,-27,1,-15,1,-22,1
1643,2,1,-2,1,-4,1,0,1,3,1,-3,1,2,1,-37,1,-20,1,-27,1,-14,1,-22,1
1644,2,1,-1,1,-3,1,0,1,2,1,-2,1,3,1,-37,1,-20,1,-27,1,-14,1,-22,1
1645,2,1,-3,1,-5,1,0,1,3,1,-4,1,2,1,-36,1,-21,1,-27,1,-15,1,-22,1
1646,3,1,-3,1,-6,1,0,1,4,1,-4,1,0,1,-37,1,-21,1,-27,1,-15,1,-22,1
1647,3,1,-4,1,-7,1,0,1,5,1,-5,1,0,1,-37,1,-21,1,-26,1,-16,1,-22,1
1648,4,1,-4,1,-8,1,0,1,6,1,-6,1,-1,1,-36,1,-22,1,-26,1,-16,1,-23,1
1649,4,1,-5,1,-9,1,0,1,6,1,-7,1,-2,1,-36,1,-22,1,-26,1,-16,1,-23,1
1650,4,1,-6,1,-10,1,1,1,7,1,-8,1,-3,1,-36,1,-22,1,-25,1,-16,1,-23,1
1651,4,1,-6,1,-10,1,1,1,7,1,-8,1,-5,1,-35,1,-22,1,-25,1,-15,1,-22,1
1652,5,1,-6,1,-11,1,0,1,8,1,-8,1,-6,1,-35,1,-21,1,-25,1,-15,1,-21,1
1653,6,1,-5,1,-11,1,0,1,8,1,-8,1,-7,1,-35,1,-21,1,-23,1,-14,1,-21,1
1654,7,1,-5,1,-12,1,-1,1,9,1,-8,1,-7,1,-35,1,-20,1,-23,1,-14,1,-21,1
1655,7,1,-4,1,-11,1,-1,1,9,1,-7,1,-7,1,-35,1,-20,1,-23,1,-14,1,-20,1
1656,9,1,-3,1,-12,1,-3,1,10,1,-7,1,-7,1,-35,1,-20,1,-21,1,-13,1,-20,1
1657,9,1,-2,1,-11,1,-3,1,10,1,-6,1,-8,1,-33,1,-19,1,-21,1,-12,1,-20,1
1658,9,1,-2,1,-11,1,-3,1,10,1,-6,1,-7,1,-31,1,-19,1,-21,1,-11,1,-20,1
1659,8,1,-2,1,-10,1,-3,1,9,1,-6,1,-7,1,-32,1,-19,1,-21,1,-11,1,-20,1
1660,8,1,-2,1,-10,1,-3,1,9,1,-6,1,-6,1,-32,1,-19,1,-21,1,-11,1,-20,1
1661,8,1,-2,1,-10,1,-3,1,9,1,-6,1,-5,1,-32,1,-20,1,-21,1,-11,1,-20,1
1662,9,1,-1,1,-10,1,-4,1,9,1,-5,1,-5,1,-32,1,-19,1,-21,1,-12,1,-20,1
1663,9,1,-2,1,-11,1,-3,1,10,1,-6,1,-4,1,-31,1,-19,1,-21,1,-12,1,-20,1
1664,10,1,-2,1,-12,1,-4,1,11,1,-7,1,-4,1,-32,1,-20,1,-21,1,-12,1,-20,1
1665,10,1,-2,1,-12,1,-4,1,11,1,-7,1,-4,1,-32,1,-21,1,-21,1,-13,1,-20,1
1666,10,1,-2,1,-12,1,-4,1,11,1,-7,1,-4,1,-33,1,-21,1,-21,1,-14,1,-20,1
1667,10,1,-2,1,-12,1,-4,1,11,1,-7,1,-5,1,-33,1,-22,1,-22,1,-14,1,-20,1
1668,9,1,-2,1,-11,1,-3,1,10,1,-6,1,-5,1,-34,1,-22,1,-22,1,-14,1,-20,1
1669,9,1,-2,1,-11,1,-3,1,10,1,-6,1,-5,1,-34,1,-22,1,-23,1,-15,1,-20,1
1670,8,1,-3,1,-11,1,-2,1,9,1,-7,1,-5,1,-34,1,-22,1,-23,1,-15,1,-20,1
1671,7,1,-4,1,-11,1,-1,1,9,1,-7,1,-5,1,-35,1,-23,1,-23,1,-15,1,-21,1
1672,7,1,-6,1,-13,1,0,1,10,1,-9,1,-5,1,-35,1,-24,1,-24,1,-16,1,-21,1
1673,5,1,-8,1,-13,1,1,1,9,1,-10,1,-5,1,-36,1,-24,1,-24,1,-17,1,-21,1
1674,4,1,-8,1,-12,1,2,1,8,1,-10,1,-5,1,-36,1,-24,1,-24,1,-17,1,-22,1
1675,4,1,-7,1,-11,1,1,1,7,1,-9,1,-4,1,-36,1,-25,1,-24,1,-17,1,-22,1
1676,3,1,-8,1,-11,1,2,1,7,1,-9,1,-3,1,-36,1,-26,1,-25,1,-19,1,-22,1
1677,1,1,-8,1,-9,1,3,1,5,1,-8,1,-3,1,-37,1,-27,1,-26,1,-19,1,-23,1
1678,0,1,-10,1,-10,1,5,1,5,1,-10,1,-3,1,-37,1,-28,1,-27,1,-20,1,-24,1
1679,-1,1,-12,1,-11,1,6,1,5,1,-12,1,-3,1,-38,1,-29,1,-29,1,-20,1,-25,1
1680,-2,1,-13,1,-11,1,7,1,4,1,-12,1,-4,1,-39,1,-29,1,-29,1,-21,1,-25,1
1681,-2,1,-14,1,-12,1,8,1,5,1,-13,1,-4,1,-40,1,-30,1,-29,1,-21,1,-25,1
1682,-3,1,-14,1,-11,1,8,1,4,1,-13,1,-5,1,-41,1,-31,1,-29,1,-22,1,-26,1
1683,-3,1,-15,1,-12,1,9,1,4,1,-14,1,-5,1,-42,1,-32,1,-31,1,-23,1,-27,1
1684,-3,1,-16,1,-13,1,9,1,5,1,-15,1,-5,1,-43,1,-34,1,-32,1,-24,1,-28,1
1685,-2,1,-16,1,-14,1,9,1,6,1,-15,1,-6,1,-43,1,-35,1,-32,1,-25,1,-28,1
1686,-2,1,-16,1,-14,1,9,1,6,1,-15,1,-6,1,-44,1,-35,1,-33,1,-25,1,-29,1
1687,-2,1,-16,1,-14,1,9,1,6,1,-15,1,-6,1,-43,1,-36,1,-32,1,-26,1,-29,1
1688,-2,1,-16,1,-14,1,9,1,6,1,-15,1,-6,1,-43,1,-36,1,-32,1,-26,1,-29,1
1689,-2,1,-16,1,-14,1,9,1,6,1,-15,1,-6,1,-43,1,-36,1,-32,1,-26,1,-28,1
1690,-2,1,-16,1,-14,1,9,1,6,1,-15,1,-6,1,-42,1,-36,1,-32,1,-25,1,-28,1
1691,-2,1,-15,1,-13,1,8,1,5,1,-14,1,-6,1,-41,1,-36,1,-32,1,-24,1,-28,1
1692,-1,1,-14,1,-13,1,7,1,6,1,-14,1,-5,1,-41,1,-36,1,-32,1,-24,1,-27,1
1693,-1,1,-14,1,-13,1,7,1,6,1,-14,1,-4,1,-41,1,-35,1,-32,1,-24,1,-26,1
1694,-1,1,-13,1,-12,1,7,1,5,1,-13,1,-4,1,-41,1,-35,1,-31,1,-24,1,-26,1
1695,-1,1,-13,1,-12,1,7,1,5,1,-13,1,-4,1,-40,1,-34,1,-31,1,-24,1,-26,1
1696,-1,1,-13,1,-12,1,7,1,5,1,-13,1,-4,1,-41,1,-34,1,-31,1,-24,1,-26,1
1697,-2,1,-13,1,-11,1,7,1,4,1,-12,1,-4,1,-40,1,-34,1,-31,1,-23,1,-26,1
1698,-2,1,-13,1,-11,1,7,1,4,1,-12,1,-4,1,-39,1,-33,1,-30,1,-22,1,-26,1
1699,-2,1,-14,1,-12,1,8,1,5,1,-13,1,-5,1,-39,1,-33,1,-30,1,-22,1,-26,1
1700,-2,1,-14,1,-12,1,8,1,5,1,-13,1,-5,1,-39,1,-33,1,-30,1,-23,1,-26,1
1701,-2,1,-15,1,-13,1,8,1,5,1,-14,1,-5,1,-38,1,-33,1,-30,1,-22,1,-26,1
1702,-3,1,-15,1,-12,1,9,1,4,1,-14,1,-4,1,-36,1,-32,1,-30,1,-21,1,-25,1
1703,-3,1,-13,1,-10,1,8,1,3,1,-12,1,-3,1,-34,1,-30,1,-28,1,-21,1,-25,1
1704,-4,1,-13,1,-9,1,8,1,2,1,-11,1,-1,1,-31,1,-28,1,-29,1,-22,1,-25,1
1705,-4,1,-12,1,-8,1,8,1,2,1,-10,1,0,1,-29,1,-26,1,-28,1,-21,1,-25,1
1706,-5,1,-11,1,-6,1,8,1,0,1,-9,1,2,1,-26,1,-24,1,-26,1,-20,1,-24,1
1707,-5,1,-9,1,-4,1,7,1,-1,1,-7,1,3,1,-21,1,-20,1,-23,1,-19,1,-24,1
1708,-5,1,-6,1,-1,1,5,1,-2,1,-4,1,6,1,-18,1,-17,1,-19,1,-17,1,-22,1
1709,-5,1,-3,1,2,1,4,1,-4,1,-1,1,9,1,-13,1,-11,1,-15,1,-14,1,-20,1
1710,-4,1,0,1,4,1,2,1,-4,1,2,1,13,1,-6,1,-4,1,-10,1,-12,1,-19,1
1711,-3,1,3,1,6,1,0,1,-4,1,4,1,17,1,4,1,8,1,-1,1,-6,1,-16,1
1712,-1,1,5,1,6,1,-2,1,-3,1,5,1,23,1,18,1,23,1,10,1,2,1,-12,1
1713,1,1,8,1,7,1,-4,1,-3,1,8,1,29,1,37,1,42,1,25,1,13,1,-6,1
1714,4,1,12,1,8,1,-8,1,-2,1,10,1,34,1,55,1,61,1,43,1,26,1,1,1
1715,9,1,21,1,12,1,-15,1,-1,1,17,1,35,1,64,1,77,1,61,1,41,1,10,1
1716,15,1,30,1,15,1,-22,1,0,1,23,1,34,1,62,1,89,1,78,1,56,1,22,1
1717,23,1,40,1,17,1,-31,1,3,1,29,1,27,1,42,1,92,1,92,1,72,1,35,1
1718,32,1,50,1,18,1,-41,1,7,1,34,1,17,1,9,1,91,1,105,1,86,1,49,1
1719,40,1,57,1,17,1,-48,1,12,1,37,1,4,1,-26,1,91,1,113,1,97,1,60,1
1720,44,1,58,1,14,1,-51,1,15,1,36,1,-7,1,-62,1,87,1,115,1,103,1,64,1
1721,44,1,54,1,10,1,-49,1,17,1,32,1,-15,1,-101,1,75,1,108,1,100,1,62,1
1722,41,1,44,1,3,1,-42,1,19,1,24,1,-21,1,-142,1,56,1,92,1,90,1,53,1
1723,36,1,31,1,-5,1,-33,1,21,1,13,1,-25,1,-178,1,33,1,73,1,76,1,41,1
1724,28,1,18,1,-10,1,-23,1,19,1,4,1,-30,1,-211,1,4,1,50,1,59,1,28,1
1725,19,1,5,1,-14,1,-12,1,17,1,-4,1,-36,1,-244,1,-36,1,19,1,38,1,15,1
1726,9,1,-9,1,-18,1,0,1,13,1,-13,1,-41,1,-278,1,-93,1,-22,1,9,1,0,1
1727,1,1,-25,1,-26,1,12,1,13,1,-25,1,-47,1,-307,1,-151,1,-66,1,-21,1,-17,1
1728,-7,1,-42,1,-35,1,24,1,14,1,-39,1,-50,1,-322,1,-197,1,-105,1,-51,1,-33,1
1729,-15,1,-59,1,-44,1,37,1,14,1,-52,1,-51,1,-325,1,-225,1,-135,1,-76,1,-48,1
1730,-21,1,-76,1,-55,1,48,1,17,1,-66,1,-53,1,-323,1,-238,1,-155,1,-96,1,-63,1
1731,-26,1,-91,1,-65,1,58,1,19,1,-78,1,-57,1,-319,1,-244,1,-167,1,-108,1,-73,1
1732,-29,1,-99,1,-70,1,64,1,20,1,-85,1,-64,1,-314,1,-244,1,-172,1,-114,1,-81,1
1733,-30,1,-104,1,-74,1,67,1,22,1,-89,1,-71,1,-310,1,-243,1,-171,1,-115,1,-86,1
1734,-30,1,-105,1,-75,1,67,1,22,1,-90,1,-77,1,-301,1,-241,1,-170,1,-113,1,-87,1
1735,-30,1,-105,1,-75,1,67,1,22,1,-90,1,-81,1,-288,1,-237,1,-168,1,-113,1,-87,1
1736,-30,1,-106,1,-76,1,68,1,23,1,-91,1,-83,1,-268,1,-230,1,-166,1,-113,1,-86,1
1737,-29,1,-105,1,-76,1,67,1,23,1,-91,1,-82,1,-243,1,-218,1,-162,1,-112,1,-86,1
1738,-29,1,-104,1,-75,1,66,1,23,1,-90,1,-80,1,-218,1,-203,1,-156,1,-111,1,-85,1
1739,-28,1,-101,1,-73,1,64,1,22,1,-87,1,-76,1,-195,1,-183,1,-147,1,-108,1,-83,1
1740,-25,1,-94,1,-69,1,59,1,22,1,-82,1,-72,1,-174,1,-161,1,-133,1,-102,1,-81,1
1741,-22,1,-84,1,-62,1,53,1,20,1,-73,1,-66,1,-159,1,-139,1,-116,1,-92,1,-75,1
1742,-21,1,-71,1,-50,1,46,1,14,1,-61,1,-59,1,-146,1,-119,1,-99,1,-79,1,-68,1
1743,-19,1,-58,1,-39,1,38,1,10,1,-49,1,-51,1,-134,1,-102,1,-82,1,-66,1,-59,1
1744,-18,1,-46,1,-28,1,32,1,5,1,-37,1,-41,1,-120,1,-90,1,-70,1,-54,1,-50,1
1745,-15,1,-35,1,-20,1,25,1,2,1,-28,1,-33,1,-105,1,-81,1,-60,1,-44,1,-42,1
1746,-13,1,-29,1,-16,1,21,1,1,1,-23,1,-25,1,-87,1,-73,1,-56,1,-39,1,-36,1
1747,-10,1,-25,1,-15,1,17,1,2,1,-20,1,-19,1,-68,1,-65,1,-52,1,-37,1,-32,1
1748,-8,1,-23,1,-15,1,15,1,3,1,-19,1,-15,1,-51,1,-56,1,-50,1,-37,1,-31,1
1749,-8,1,-21,1,-13,1,14,1,2,1,-17,1,-12,1,-37,1,-46,1,-47,1,-36,1,-31,1
1750,-6,1,-18,1,-12,1,12,1,3,1,-15,1,-8,1,-30,1,-36,1,-41,1,-33,1,-31,1
1751,-6,1,-16,1,-10,1,11,1,2,1,-13,1,-7,1,-28,1,-27,1,-33,1,-30,1,-29,1
1752,-5,1,-13,1,-8,1,9,1,1,1,-11,1,-5,1,-30,1,-22,1,-26,1,-26,1,-27,1
1753,-5,1,-10,1,-5,1,7,1,0,1,-8,1,-5,1,-33,1,-21,1,-21,1,-23,1,-25,1
1754,-4,1,-7,1,-3,1,5,1,-1,1,-5,1,-4,1,-34,1,-22,1,-20,1,-20,1,-23,1
1755,-3,1,-5,1,-2,1,4,1,-1,1,-4,1,-3,1,-33,1,-25,1,-22,1,-19,1,-23,1
1756,-3,1,-5,1,-2,1,4,1,-1,1,-4,1,-3,1,-29,1,-26,1,-24,1,-19,1,-23,1
1757,-3,1,-4,1,-1,1,3,1,-1,1,-3,1,-2,1,-25,1,-27,1,-25,1,-19,1,-23,1
1758,-3,1,-5,1,-2,1,4,1,-1,1,-4,1,-2,1,-19,1,-25,1,-25,1,-19,1,-23,1
1759,-1,1,-5,1,-4,1,3,1,1,1,-5,1,-2,1,-16,1,-22,1,-25,1,-20,1,-23,1
1760,-1,1,-5,1,-4,1,3,1,1,1,-5,1,-2,1,-15,1,-19,1,-23,1,-19,1,-23,1
1761,-1,1,-4,1,-3,1,2,1,1,1,-4,1,-2,1,-16,1,-18,1,-22,1,-19,1,-23,1
1762,-1,1,-4,1,-3,1,2,1,1,1,-4,1,-1,1,-17,1,-18,1,-20,1,-18,1,-22,1
1763,0,1,-2,1,-2,1,1,1,1,1,-2,1,-1,1,-17,1,-18,1,-18,1,-17,1,-22,1
1764,0,1,-1,1,-1,1,0,1,0,1,-1,1,0,1,-17,1,-17,1,-17,1,-17,1,-21,1
1765,1,1,0,1,-1,1,0,1,1,1,0,1,-1,1,-15,1,-17,1,-17,1,-16,1,-21,1
1766,1,1,-1,1,-2,1,0,1,1,1,-1,1,-1,1,-15,1,-16,1,-18,1,-16,1,-21,1
1767,1,1,-1,1,-2,1,0,1,1,1,-1,1,-1,1,-14,1,-15,1,-18,1,-17,1,-21,1
1768,1,1,-2,1,-3,1,0,1,2,1,-2,1,-1,1,-13,1,-15,1,-18,1,-16,1,-21,1
1769,1,1,-3,1,-4,1,1,1,2,1,-3,1,-2,1,-12,1,-14,1,-17,1,-16,1,-21,1
1770,0,1,-3,1,-3,1,1,1,1,1,-3,1,-1,1,-11,1,-14,1,-16,1,-16,1,-21,1
1771,0,1,-3,1,-3,1,1,1,1,1,-3,1,-1,1,-11,1,-14,1,-16,1,-16,1,-21,1
1772,0,1,-2,1,-2,1,1,1,1,1,-2,1,-2,1,-11,1,-14,1,-16,1,-16,1,-21,1
1773,0,1,-1,1,-1,1,0,1,0,1,-1,1,-1,1,-11,1,-14,1,-16,1,-16,1,-21,1
1774,1,1,-1,1,-2,1,0,1,1,1,-1,1,0,1,-10,1,-13,1,-16,1,-16,1,-20,1
1775,1,1,-1,1,-2,1,0,1,1,1,-1,1,-1,1,-10,1,-14,1,-15,1,-17,1,-20,1
1776,1,1,-1,1,-2,1,0,1,1,1,-1,1,-1,1,-10,1,-14,1,-14,1,-16,1,-20,1
1777,1,1,0,1,-1,1,0,1,1,1,0,1,-2,1,-9,1,-13,1,-14,1,-16,1,-20,1
1778,1,1,0,1,-1,1,0,1,1,1,0,1,-2,1,-9,1,-13,1,-14,1,-16,1,-20,1
1779,1,1,-1,1,-2,1,0,1,1,1,-1,1,-2,1,-9,1,-12,1,-13,1,-16,1,-20,1
1780,1,1,-2,1,-3,1,0,1,2,1,-2,1,-2,1,-8,1,-12,1,-12,1,-15,1,-19,1
1781,1,1,-1,1,-2,1,0,1,1,1,-1,1,-2,1,-7,1,-10,1,-12,1,-15,1,-18,1
1782,1,1,-1,1,-2,1,0,1,1,1,-1,1,-2,1,-7,1,-9,1,-11,1,-14,1,-18,1
1783,1,1,-1,1,-2,1,0,1,1,1,-1,1,-2,1,-7,1,-8,1,-11,1,-14,1,-18,1
1784,2,1,0,1,-2,1,-1,1,2,1,-1,1,-2,1,-7,1,-7,1,-11,1,-14,1,-18,1
1785,2,1,0,1,-2,1,-1,1,2,1,-1,1,-2,1,-6,1,-6,1,-10,1,-13,1,-17,1
1786,3,1,0,1,-3,1,-1,1,3,1,-1,1,-2,1,-6,1,-4,1,-10,1,-13,1,-17,1
1787,3,1,1,1,-2,1,-2,1,3,1,0,1,-1,1,-6,1,-1,1,-9,1,-12,1,-17,1
1788,3,1,1,1,-2,1,-2,1,3,1,0,1,-2,1,-5,1,1,1,-9,1,-12,1,-17,1
1789,4,1,2,1,-2,1,-3,1,3,1,0,1,-3,1,-5,1,3,1,-9,1,-12,1,-16,1
1790,5,1,3,1,-2,1,-4,1,4,1,1,1,-3,1,-4,1,5,1,-8,1,-13,1,-16,1
1791,4,1,3,1,-1,1,-3,1,3,1,1,1,-3,1,-4,1,6,1,-8,1,-12,1,-16,1
1792,4,1,3,1,-1,1,-3,1,3,1,1,1,-3,1,-4,1,8,1,-8,1,-11,1,-15,1
1793,5,1,3,1,-2,1,-4,1,4,1,1,1,-3,1,-3,1,10,1,-7,1,-11,1,-15,1
1794,6,1,4,1,-2,1,-5,1,4,1,1,1,-3,1,-2,1,11,1,-6,1,-11,1,-14,1
1795,6,1,4,1,-2,1,-5,1,4,1,1,1,-4,1,-2,1,12,1,-6,1,-10,1,-14,1
1796,6,1,3,1,-3,1,-4,1,5,1,0,1,-4,1,-2,1,14,1,-6,1,-10,1,-14,1
1797,5,1,2,1,-3,1,-3,1,4,1,0,1,-5,1,-2,1,15,1,-6,1,-10,1,-14,1
1798,5,1,2,1,-3,1,-3,1,4,1,0,1,-5,1,-1,1,15,1,-6,1,-9,1,-14,1
1799,5,1,2,1,-3,1,-3,1,4,1,0,1,-5,1,-1,1,18,1,-5,1,-9,1,-13,1
1800,5,1,3,1,-2,1,-4,1,4,1,1,1,-6,1,0,1,19,1,-5,1,-8,1,-13,1
1801,5,1,3,1,-2,1,-4,1,4,1,1,1,-6,1,0,1,21,1,-4,1,-8,1,-13,1
1802,6,1,3,1,-3,1,-4,1,5,1,0,1,-7,1,0,1,22,1,-4,1,-7,1,-12,1
1803,6,1,5,1,-1,1,-5,1,4,1,2,1,-7,1,2,1,23,1,-2,1,-6,1,-12,1
1804,7,1,5,1,-2,1,-6,1,5,1,2,1,-8,1,3,1,24,1,-1,1,-5,1,-11,1
1805,8,1,8,1,0,1,-8,1,4,1,4,1,-8,1,3,1,24,1,0,1,-4,1,-11,1
1806,8,1,10,1,2,1,-9,1,3,1,6,1,-8,1,4,1,25,1,1,1,-3,1,-9,1
1807,9,1,11,1,2,1,-10,1,4,1,7,1,-8,1,5,1,26,1,2,1,-2,1,-8,1
1808,10,1,13,1,3,1,-11,1,4,1,8,1,-9,1,6,1,29,1,4,1,-1,1,-6,1
1809,11,1,14,1,3,1,-12,1,4,1,9,1,-9,1,8,1,31,1,6,1,0,1,-5,1
1810,12,1,15,1,3,1,-13,1,5,1,9,1,-9,1,9,1,33,1,7,1,1,1,-4,1
1811,12,1,15,1,3,1,-13,1,5,1,9,1,-11,1,10,1,33,1,8,1,2,1,-3,1
1812,12,1,16,1,4,1,-14,1,4,1,10,1,-11,1,10,1,34,1,9,1,3,1,-2,1
1813,12,1,17,1,5,1,-14,1,4,1,11,1,-12,1,11,1,36,1,12,1,4,1,-1,1
1814,14,1,18,1,4,1,-16,1,5,1,11,1,-13,1,13,1,38,1,14,1,5,1,-1,1
1815,15,1,19,1,4,1,-17,1,6,1,12,1,-14,1,13,1,40,1,16,1,7,1,0,1
1816,15,1,20,1,5,1,-17,1,5,1,13,1,-15,1,14,1,42,1,17,1,8,1,1,1
1817,17,1,21,1,4,1,-19,1,7,1,13,1,-15,1,16,1,44,1,19,1,10,1,3,1
1818,18,1,22,1,4,1,-20,1,7,1,13,1,-15,1,19,1,47,1,21,1,12,1,5,1
1819,19,1,23,1,4,1,-21,1,8,1,14,1,-15,1,22,1,47,1,22,1,15,1,6,1
1820,20,1,26,1,6,1,-23,1,7,1,16,1,-16,1,22,1,50,1,24,1,17,1,8,1
1821,22,1,29,1,7,1,-25,1,8,1,18,1,-16,1,25,1,52,1,26,1,18,1,9,1
1822,24,1,31,1,7,1,-27,1,9,1,19,1,-16,1,25,1,55,1,29,1,20,1,11,1
1823,25,1,33,1,8,1,-29,1,9,1,21,1,-16,1,27,1,58,1,32,1,22,1,12,1
1824,25,1,34,1,9,1,-29,1,8,1,22,1,-18,1,28,1,59,1,34,1,23,1,14,1
1825,24,1,34,1,10,1,-29,1,7,1,22,1,-19,1,28,1,60,1,35,1,25,1,15,1
1826,25,1,34,1,9,1,-29,1,8,1,22,1,-21,1,29,1,62,1,35,1,27,1,16,1
1827,26,1,34,1,8,1,-30,1,9,1,21,1,-21,1,30,1,63,1,37,1,28,1,17,1
1828,26,1,35,1,9,1,-30,1,9,1,22,1,-21,1,31,1,65,1,39,1,29,1,18,1
1829,26,1,37,1,11,1,-31,1,8,1,24,1,-21,1,33,1,66,1,41,1,30,1,21,1
1830,26,1,37,1,11,1,-31,1,8,1,24,1,-21,1,33,1,67,1,42,1,32,1,22,1
1831,27,1,38,1,11,1,-32,1,8,1,25,1,-22,1,34,1,69,1,43,1,33,1,23,1
1832,28,1,38,1,10,1,-33,1,9,1,24,1,-22,1,35,1,71,1,45,1,34,1,24,1
1833,28,1,40,1,12,1,-34,1,8,1,26,1,-24,1,34,1,72,1,46,1,35,1,25,1
1834,29,1,41,1,12,1,-35,1,9,1,27,1,-24,1,33,1,73,1,46,1,35,1,25,1
1835,29,1,43,1,14,1,-36,1,8,1,29,1,-26,1,33,1,73,1,47,1,36,1,25,1
1836,29,1,44,1,15,1,-36,1,7,1,30,1,-26,1,33,1,74,1,47,1,37,1,27,1
1837,30,1,44,1,14,1,-37,1,8,1,29,1,-26,1,33,1,76,1,48,1,38,1,28,1
1838,30,1,46,1,16,1,-38,1,7,1,31,1,-26,1,32,1,76,1,49,1,39,1,28,1
1839,30,1,46,1,16,1,-38,1,7,1,31,1,-26,1,31,1,76,1,49,1,39,1,29,1
1840,30,1,47,1,17,1,-38,1,7,1,32,1,-27,1,30,1,76,1,49,1,40,1,29,1
1841,30,1,48,1,18,1,-39,1,6,1,33,1,-27,1,30,1,76,1,49,1,41,1,29,1
1842,30,1,49,1,19,1,-39,1,6,1,34,1,-27,1,29,1,76,1,50,1,40,1,30,1
