TS,I,If,II,IIf,III,IIIf,aVR,aVRf,aVL,aVLf,aVF,aVFf,V1,V1f,V2,V2f,V3,V3f,V4,V4f,V5,V5f,V6,V6f
1,12,1,28,1,16,1,-20,1,-2,1,22,1,1,1,0,1,0,1,8,1,-21,1,-3,1
2,11,1,26,1,15,1,-18,1,-2,1,21,1,1,1,-1,1,0,1,6,1,-22,1,-4,1
3,11,1,26,1,15,1,-18,1,-2,1,21,1,0,1,-2,1,-1,1,6,1,-23,1,-4,1
4,12,1,26,1,14,1,-19,1,-1,1,20,1,1,1,-2,1,0,1,6,1,-22,1,-4,1
5,14,1,28,1,14,1,-21,1,0,1,21,1,2,1,-1,1,0,1,6,1,-22,1,-4,1
6,13,1,29,1,16,1,-21,1,-1,1,23,1,1,1,-1,1,0,1,6,1,-22,1,-4,1
7,12,1,28,1,16,1,-20,1,-2,1,22,1,1,1,-2,1,-1,1,5,1,-22,1,-5,1
8,12,1,27,1,15,1,-19,1,-1,1,21,1,1,1,-2,1,-2,1,4,1,-23,1,-6,1
9,12,1,27,1,15,1,-19,1,-1,1,21,1,0,1,-2,1,-2,1,4,1,-23,1,-7,1
10,13,1,28,1,15,1,-20,1,-1,1,22,1,1,1,-2,1,-2,1,4,1,-23,1,-6,1
11,14,1,29,1,15,1,-21,1,0,1,22,1,1,1,-2,1,-2,1,2,1,-23,1,-6,1
12,13,1,29,1,16,1,-21,1,-1,1,23,1,1,1,-2,1,-2,1,2,1,-22,1,-6,1
13,10,1,28,1,18,1,-19,1,-4,1,23,1,2,1,-2,1,-1,1,2,1,-23,1,-5,1
14,11,1,29,1,18,1,-20,1,-3,1,24,1,2,1,-1,1,0,1,2,1,-22,1,-5,1
15,12,1,28,1,16,1,-20,1,-2,1,22,1,2,1,-1,1,0,1,3,1,-22,1,-6,1
16,9,1,26,1,17,1,-17,1,-4,1,22,1,1,1,-3,1,-1,1,2,1,-23,1,-7,1
17,8,1,24,1,16,1,-16,1,-4,1,20,1,0,1,-3,1,-1,1,1,1,-24,1,-8,1
18,10,1,27,1,17,1,-18,1,-3,1,22,1,0,1,-2,1,0,1,1,1,-23,1,-7,1
19,14,1,31,1,17,1,-22,1,-1,1,24,1,1,1,-1,1,0,1,2,1,-23,1,-7,1
20,14,1,31,1,17,1,-22,1,-1,1,24,1,0,1,-2,1,-1,1,0,1,-24,1,-7,1
21,11,1,29,1,18,1,-20,1,-3,1,24,1,-1,1,-2,1,-2,1,-1,1,-25,1,-8,1
22,9,1,29,1,20,1,-19,1,-5,1,25,1,-2,1,-3,1,-2,1,-2,1,-25,1,-8,1
23,10,1,28,1,18,1,-19,1,-4,1,23,1,-2,1,-3,1,-2,1,-1,1,-25,1,-8,1
24,11,1,29,1,18,1,-20,1,-3,1,24,1,-1,1,-3,1,-1,1,-1,1,-24,1,-8,1
25,11,1,29,1,18,1,-20,1,-3,1,24,1,-1,1,-2,1,-1,1,-1,1,-23,1,-8,1
26,8,1,25,1,17,1,-16,1,-4,1,21,1,-3,1,-4,1,-2,1,-2,1,-24,1,-10,1
27,9,1,25,1,16,1,-17,1,-3,1,21,1,-3,1,-4,1,-2,1,-2,1,-24,1,-10,1
28,7,1,23,1,16,1,-15,1,-4,1,20,1,-3,1,-4,1,-2,1,-2,1,-24,1,-11,1
29,5,1,21,1,16,1,-13,1,-5,1,19,1,-3,1,-4,1,-2,1,-3,1,-25,1,-12,1
30,8,1,22,1,14,1,-15,1,-3,1,18,1,-2,1,-4,1,-2,1,-4,1,-26,1,-12,1
31,11,1,25,1,14,1,-18,1,-1,1,20,1,-1,1,-3,1,-1,1,-3,1,-26,1,-12,1
32,11,1,26,1,15,1,-18,1,-2,1,21,1,-1,1,-3,1,-1,1,-2,1,-26,1,-11,1
33,11,1,27,1,16,1,-19,1,-2,1,22,1,0,1,-3,1,-1,1,-2,1,-26,1,-11,1
34,11,1,26,1,15,1,-18,1,-2,1,21,1,0,1,-3,1,-1,1,-1,1,-26,1,-10,1
35,11,1,27,1,16,1,-19,1,-2,1,22,1,0,1,-3,1,-1,1,-1,1,-25,1,-9,1
36,7,1,24,1,17,1,-15,1,-5,1,21,1,-1,1,-3,1,-2,1,-1,1,-25,1,-10,1
37,6,1,22,1,16,1,-14,1,-5,1,19,1,-1,1,-4,1,-2,1,-2,1,-25,1,-10,1
38,6,1,21,1,15,1,-13,1,-4,1,18,1,-2,1,-4,1,-2,1,-3,1,-25,1,-11,1
39,7,1,21,1,14,1,-14,1,-3,1,18,1,-1,1,-3,1,-2,1,-4,1,-25,1,-11,1
40,7,1,21,1,14,1,-14,1,-3,1,18,1,-1,1,-3,1,-2,1,-4,1,-26,1,-12,1
41,8,1,22,1,14,1,-15,1,-3,1,18,1,-1,1,-2,1,-1,1,-4,1,-26,1,-12,1
42,9,1,24,1,15,1,-16,1,-3,1,20,1,-1,1,-2,1,-1,1,-4,1,-25,1,-12,1
43,9,1,25,1,16,1,-17,1,-3,1,21,1,0,1,-2,1,-1,1,-4,1,-25,1,-12,1
44,9,1,25,1,16,1,-17,1,-3,1,21,1,-1,1,-3,1,-2,1,-5,1,-25,1,-12,1
45,8,1,25,1,17,1,-16,1,-4,1,21,1,-1,1,-3,1,-2,1,-5,1,-25,1,-13,1
46,9,1,26,1,17,1,-17,1,-4,1,22,1,0,1,-3,1,-2,1,-4,1,-24,1,-12,1
47,10,1,27,1,17,1,-18,1,-3,1,22,1,0,1,-3,1,-2,1,-4,1,-24,1,-12,1
48,10,1,27,1,17,1,-18,1,-3,1,22,1,0,1,-4,1,-1,1,-4,1,-24,1,-12,1
49,10,1,27,1,17,1,-18,1,-3,1,22,1,1,1,-3,1,-1,1,-4,1,-23,1,-11,1
50,11,1,28,1,17,1,-19,1,-3,1,23,1,2,1,-3,1,0,1,-4,1,-23,1,-11,1
51,10,1,28,1,18,1,-19,1,-4,1,23,1,2,1,-2,1,0,1,-4,1,-24,1,-11,1
52,9,1,28,1,19,1,-18,1,-5,1,24,1,3,1,-2,1,0,1,-5,1,-23,1,-10,1
53,8,1,28,1,20,1,-18,1,-6,1,24,1,4,1,-1,1,1,1,-4,1,-23,1,-10,1
54,8,1,29,1,21,1,-18,1,-6,1,25,1,5,1,-1,1,2,1,-4,1,-23,1,-10,1
55,8,1,30,1,22,1,-19,1,-7,1,26,1,6,1,0,1,3,1,-3,1,-22,1,-10,1
56,8,1,31,1,23,1,-19,1,-7,1,27,1,8,1,0,1,4,1,-2,1,-22,1,-10,1
57,8,1,30,1,22,1,-19,1,-7,1,26,1,8,1,1,1,5,1,-2,1,-22,1,-10,1
58,8,1,30,1,22,1,-19,1,-7,1,26,1,8,1,1,1,4,1,-2,1,-22,1,-10,1
59,10,1,32,1,22,1,-21,1,-6,1,27,1,9,1,2,1,5,1,-2,1,-21,1,-10,1
60,9,1,33,1,24,1,-21,1,-7,1,29,1,9,1,3,1,6,1,-2,1,-22,1,-10,1
61,7,1,33,1,26,1,-20,1,-9,1,30,1,10,1,4,1,7,1,-1,1,-20,1,-9,1
62,6,1,33,1,27,1,-19,1,-10,1,30,1,11,1,5,1,7,1,-1,1,-20,1,-8,1
63,7,1,33,1,26,1,-20,1,-9,1,30,1,11,1,5,1,7,1,0,1,-20,1,-8,1
64,10,1,34,1,24,1,-22,1,-7,1,29,1,12,1,5,1,8,1,0,1,-19,1,-7,1
65,9,1,33,1,24,1,-21,1,-7,1,29,1,11,1,5,1,8,1,-1,1,-18,1,-8,1
66,9,1,33,1,24,1,-21,1,-7,1,29,1,11,1,4,1,8,1,0,1,-17,1,-7,1
67,10,1,33,1,23,1,-21,1,-6,1,28,1,10,1,4,1,8,1,0,1,-16,1,-7,1
68,10,1,33,1,23,1,-21,1,-6,1,28,1,9,1,5,1,8,1,0,1,-15,1,-7,1
69,10,1,33,1,23,1,-21,1,-6,1,28,1,9,1,5,1,7,1,0,1,-15,1,-8,1
70,11,1,34,1,23,1,-22,1,-6,1,29,1,8,1,4,1,7,1,0,1,-15,1,-8,1
71,11,1,36,1,25,1,-23,1,-7,1,31,1,7,1,4,1,7,1,0,1,-15,1,-8,1
72,11,1,36,1,25,1,-23,1,-7,1,31,1,5,1,4,1,7,1,0,1,-15,1,-8,1
73,12,1,37,1,25,1,-24,1,-6,1,31,1,4,1,4,1,7,1,0,1,-14,1,-6,1
74,14,1,38,1,24,1,-26,1,-5,1,31,1,3,1,3,1,7,1,0,1,-14,1,-6,1
75,14,1,37,1,23,1,-25,1,-4,1,30,1,1,1,3,1,7,1,0,1,-14,1,-5,1
76,13,1,35,1,22,1,-24,1,-4,1,29,1,0,1,2,1,6,1,0,1,-14,1,-6,1
77,15,1,36,1,21,1,-25,1,-3,1,29,1,-1,1,2,1,6,1,0,1,-13,1,-5,1
78,16,1,37,1,21,1,-26,1,-2,1,29,1,-1,1,2,1,7,1,2,1,-13,1,-4,1
79,16,1,38,1,22,1,-27,1,-3,1,30,1,-2,1,1,1,7,1,2,1,-12,1,-4,1
80,15,1,38,1,23,1,-26,1,-4,1,31,1,-3,1,1,1,8,1,2,1,-12,1,-4,1
81,15,1,38,1,23,1,-26,1,-4,1,31,1,-4,1,0,1,8,1,2,1,-12,1,-4,1
82,17,1,40,1,23,1,-28,1,-3,1,32,1,-5,1,0,1,8,1,2,1,-11,1,-4,1
83,19,1,41,1,22,1,-30,1,-1,1,32,1,-4,1,0,1,8,1,2,1,-11,1,-4,1
84,19,1,40,1,21,1,-29,1,-1,1,31,1,-4,1,0,1,8,1,2,1,-11,1,-4,1
85,17,1,36,1,19,1,-26,1,-1,1,28,1,-4,1,-1,1,7,1,2,1,-12,1,-5,1
86,16,1,33,1,17,1,-24,1,0,1,25,1,-5,1,-2,1,6,1,1,1,-12,1,-6,1
87,15,1,31,1,16,1,-23,1,0,1,24,1,-6,1,-3,1,5,1,0,1,-13,1,-6,1
88,16,1,31,1,15,1,-23,1,1,1,23,1,-4,1,-2,1,6,1,1,1,-12,1,-5,1
89,16,1,32,1,16,1,-24,1,0,1,24,1,-4,1,-2,1,5,1,0,1,-11,1,-5,1
90,16,1,31,1,15,1,-23,1,1,1,23,1,-4,1,-2,1,4,1,-1,1,-12,1,-6,1
91,15,1,31,1,16,1,-23,1,0,1,24,1,-4,1,-2,1,3,1,-2,1,-13,1,-7,1
92,14,1,31,1,17,1,-22,1,-1,1,24,1,-4,1,-3,1,3,1,-3,1,-13,1,-7,1
93,13,1,30,1,17,1,-21,1,-2,1,24,1,-5,1,-2,1,3,1,-4,1,-13,1,-7,1
94,12,1,29,1,17,1,-20,1,-2,1,23,1,-5,1,-2,1,3,1,-4,1,-13,1,-7,1
95,11,1,29,1,18,1,-20,1,-3,1,24,1,-5,1,-2,1,4,1,-3,1,-14,1,-8,1
96,11,1,28,1,17,1,-19,1,-3,1,23,1,-5,1,-2,1,4,1,-3,1,-14,1,-8,1
97,10,1,26,1,16,1,-18,1,-3,1,21,1,-5,1,-3,1,4,1,-4,1,-15,1,-9,1
98,8,1,25,1,17,1,-16,1,-4,1,21,1,-4,1,-3,1,3,1,-4,1,-15,1,-9,1
99,8,1,23,1,15,1,-15,1,-3,1,19,1,-3,1,-4,1,2,1,-5,1,-17,1,-10,1
100,7,1,22,1,15,1,-14,1,-4,1,19,1,-2,1,-4,1,2,1,-5,1,-17,1,-11,1
101,7,1,22,1,15,1,-14,1,-4,1,19,1,-1,1,-5,1,2,1,-6,1,-18,1,-12,1
102,5,1,21,1,16,1,-13,1,-5,1,19,1,-1,1,-5,1,1,1,-7,1,-18,1,-12,1
103,2,1,18,1,16,1,-10,1,-7,1,17,1,-2,1,-7,1,0,1,-9,1,-20,1,-14,1
104,5,1,21,1,16,1,-13,1,-5,1,19,1,-1,1,-7,1,0,1,-9,1,-20,1,-14,1
105,2,1,18,1,16,1,-10,1,-7,1,17,1,-2,1,-7,1,-1,1,-10,1,-21,1,-15,1
106,0,1,16,1,16,1,-8,1,-8,1,16,1,-3,1,-8,1,-2,1,-11,1,-23,1,-17,1
107,0,1,16,1,16,1,-8,1,-8,1,16,1,-4,1,-8,1,-3,1,-11,1,-23,1,-18,1
108,2,1,17,1,15,1,-9,1,-6,1,16,1,-4,1,-9,1,-4,1,-11,1,-23,1,-18,1
109,3,1,18,1,15,1,-10,1,-6,1,17,1,-5,1,-9,1,-4,1,-11,1,-24,1,-18,1
110,2,1,19,1,17,1,-10,1,-7,1,18,1,-5,1,-9,1,-5,1,-12,1,-24,1,-18,1
111,2,1,18,1,16,1,-10,1,-7,1,17,1,-5,1,-10,1,-5,1,-12,1,-23,1,-17,1
112,3,1,19,1,16,1,-11,1,-6,1,18,1,-4,1,-10,1,-5,1,-12,1,-23,1,-17,1
113,4,1,19,1,15,1,-11,1,-5,1,17,1,-4,1,-10,1,-5,1,-12,1,-23,1,-17,1
114,4,1,18,1,14,1,-11,1,-5,1,16,1,-4,1,-9,1,-5,1,-12,1,-22,1,-17,1
115,4,1,17,1,13,1,-10,1,-4,1,15,1,-4,1,-9,1,-5,1,-12,1,-23,1,-17,1
116,4,1,17,1,13,1,-10,1,-4,1,15,1,-5,1,-9,1,-4,1,-12,1,-23,1,-17,1
117,4,1,16,1,12,1,-10,1,-4,1,14,1,-5,1,-8,1,-4,1,-11,1,-24,1,-17,1
118,3,1,15,1,12,1,-9,1,-4,1,14,1,-6,1,-8,1,-4,1,-11,1,-24,1,-17,1
119,0,1,12,1,12,1,-6,1,-6,1,12,1,-6,1,-9,1,-5,1,-11,1,-25,1,-17,1
120,-1,1,11,1,12,1,-5,1,-6,1,11,1,-5,1,-9,1,-4,1,-11,1,-25,1,-17,1
121,0,1,13,1,13,1,-6,1,-6,1,13,1,-4,1,-9,1,-5,1,-11,1,-24,1,-17,1
122,1,1,15,1,14,1,-8,1,-6,1,15,1,-3,1,-9,1,-5,1,-11,1,-23,1,-17,1
123,2,1,15,1,13,1,-8,1,-5,1,14,1,-3,1,-8,1,-5,1,-12,1,-22,1,-17,1
124,4,1,17,1,13,1,-10,1,-4,1,15,1,-2,1,-8,1,-4,1,-12,1,-21,1,-18,1
125,3,1,15,1,12,1,-9,1,-4,1,14,1,-3,1,-7,1,-4,1,-12,1,-21,1,-19,1
126,3,1,13,1,10,1,-8,1,-3,1,12,1,-2,1,-6,1,-3,1,-13,1,-21,1,-19,1
127,3,1,11,1,8,1,-7,1,-2,1,10,1,-1,1,-4,1,-2,1,-13,1,-21,1,-19,1
128,2,1,9,1,7,1,-5,1,-2,1,8,1,0,1,-2,1,-2,1,-13,1,-22,1,-20,1
129,2,1,9,1,7,1,-5,1,-2,1,8,1,4,1,1,1,0,1,-13,1,-22,1,-20,1
130,1,1,9,1,8,1,-5,1,-3,1,9,1,7,1,6,1,3,1,-11,1,-22,1,-21,1
131,4,1,12,1,8,1,-8,1,-2,1,10,1,10,1,14,1,8,1,-8,1,-20,1,-20,1
132,6,1,14,1,8,1,-10,1,-1,1,11,1,14,1,23,1,14,1,-4,1,-18,1,-19,1
133,8,1,15,1,7,1,-11,1,1,1,11,1,18,1,35,1,21,1,1,1,-15,1,-18,1
134,14,1,18,1,4,1,-16,1,5,1,11,1,23,1,49,1,33,1,10,1,-8,1,-14,1
135,17,1,17,1,0,1,-17,1,9,1,9,1,31,1,66,1,47,1,21,1,0,1,-9,1
136,22,1,18,1,-4,1,-20,1,13,1,7,1,42,1,88,1,65,1,38,1,12,1,-1,1
137,30,1,21,1,-9,1,-25,1,20,1,6,1,54,1,114,1,90,1,60,1,30,1,12,1
138,42,1,25,1,-17,1,-33,1,30,1,4,1,67,1,142,1,117,1,84,1,52,1,27,1
139,53,1,29,1,-24,1,-41,1,39,1,3,1,80,1,170,1,144,1,110,1,74,1,43,1
140,65,1,37,1,-28,1,-51,1,47,1,5,1,88,1,195,1,170,1,135,1,98,1,61,1
141,78,1,49,1,-29,1,-63,1,54,1,10,1,86,1,212,1,193,1,160,1,122,1,80,1
142,92,1,65,1,-27,1,-78,1,60,1,19,1,71,1,220,1,214,1,184,1,146,1,100,1
143,104,1,82,1,-22,1,-93,1,63,1,30,1,46,1,217,1,227,1,204,1,167,1,118,1
144,114,1,100,1,-14,1,-107,1,64,1,43,1,19,1,207,1,235,1,218,1,182,1,135,1
145,118,1,112,1,-6,1,-115,1,62,1,53,1,-5,1,189,1,231,1,219,1,187,1,143,1
146,113,1,113,1,0,1,-113,1,57,1,57,1,-27,1,158,1,209,1,203,1,177,1,142,1
147,107,1,106,1,-1,1,-106,1,54,1,53,1,-50,1,117,1,174,1,174,1,157,1,132,1
148,96,1,94,1,-2,1,-95,1,49,1,46,1,-73,1,72,1,135,1,140,1,130,1,117,1
149,85,1,83,1,-2,1,-84,1,44,1,41,1,-89,1,26,1,94,1,103,1,102,1,99,1
150,70,1,71,1,1,1,-70,1,35,1,36,1,-101,1,-17,1,54,1,66,1,75,1,79,1
151,54,1,61,1,7,1,-57,1,24,1,34,1,-107,1,-52,1,21,1,35,1,50,1,61,1
152,41,1,53,1,12,1,-47,1,15,1,33,1,-106,1,-71,1,-1,1,14,1,30,1,45,1
153,32,1,47,1,15,1,-39,1,9,1,31,1,-99,1,-76,1,-14,1,0,1,15,1,31,1
154,27,1,41,1,14,1,-34,1,7,1,28,1,-87,1,-72,1,-20,1,-8,1,3,1,19,1
155,24,1,36,1,12,1,-30,1,6,1,24,1,-74,1,-66,1,-22,1,-13,1,-6,1,10,1
156,21,1,31,1,10,1,-26,1,6,1,21,1,-63,1,-58,1,-21,1,-15,1,-10,1,4,1
157,18,1,29,1,11,1,-23,1,4,1,20,1,-52,1,-50,1,-17,1,-14,1,-12,1,1,1
158,16,1,26,1,10,1,-21,1,3,1,18,1,-43,1,-42,1,-12,1,-12,1,-11,1,-1,1
159,14,1,25,1,11,1,-19,1,2,1,18,1,-35,1,-34,1,-8,1,-12,1,-10,1,-2,1
160,11,1,23,1,12,1,-17,1,0,1,18,1,-29,1,-27,1,-4,1,-11,1,-10,1,-4,1
161,9,1,21,1,12,1,-15,1,-1,1,17,1,-24,1,-20,1,-1,1,-11,1,-10,1,-6,1
162,9,1,21,1,12,1,-15,1,-1,1,17,1,-19,1,-13,1,0,1,-10,1,-11,1,-7,1
163,10,1,19,1,9,1,-14,1,1,1,14,1,-14,1,-9,1,0,1,-9,1,-12,1,-9,1
164,8,1,17,1,9,1,-12,1,0,1,13,1,-11,1,-5,1,0,1,-9,1,-14,1,-11,1
165,6,1,16,1,10,1,-11,1,-2,1,13,1,-8,1,-4,1,-1,1,-9,1,-16,1,-13,1
166,5,1,15,1,10,1,-10,1,-2,1,13,1,-6,1,-3,1,-1,1,-10,1,-17,1,-13,1
167,5,1,15,1,10,1,-10,1,-2,1,13,1,-5,1,-3,1,0,1,-10,1,-17,1,-13,1
168,6,1,16,1,10,1,-11,1,-2,1,13,1,-5,1,-4,1,0,1,-10,1,-17,1,-13,1
169,7,1,16,1,9,1,-11,1,-1,1,13,1,-4,1,-4,1,1,1,-11,1,-17,1,-14,1
170,6,1,16,1,10,1,-11,1,-2,1,13,1,-4,1,-4,1,1,1,-12,1,-17,1,-14,1
171,6,1,15,1,9,1,-10,1,-1,1,12,1,-4,1,-3,1,0,1,-13,1,-18,1,-15,1
172,6,1,15,1,9,1,-10,1,-1,1,12,1,-4,1,-2,1,-1,1,-15,1,-19,1,-16,1
173,4,1,13,1,9,1,-8,1,-2,1,11,1,-3,1,-1,1,-1,1,-15,1,-19,1,-17,1
174,3,1,11,1,8,1,-7,1,-2,1,10,1,-3,1,-1,1,-2,1,-15,1,-20,1,-18,1
175,3,1,12,1,9,1,-7,1,-3,1,11,1,-2,1,0,1,-1,1,-14,1,-19,1,-17,1
176,4,1,12,1,8,1,-8,1,-2,1,10,1,-1,1,1,1,0,1,-14,1,-19,1,-16,1
177,6,1,14,1,8,1,-10,1,-1,1,11,1,-1,1,1,1,0,1,-13,1,-18,1,-16,1
178,5,1,14,1,9,1,-9,1,-2,1,12,1,-1,1,-1,1,0,1,-14,1,-18,1,-16,1
179,2,1,12,1,10,1,-7,1,-4,1,11,1,-1,1,-2,1,-1,1,-15,1,-20,1,-17,1
180,0,1,10,1,10,1,-5,1,-5,1,10,1,-2,1,-2,1,-2,1,-16,1,-21,1,-19,1
181,3,1,12,1,9,1,-7,1,-3,1,11,1,0,1,-1,1,-1,1,-15,1,-20,1,-18,1
182,6,1,14,1,8,1,-10,1,-1,1,11,1,0,1,0,1,-1,1,-15,1,-20,1,-17,1
183,5,1,14,1,9,1,-9,1,-2,1,12,1,0,1,1,1,-1,1,-15,1,-19,1,-17,1
184,2,1,11,1,9,1,-6,1,-3,1,10,1,-1,1,0,1,-1,1,-16,1,-20,1,-18,1
185,3,1,11,1,8,1,-7,1,-2,1,10,1,0,1,0,1,-1,1,-17,1,-20,1,-18,1
186,4,1,12,1,8,1,-8,1,-2,1,10,1,0,1,1,1,-1,1,-17,1,-20,1,-18,1
187,4,1,11,1,7,1,-7,1,-1,1,9,1,-1,1,1,1,-1,1,-17,1,-20,1,-19,1
188,5,1,11,1,6,1,-8,1,0,1,9,1,0,1,2,1,-1,1,-17,1,-20,1,-19,1
189,5,1,11,1,6,1,-8,1,0,1,9,1,0,1,2,1,-1,1,-16,1,-19,1,-19,1
190,5,1,10,1,5,1,-7,1,0,1,8,1,0,1,3,1,-1,1,-15,1,-19,1,-18,1
191,5,1,10,1,5,1,-7,1,0,1,8,1,0,1,3,1,0,1,-14,1,-19,1,-17,1
192,7,1,11,1,4,1,-9,1,2,1,8,1,1,1,3,1,0,1,-13,1,-18,1,-17,1
193,7,1,12,1,5,1,-9,1,1,1,9,1,2,1,4,1,0,1,-13,1,-19,1,-16,1
194,6,1,12,1,6,1,-9,1,0,1,9,1,1,1,2,1,0,1,-13,1,-19,1,-16,1
195,4,1,10,1,6,1,-7,1,-1,1,8,1,1,1,2,1,-1,1,-14,1,-20,1,-17,1
196,4,1,11,1,7,1,-7,1,-1,1,9,1,1,1,2,1,-1,1,-14,1,-20,1,-17,1
197,5,1,11,1,6,1,-8,1,0,1,9,1,1,1,2,1,-1,1,-14,1,-19,1,-18,1
198,4,1,10,1,6,1,-7,1,-1,1,8,1,1,1,2,1,0,1,-14,1,-19,1,-19,1
199,4,1,9,1,5,1,-6,1,0,1,7,1,1,1,3,1,0,1,-14,1,-20,1,-19,1
200,4,1,9,1,5,1,-6,1,0,1,7,1,1,1,1,1,0,1,-14,1,-20,1,-19,1
201,4,1,9,1,5,1,-6,1,0,1,7,1,1,1,1,1,0,1,-14,1,-20,1,-18,1
202,2,1,7,1,5,1,-4,1,-1,1,6,1,1,1,1,1,0,1,-14,1,-20,1,-18,1
203,3,1,8,1,5,1,-5,1,-1,1,7,1,2,1,2,1,0,1,-14,1,-20,1,-17,1
204,3,1,7,1,4,1,-5,1,0,1,6,1,1,1,2,1,0,1,-14,1,-20,1,-17,1
205,2,1,6,1,4,1,-4,1,-1,1,5,1,0,1,1,1,0,1,-15,1,-22,1,-19,1
206,4,1,7,1,3,1,-5,1,1,1,5,1,0,1,1,1,0,1,-14,1,-22,1,-19,1
207,3,1,7,1,4,1,-5,1,0,1,6,1,0,1,2,1,0,1,-13,1,-21,1,-19,1
208,3,1,7,1,4,1,-5,1,0,1,6,1,0,1,2,1,0,1,-12,1,-20,1,-19,1
209,2,1,7,1,5,1,-4,1,-1,1,6,1,0,1,2,1,-1,1,-12,1,-20,1,-19,1
210,0,1,5,1,5,1,-2,1,-2,1,5,1,-1,1,2,1,-1,1,-12,1,-20,1,-19,1
211,0,1,4,1,4,1,-2,1,-2,1,4,1,-1,1,2,1,-2,1,-13,1,-20,1,-19,1
212,2,1,4,1,2,1,-3,1,0,1,3,1,0,1,3,1,-2,1,-13,1,-19,1,-18,1
213,3,1,4,1,1,1,-3,1,1,1,3,1,0,1,4,1,-2,1,-14,1,-19,1,-18,1
214,3,1,4,1,1,1,-3,1,1,1,3,1,0,1,5,1,-1,1,-14,1,-19,1,-18,1
215,4,1,5,1,1,1,-4,1,2,1,3,1,1,1,5,1,0,1,-14,1,-18,1,-18,1
216,2,1,5,1,3,1,-3,1,0,1,4,1,0,1,5,1,-1,1,-14,1,-19,1,-18,1
217,1,1,3,1,2,1,-2,1,0,1,3,1,-1,1,4,1,-1,1,-14,1,-19,1,-19,1
218,1,1,3,1,2,1,-2,1,0,1,3,1,-1,1,5,1,-1,1,-14,1,-19,1,-19,1
219,0,1,2,1,2,1,-1,1,-1,1,2,1,-1,1,5,1,-1,1,-14,1,-19,1,-20,1
220,0,1,0,1,0,1,0,1,0,1,0,1,-1,1,5,1,-2,1,-15,1,-18,1,-20,1
221,-4,1,-3,1,1,1,3,1,-3,1,-1,1,-1,1,5,1,-2,1,-16,1,-18,1,-19,1
222,0,1,1,1,1,1,0,1,0,1,1,1,0,1,6,1,0,1,-14,1,-16,1,-17,1
223,1,1,4,1,3,1,-2,1,-1,1,4,1,1,1,6,1,1,1,-14,1,-16,1,-16,1
224,1,1,4,1,3,1,-2,1,-1,1,4,1,1,1,7,1,1,1,-15,1,-16,1,-15,1
225,1,1,4,1,3,1,-2,1,-1,1,4,1,0,1,8,1,1,1,-15,1,-16,1,-16,1
226,1,1,4,1,3,1,-2,1,-1,1,4,1,0,1,8,1,1,1,-15,1,-16,1,-16,1
227,3,1,6,1,3,1,-4,1,0,1,5,1,0,1,8,1,0,1,-14,1,-16,1,-17,1
228,3,1,5,1,2,1,-4,1,1,1,4,1,0,1,8,1,0,1,-14,1,-15,1,-16,1
229,0,1,1,1,1,1,0,1,0,1,1,1,-1,1,8,1,0,1,-15,1,-16,1,-17,1
230,-1,1,0,1,1,1,0,1,-1,1,0,1,-1,1,8,1,1,1,-15,1,-16,1,-16,1
231,-1,1,0,1,1,1,0,1,-1,1,0,1,-1,1,8,1,1,1,-16,1,-16,1,-16,1
232,0,1,0,1,0,1,0,1,0,1,0,1,-1,1,8,1,2,1,-14,1,-15,1,-15,1
233,-1,1,-1,1,0,1,1,1,-1,1,-1,1,-1,1,7,1,2,1,-14,1,-15,1,-15,1
234,-1,1,-2,1,-1,1,1,1,0,1,-2,1,-2,1,7,1,2,1,-13,1,-16,1,-16,1
235,-1,1,-1,1,0,1,1,1,-1,1,-1,1,-1,1,7,1,2,1,-12,1,-15,1,-16,1
236,-1,1,0,1,1,1,0,1,-1,1,0,1,-1,1,8,1,1,1,-11,1,-15,1,-16,1
237,0,1,1,1,1,1,0,1,0,1,1,1,-1,1,9,1,2,1,-10,1,-14,1,-15,1
238,1,1,3,1,2,1,-2,1,0,1,3,1,0,1,10,1,2,1,-9,1,-13,1,-14,1
239,1,1,3,1,2,1,-2,1,0,1,3,1,0,1,10,1,3,1,-9,1,-12,1,-14,1
240,2,1,3,1,1,1,-2,1,1,1,2,1,1,1,11,1,3,1,-8,1,-12,1,-13,1
241,1,1,1,1,0,1,-1,1,1,1,1,1,1,1,11,1,3,1,-8,1,-12,1,-14,1
242,0,1,0,1,0,1,0,1,0,1,0,1,0,1,11,1,3,1,-7,1,-14,1,-14,1
243,1,1,1,1,0,1,-1,1,1,1,1,1,0,1,11,1,3,1,-6,1,-13,1,-14,1
244,2,1,2,1,0,1,-2,1,1,1,1,1,0,1,12,1,4,1,-6,1,-13,1,-13,1
245,1,1,1,1,0,1,-1,1,1,1,1,1,0,1,12,1,4,1,-6,1,-13,1,-13,1
246,-1,1,0,1,1,1,0,1,-1,1,0,1,-1,1,12,1,4,1,-6,1,-13,1,-13,1
247,0,1,1,1,1,1,0,1,0,1,1,1,-1,1,13,1,5,1,-5,1,-12,1,-12,1
248,0,1,2,1,2,1,-1,1,-1,1,2,1,0,1,14,1,6,1,-4,1,-11,1,-10,1
249,0,1,1,1,1,1,0,1,0,1,1,1,0,1,14,1,7,1,-4,1,-10,1,-10,1
250,1,1,1,1,0,1,-1,1,1,1,1,1,0,1,14,1,7,1,-5,1,-10,1,-10,1
251,2,1,1,1,-1,1,-1,1,2,1,0,1,0,1,14,1,6,1,-5,1,-10,1,-10,1
252,2,1,0,1,-2,1,-1,1,2,1,-1,1,0,1,13,1,6,1,-5,1,-10,1,-12,1
253,4,1,1,1,-3,1,-2,1,4,1,-1,1,1,1,14,1,6,1,-5,1,-10,1,-12,1
254,4,1,2,1,-2,1,-3,1,3,1,0,1,1,1,14,1,6,1,-4,1,-10,1,-11,1
255,5,1,3,1,-2,1,-4,1,4,1,1,1,2,1,15,1,7,1,-3,1,-9,1,-10,1
256,6,1,4,1,-2,1,-5,1,4,1,1,1,2,1,16,1,7,1,-3,1,-9,1,-10,1
257,5,1,5,1,0,1,-5,1,3,1,3,1,2,1,16,1,7,1,-3,1,-8,1,-9,1
258,4,1,5,1,1,1,-4,1,2,1,3,1,2,1,17,1,7,1,-3,1,-7,1,-9,1
259,4,1,4,1,0,1,-4,1,2,1,2,1,1,1,17,1,6,1,-4,1,-7,1,-9,1
260,5,1,5,1,0,1,-5,1,3,1,3,1,1,1,16,1,6,1,-5,1,-7,1,-9,1
261,5,1,6,1,1,1,-5,1,2,1,4,1,1,1,17,1,7,1,-5,1,-6,1,-8,1
262,5,1,6,1,1,1,-5,1,2,1,4,1,1,1,16,1,7,1,-5,1,-6,1,-7,1
263,5,1,4,1,-1,1,-4,1,3,1,2,1,1,1,15,1,7,1,-5,1,-7,1,-8,1
264,4,1,4,1,0,1,-4,1,2,1,2,1,1,1,15,1,7,1,-5,1,-6,1,-8,1
265,5,1,3,1,-2,1,-4,1,4,1,1,1,1,1,15,1,7,1,-5,1,-7,1,-8,1
266,5,1,3,1,-2,1,-4,1,4,1,1,1,1,1,15,1,7,1,-5,1,-7,1,-7,1
267,7,1,4,1,-3,1,-5,1,5,1,1,1,1,1,14,1,7,1,-5,1,-7,1,-6,1
268,7,1,5,1,-2,1,-6,1,5,1,2,1,2,1,15,1,8,1,-4,1,-6,1,-4,1
269,4,1,4,1,0,1,-4,1,2,1,2,1,2,1,14,1,8,1,-4,1,-7,1,-3,1
270,2,1,4,1,2,1,-3,1,0,1,3,1,2,1,14,1,7,1,-3,1,-6,1,-3,1
271,2,1,4,1,2,1,-3,1,0,1,3,1,1,1,14,1,6,1,-4,1,-6,1,-3,1
272,5,1,7,1,2,1,-6,1,2,1,5,1,1,1,14,1,6,1,-4,1,-6,1,-2,1
273,7,1,8,1,1,1,-7,1,3,1,5,1,1,1,14,1,6,1,-4,1,-5,1,-2,1
274,7,1,10,1,3,1,-8,1,2,1,7,1,1,1,14,1,7,1,-4,1,-4,1,-2,1
275,10,1,12,1,2,1,-11,1,4,1,7,1,1,1,13,1,7,1,-4,1,-4,1,-2,1
276,8,1,10,1,2,1,-9,1,3,1,6,1,0,1,12,1,6,1,-4,1,-4,1,-3,1
277,6,1,7,1,1,1,-6,1,3,1,4,1,-1,1,10,1,5,1,-6,1,-6,1,-4,1
278,4,1,6,1,2,1,-5,1,1,1,4,1,-2,1,10,1,5,1,-5,1,-5,1,-3,1
279,5,1,8,1,3,1,-6,1,1,1,6,1,-1,1,10,1,5,1,-4,1,-4,1,-1,1
280,5,1,9,1,4,1,-7,1,1,1,7,1,-1,1,10,1,5,1,-3,1,-3,1,-1,1
281,5,1,8,1,3,1,-6,1,1,1,6,1,-2,1,9,1,4,1,-4,1,-4,1,-1,1
282,5,1,9,1,4,1,-7,1,1,1,7,1,-2,1,9,1,4,1,-4,1,-3,1,-1,1
283,5,1,9,1,4,1,-7,1,1,1,7,1,-2,1,8,1,3,1,-4,1,-3,1,-1,1
284,2,1,6,1,4,1,-4,1,-1,1,5,1,-3,1,6,1,2,1,-5,1,-5,1,-2,1
285,3,1,7,1,4,1,-5,1,0,1,6,1,-3,1,6,1,2,1,-5,1,-4,1,-2,1
286,5,1,9,1,4,1,-7,1,1,1,7,1,-2,1,7,1,3,1,-4,1,-3,1,-1,1
287,4,1,6,1,2,1,-5,1,1,1,4,1,-3,1,6,1,2,1,-4,1,-3,1,-1,1
288,3,1,6,1,3,1,-4,1,0,1,5,1,-2,1,6,1,1,1,-4,1,-3,1,-1,1
289,3,1,7,1,4,1,-5,1,0,1,6,1,-2,1,6,1,1,1,-4,1,-2,1,0,1
290,3,1,8,1,5,1,-5,1,-1,1,7,1,-2,1,5,1,1,1,-4,1,-2,1,1,1
291,5,1,10,1,5,1,-7,1,0,1,8,1,-2,1,5,1,1,1,-4,1,0,1,2,1
292,7,1,12,1,5,1,-9,1,1,1,9,1,-2,1,4,1,1,1,-4,1,0,1,3,1
293,8,1,12,1,4,1,-10,1,2,1,8,1,-2,1,4,1,1,1,-4,1,1,1,4,1
294,6,1,11,1,5,1,-8,1,1,1,8,1,-2,1,3,1,2,1,-5,1,1,1,4,1
295,4,1,10,1,6,1,-7,1,-1,1,8,1,-3,1,2,1,2,1,-5,1,1,1,3,1
296,1,1,8,1,7,1,-4,1,-3,1,8,1,-3,1,1,1,2,1,-5,1,0,1,3,1
297,1,1,9,1,8,1,-5,1,-3,1,9,1,-3,1,1,1,2,1,-4,1,0,1,3,1
298,1,1,10,1,9,1,-5,1,-4,1,10,1,-3,1,2,1,3,1,-3,1,1,1,3,1
299,0,1,9,1,9,1,-4,1,-4,1,9,1,-3,1,2,1,3,1,-3,1,0,1,3,1
300,-4,1,6,1,10,1,-1,1,-7,1,8,1,-5,1,1,1,2,1,-4,1,-1,1,2,1
301,-2,1,7,1,9,1,-2,1,-5,1,8,1,-4,1,1,1,2,1,-2,1,0,1,2,1
302,0,1,9,1,9,1,-4,1,-4,1,9,1,-4,1,1,1,3,1,-1,1,0,1,2,1
303,0,1,9,1,9,1,-4,1,-4,1,9,1,-3,1,2,1,4,1,-1,1,1,1,2,1
304,-1,1,9,1,10,1,-4,1,-5,1,9,1,-3,1,2,1,5,1,-1,1,1,1,1,1
305,-2,1,8,1,10,1,-3,1,-6,1,9,1,-3,1,3,1,5,1,-1,1,1,1,1,1
306,-2,1,8,1,10,1,-3,1,-6,1,9,1,-3,1,3,1,6,1,-1,1,1,1,0,1
307,-2,1,8,1,10,1,-3,1,-6,1,9,1,-3,1,4,1,6,1,-2,1,0,1,0,1
308,-1,1,7,1,8,1,-3,1,-4,1,7,1,-3,1,4,1,7,1,-2,1,0,1,0,1
309,-1,1,7,1,8,1,-3,1,-4,1,7,1,-3,1,5,1,8,1,-2,1,0,1,0,1
310,-1,1,7,1,8,1,-3,1,-4,1,7,1,-3,1,5,1,9,1,-2,1,0,1,0,1
311,-1,1,7,1,8,1,-3,1,-4,1,7,1,-3,1,5,1,9,1,-2,1,0,1,0,1
312,-2,1,7,1,9,1,-2,1,-5,1,8,1,-3,1,5,1,9,1,-2,1,0,1,-1,1
313,-4,1,6,1,10,1,-1,1,-7,1,8,1,-3,1,5,1,9,1,-3,1,0,1,-1,1
314,-5,1,5,1,10,1,0,1,-7,1,7,1,-3,1,4,1,9,1,-3,1,0,1,-2,1
315,-4,1,6,1,10,1,-1,1,-7,1,8,1,-3,1,4,1,9,1,-4,1,0,1,-2,1
316,-7,1,4,1,11,1,1,1,-9,1,7,1,-3,1,4,1,9,1,-4,1,0,1,-3,1
317,-10,1,2,1,12,1,4,1,-11,1,7,1,-4,1,4,1,8,1,-5,1,0,1,-4,1
318,-10,1,1,1,11,1,4,1,-10,1,6,1,-3,1,4,1,8,1,-5,1,0,1,-5,1
319,-7,1,4,1,11,1,1,1,-9,1,7,1,-2,1,4,1,8,1,-4,1,0,1,-3,1
320,-6,1,5,1,11,1,0,1,-8,1,8,1,-1,1,4,1,8,1,-3,1,0,1,-3,1
321,-7,1,4,1,11,1,1,1,-9,1,7,1,-1,1,4,1,8,1,-3,1,0,1,-3,1
322,-8,1,4,1,12,1,2,1,-10,1,8,1,-2,1,3,1,8,1,-4,1,-3,1,-5,1
323,-8,1,3,1,11,1,2,1,-9,1,7,1,-3,1,2,1,8,1,-4,1,-4,1,-5,1
324,-10,1,1,1,11,1,4,1,-10,1,6,1,-4,1,1,1,7,1,-5,1,-5,1,-6,1
325,-10,1,1,1,11,1,4,1,-10,1,6,1,-4,1,1,1,8,1,-6,1,-5,1,-6,1
326,-9,1,2,1,11,1,3,1,-10,1,6,1,-5,1,1,1,8,1,-7,1,-4,1,-6,1
327,-9,1,1,1,10,1,4,1,-9,1,5,1,-5,1,1,1,8,1,-8,1,-4,1,-7,1
328,-11,1,0,1,11,1,5,1,-11,1,5,1,-5,1,1,1,7,1,-8,1,-5,1,-7,1
329,-14,1,-2,1,12,1,8,1,-13,1,5,1,-6,1,1,1,7,1,-9,1,-5,1,-8,1
330,-15,1,-2,1,13,1,8,1,-14,1,5,1,-5,1,1,1,7,1,-8,1,-5,1,-7,1
331,-14,1,-1,1,13,1,7,1,-14,1,6,1,-4,1,2,1,7,1,-8,1,-5,1,-6,1
332,-13,1,-1,1,12,1,7,1,-13,1,5,1,-4,1,3,1,6,1,-8,1,-5,1,-6,1
333,-13,1,-1,1,12,1,7,1,-13,1,5,1,-5,1,3,1,5,1,-9,1,-7,1,-7,1
334,-12,1,0,1,12,1,6,1,-12,1,6,1,-4,1,3,1,5,1,-9,1,-7,1,-7,1
335,-12,1,1,1,13,1,5,1,-12,1,7,1,-4,1,3,1,5,1,-9,1,-7,1,-7,1
336,-13,1,0,1,13,1,6,1,-13,1,6,1,-4,1,2,1,5,1,-10,1,-7,1,-7,1
337,-13,1,1,1,14,1,6,1,-13,1,7,1,-4,1,1,1,5,1,-10,1,-7,1,-7,1
338,-13,1,0,1,13,1,6,1,-13,1,6,1,-4,1,1,1,5,1,-10,1,-7,1,-7,1
339,-15,1,-2,1,13,1,8,1,-14,1,5,1,-4,1,1,1,5,1,-10,1,-7,1,-7,1
340,-12,1,-1,1,11,1,6,1,-12,1,5,1,-4,1,1,1,5,1,-10,1,-5,1,-6,1
341,-11,1,-2,1,9,1,6,1,-10,1,3,1,-4,1,1,1,5,1,-10,1,-5,1,-6,1
342,-11,1,-2,1,9,1,6,1,-10,1,3,1,-4,1,1,1,5,1,-11,1,-5,1,-7,1
343,-11,1,-1,1,10,1,6,1,-11,1,4,1,-4,1,1,1,5,1,-12,1,-5,1,-7,1
344,-12,1,-1,1,11,1,6,1,-12,1,5,1,-4,1,2,1,4,1,-12,1,-6,1,-7,1
345,-12,1,-1,1,11,1,6,1,-12,1,5,1,-4,1,2,1,4,1,-12,1,-6,1,-6,1
346,-13,1,-1,1,12,1,7,1,-13,1,5,1,-4,1,1,1,4,1,-12,1,-6,1,-7,1
347,-14,1,-2,1,12,1,8,1,-13,1,5,1,-5,1,1,1,4,1,-12,1,-6,1,-8,1
348,-13,1,-1,1,12,1,7,1,-13,1,5,1,-4,1,2,1,4,1,-12,1,-5,1,-8,1
349,-12,1,0,1,12,1,6,1,-12,1,6,1,-4,1,2,1,4,1,-12,1,-5,1,-8,1
350,-13,1,-1,1,12,1,7,1,-13,1,5,1,-5,1,2,1,4,1,-12,1,-5,1,-8,1
351,-12,1,-1,1,11,1,6,1,-12,1,5,1,-5,1,2,1,4,1,-12,1,-4,1,-8,1
352,-11,1,-1,1,10,1,6,1,-11,1,4,1,-5,1,2,1,4,1,-12,1,-4,1,-8,1
353,-10,1,0,1,10,1,5,1,-10,1,5,1,-5,1,1,1,5,1,-13,1,-4,1,-8,1
354,-10,1,1,1,11,1,4,1,-10,1,6,1,-6,1,2,1,5,1,-13,1,-3,1,-8,1
355,-10,1,2,1,12,1,4,1,-11,1,7,1,-6,1,3,1,5,1,-13,1,-3,1,-7,1
356,-12,1,0,1,12,1,6,1,-12,1,6,1,-7,1,4,1,5,1,-13,1,-4,1,-7,1
357,-13,1,0,1,13,1,6,1,-13,1,6,1,-7,1,4,1,6,1,-13,1,-2,1,-7,1
358,-12,1,2,1,14,1,5,1,-13,1,8,1,-7,1,5,1,6,1,-13,1,-2,1,-6,1
359,-12,1,2,1,14,1,5,1,-13,1,8,1,-7,1,5,1,6,1,-13,1,-2,1,-6,1
360,-11,1,2,1,13,1,4,1,-12,1,7,1,-6,1,4,1,6,1,-12,1,-1,1,-6,1
361,-10,1,2,1,12,1,4,1,-11,1,7,1,-5,1,4,1,6,1,-11,1,-1,1,-6,1
362,-10,1,2,1,12,1,4,1,-11,1,7,1,-5,1,5,1,6,1,-11,1,-1,1,-6,1
363,-11,1,1,1,12,1,5,1,-11,1,6,1,-4,1,5,1,5,1,-11,1,0,1,-6,1
364,-13,1,0,1,13,1,6,1,-13,1,6,1,-5,1,5,1,5,1,-11,1,0,1,-6,1
365,-13,1,0,1,13,1,6,1,-13,1,6,1,-5,1,5,1,5,1,-11,1,0,1,-6,1
366,-14,1,0,1,14,1,7,1,-14,1,7,1,-6,1,5,1,5,1,-11,1,0,1,-6,1
367,-12,1,0,1,12,1,6,1,-12,1,6,1,-6,1,6,1,5,1,-11,1,0,1,-7,1
368,-9,1,2,1,11,1,3,1,-10,1,6,1,-7,1,6,1,5,1,-12,1,0,1,-7,1
369,-9,1,1,1,10,1,4,1,-9,1,5,1,-7,1,5,1,5,1,-12,1,-1,1,-7,1
370,-10,1,1,1,11,1,4,1,-10,1,6,1,-7,1,5,1,5,1,-13,1,-1,1,-6,1
371,-10,1,2,1,12,1,4,1,-11,1,7,1,-7,1,5,1,5,1,-12,1,0,1,-6,1
372,-9,1,2,1,11,1,3,1,-10,1,6,1,-7,1,5,1,5,1,-13,1,0,1,-6,1
373,-8,1,2,1,10,1,3,1,-9,1,6,1,-7,1,5,1,5,1,-12,1,1,1,-5,1
374,-6,1,3,1,9,1,1,1,-7,1,6,1,-6,1,6,1,6,1,-11,1,2,1,-5,1
375,-5,1,4,1,9,1,0,1,-7,1,6,1,-6,1,7,1,7,1,-11,1,2,1,-5,1
376,-7,1,2,1,9,1,2,1,-8,1,5,1,-7,1,7,1,7,1,-11,1,2,1,-6,1
377,-10,1,0,1,10,1,5,1,-10,1,5,1,-8,1,6,1,6,1,-11,1,1,1,-8,1
378,-10,1,0,1,10,1,5,1,-10,1,5,1,-8,1,7,1,6,1,-11,1,0,1,-8,1
379,-10,1,1,1,11,1,4,1,-10,1,6,1,-9,1,7,1,6,1,-11,1,1,1,-8,1
380,-11,1,1,1,12,1,5,1,-11,1,6,1,-9,1,7,1,5,1,-12,1,0,1,-8,1
381,-12,1,0,1,12,1,6,1,-12,1,6,1,-9,1,7,1,4,1,-12,1,0,1,-8,1
382,-11,1,0,1,11,1,5,1,-11,1,5,1,-9,1,7,1,4,1,-12,1,0,1,-7,1
383,-9,1,1,1,10,1,4,1,-9,1,5,1,-8,1,7,1,4,1,-11,1,1,1,-7,1
384,-9,1,0,1,9,1,4,1,-9,1,4,1,-8,1,7,1,5,1,-11,1,1,1,-8,1
385,-9,1,0,1,9,1,4,1,-9,1,4,1,-8,1,6,1,5,1,-11,1,2,1,-8,1
386,-9,1,0,1,9,1,4,1,-9,1,4,1,-8,1,5,1,5,1,-11,1,2,1,-9,1
387,-10,1,0,1,10,1,5,1,-10,1,5,1,-9,1,5,1,5,1,-11,1,1,1,-9,1
388,-10,1,0,1,10,1,5,1,-10,1,5,1,-9,1,5,1,6,1,-11,1,1,1,-8,1
389,-11,1,0,1,11,1,5,1,-11,1,5,1,-9,1,5,1,5,1,-12,1,0,1,-8,1
390,-14,1,-1,1,13,1,7,1,-14,1,6,1,-9,1,5,1,5,1,-12,1,0,1,-8,1
391,-14,1,-1,1,13,1,7,1,-14,1,6,1,-9,1,5,1,4,1,-12,1,0,1,-7,1
392,-15,1,-3,1,12,1,9,1,-14,1,4,1,-10,1,5,1,4,1,-13,1,-1,1,-8,1
393,-12,1,-1,1,11,1,6,1,-12,1,5,1,-10,1,5,1,5,1,-13,1,-1,1,-7,1
394,-9,1,-1,1,8,1,5,1,-9,1,3,1,-10,1,5,1,4,1,-13,1,-1,1,-8,1
395,-6,1,-1,1,5,1,3,1,-6,1,2,1,-11,1,5,1,3,1,-14,1,-1,1,-8,1
396,-6,1,-1,1,5,1,3,1,-6,1,2,1,-11,1,5,1,3,1,-13,1,-1,1,-8,1
397,-7,1,0,1,7,1,3,1,-7,1,3,1,-10,1,5,1,3,1,-13,1,-1,1,-8,1
398,-8,1,-1,1,7,1,4,1,-8,1,3,1,-10,1,4,1,3,1,-13,1,-1,1,-9,1
399,-9,1,0,1,9,1,4,1,-9,1,4,1,-9,1,4,1,3,1,-11,1,0,1,-7,1
400,-9,1,2,1,11,1,3,1,-10,1,6,1,-8,1,4,1,5,1,-11,1,0,1,-7,1
401,-10,1,1,1,11,1,4,1,-10,1,6,1,-8,1,4,1,4,1,-11,1,0,1,-7,1
402,-11,1,1,1,12,1,5,1,-11,1,6,1,-9,1,3,1,4,1,-12,1,-1,1,-8,1
403,-12,1,0,1,12,1,6,1,-12,1,6,1,-9,1,2,1,4,1,-12,1,-1,1,-8,1
404,-11,1,0,1,11,1,5,1,-11,1,5,1,-9,1,2,1,3,1,-13,1,-1,1,-9,1
405,-11,1,-1,1,10,1,6,1,-11,1,4,1,-10,1,1,1,2,1,-13,1,-2,1,-9,1
406,-11,1,-1,1,10,1,6,1,-11,1,4,1,-10,1,1,1,3,1,-13,1,-1,1,-9,1
407,-11,1,-2,1,9,1,6,1,-10,1,3,1,-9,1,1,1,3,1,-12,1,0,1,-8,1
408,-11,1,0,1,11,1,5,1,-11,1,5,1,-9,1,1,1,3,1,-12,1,0,1,-8,1
409,-10,1,0,1,10,1,5,1,-10,1,5,1,-8,1,1,1,3,1,-12,1,0,1,-8,1
410,-12,1,0,1,12,1,6,1,-12,1,6,1,-8,1,1,1,3,1,-12,1,0,1,-9,1
411,-13,1,0,1,13,1,6,1,-13,1,6,1,-8,1,1,1,3,1,-12,1,0,1,-10,1
412,-14,1,-1,1,13,1,7,1,-14,1,6,1,-9,1,1,1,3,1,-14,1,-2,1,-10,1
413,-13,1,-1,1,12,1,7,1,-13,1,5,1,-9,1,1,1,3,1,-14,1,-2,1,-10,1
414,-12,1,-1,1,11,1,6,1,-12,1,5,1,-9,1,1,1,3,1,-14,1,-1,1,-10,1
415,-11,1,-3,1,8,1,7,1,-10,1,2,1,-9,1,0,1,2,1,-14,1,-1,1,-10,1
416,-12,1,-5,1,7,1,8,1,-10,1,1,1,-10,1,0,1,1,1,-15,1,-1,1,-10,1
417,-12,1,-3,1,9,1,7,1,-11,1,3,1,-9,1,0,1,2,1,-14,1,0,1,-9,1
418,-12,1,-2,1,10,1,7,1,-11,1,4,1,-8,1,1,1,2,1,-14,1,1,1,-8,1
419,-12,1,-2,1,10,1,7,1,-11,1,4,1,-8,1,1,1,2,1,-14,1,0,1,-8,1
420,-14,1,-3,1,11,1,8,1,-13,1,4,1,-8,1,0,1,1,1,-15,1,0,1,-8,1
421,-15,1,-4,1,11,1,9,1,-13,1,3,1,-8,1,-1,1,0,1,-15,1,-1,1,-9,1
422,-15,1,-4,1,11,1,9,1,-13,1,3,1,-9,1,-2,1,0,1,-15,1,-1,1,-10,1
423,-14,1,-4,1,10,1,9,1,-12,1,3,1,-9,1,-2,1,-1,1,-15,1,-2,1,-10,1
424,-12,1,-2,1,10,1,7,1,-11,1,4,1,-9,1,-1,1,-1,1,-15,1,-1,1,-10,1
425,-11,1,-1,1,10,1,6,1,-11,1,4,1,-9,1,-1,1,-1,1,-15,1,-1,1,-10,1
426,-12,1,-3,1,9,1,7,1,-11,1,3,1,-10,1,-1,1,-2,1,-16,1,-1,1,-10,1
427,-12,1,-3,1,9,1,7,1,-11,1,3,1,-10,1,-1,1,-2,1,-16,1,-1,1,-9,1
428,-13,1,-3,1,10,1,8,1,-12,1,3,1,-10,1,-1,1,-1,1,-16,1,0,1,-8,1
429,-12,1,-1,1,11,1,6,1,-12,1,5,1,-10,1,0,1,0,1,-15,1,0,1,-7,1
430,-11,1,0,1,11,1,5,1,-11,1,5,1,-9,1,0,1,0,1,-14,1,0,1,-6,1
431,-11,1,0,1,11,1,5,1,-11,1,5,1,-10,1,0,1,0,1,-14,1,0,1,-7,1
432,-12,1,-2,1,10,1,7,1,-11,1,4,1,-10,1,-2,1,-1,1,-14,1,-1,1,-8,1
433,-11,1,-2,1,9,1,6,1,-10,1,3,1,-10,1,-2,1,-1,1,-14,1,-1,1,-8,1
434,-11,1,-3,1,8,1,7,1,-10,1,2,1,-10,1,-2,1,-1,1,-14,1,-2,1,-9,1
435,-9,1,-1,1,8,1,5,1,-9,1,3,1,-9,1,-1,1,-1,1,-14,1,-2,1,-9,1
436,-12,1,-4,1,8,1,8,1,-10,1,2,1,-9,1,-1,1,-2,1,-15,1,-2,1,-8,1
437,-14,1,-7,1,7,1,10,1,-11,1,0,1,-10,1,-2,1,-3,1,-17,1,-3,1,-9,1
438,-14,1,-8,1,6,1,11,1,-10,1,-1,1,-10,1,-3,1,-4,1,-18,1,-4,1,-9,1
439,-15,1,-7,1,8,1,11,1,-12,1,0,1,-10,1,-3,1,-3,1,-18,1,-3,1,-8,1
440,-15,1,-6,1,9,1,10,1,-12,1,1,1,-10,1,-3,1,-3,1,-18,1,-3,1,-7,1
441,-14,1,-5,1,9,1,9,1,-12,1,2,1,-11,1,-3,1,-4,1,-18,1,-4,1,-8,1
442,-14,1,-6,1,8,1,10,1,-11,1,1,1,-12,1,-4,1,-4,1,-19,1,-4,1,-8,1
443,-15,1,-6,1,9,1,10,1,-12,1,1,1,-12,1,-4,1,-5,1,-19,1,-4,1,-8,1
444,-15,1,-7,1,8,1,11,1,-12,1,0,1,-12,1,-4,1,-6,1,-19,1,-4,1,-8,1
445,-15,1,-7,1,8,1,11,1,-12,1,0,1,-11,1,-4,1,-6,1,-18,1,-5,1,-8,1
446,-15,1,-7,1,8,1,11,1,-12,1,0,1,-10,1,-3,1,-6,1,-18,1,-5,1,-7,1
447,-15,1,-6,1,9,1,10,1,-12,1,1,1,-10,1,-2,1,-5,1,-17,1,-5,1,-7,1
448,-14,1,-5,1,9,1,9,1,-12,1,2,1,-10,1,-2,1,-5,1,-17,1,-5,1,-7,1
449,-16,1,-6,1,10,1,11,1,-13,1,2,1,-10,1,-2,1,-5,1,-18,1,-5,1,-8,1
450,-16,1,-7,1,9,1,11,1,-13,1,1,1,-11,1,-3,1,-5,1,-18,1,-5,1,-8,1
451,-16,1,-7,1,9,1,11,1,-13,1,1,1,-12,1,-4,1,-5,1,-18,1,-4,1,-9,1
452,-16,1,-7,1,9,1,11,1,-13,1,1,1,-13,1,-4,1,-5,1,-18,1,-4,1,-10,1
453,-16,1,-7,1,9,1,11,1,-13,1,1,1,-13,1,-4,1,-5,1,-18,1,-4,1,-10,1
454,-16,1,-6,1,10,1,11,1,-13,1,2,1,-13,1,-5,1,-6,1,-18,1,-5,1,-9,1
455,-15,1,-6,1,9,1,10,1,-12,1,1,1,-13,1,-4,1,-6,1,-17,1,-5,1,-9,1
456,-14,1,-6,1,8,1,10,1,-11,1,1,1,-12,1,-4,1,-6,1,-17,1,-5,1,-9,1
457,-14,1,-7,1,7,1,10,1,-11,1,0,1,-12,1,-5,1,-6,1,-17,1,-5,1,-10,1
458,-16,1,-8,1,8,1,12,1,-12,1,0,1,-12,1,-5,1,-6,1,-18,1,-4,1,-11,1
459,-15,1,-7,1,8,1,11,1,-12,1,0,1,-10,1,-3,1,-5,1,-17,1,-4,1,-9,1
460,-14,1,-4,1,10,1,9,1,-12,1,3,1,-9,1,-1,1,-4,1,-16,1,-2,1,-8,1
461,-13,1,-4,1,9,1,8,1,-11,1,2,1,-9,1,-1,1,-4,1,-16,1,-1,1,-8,1
462,-12,1,-3,1,9,1,7,1,-11,1,3,1,-8,1,-1,1,-4,1,-16,1,-1,1,-7,1
463,-11,1,-2,1,9,1,6,1,-10,1,3,1,-8,1,0,1,-4,1,-15,1,-1,1,-7,1
464,-11,1,-2,1,9,1,6,1,-10,1,3,1,-8,1,-1,1,-4,1,-15,1,-2,1,-7,1
465,-12,1,-4,1,8,1,8,1,-10,1,2,1,-9,1,-1,1,-5,1,-15,1,-2,1,-7,1
466,-13,1,-4,1,9,1,8,1,-11,1,2,1,-9,1,-2,1,-5,1,-15,1,-2,1,-8,1
467,-16,1,-8,1,8,1,12,1,-12,1,0,1,-10,1,-3,1,-5,1,-16,1,-4,1,-8,1
468,-20,1,-11,1,9,1,15,1,-15,1,-1,1,-11,1,-4,1,-6,1,-18,1,-5,1,-10,1
469,-18,1,-9,1,9,1,13,1,-14,1,0,1,-10,1,-3,1,-5,1,-18,1,-4,1,-9,1
470,-15,1,-6,1,9,1,10,1,-12,1,1,1,-9,1,-2,1,-4,1,-17,1,-3,1,-9,1
471,-13,1,-4,1,9,1,8,1,-11,1,2,1,-9,1,-2,1,-4,1,-18,1,-4,1,-9,1
472,-13,1,-4,1,9,1,8,1,-11,1,2,1,-9,1,-2,1,-4,1,-18,1,-4,1,-9,1
473,-13,1,-4,1,9,1,8,1,-11,1,2,1,-9,1,-2,1,-5,1,-19,1,-4,1,-9,1
474,-13,1,-4,1,9,1,8,1,-11,1,2,1,-9,1,-1,1,-5,1,-19,1,-4,1,-8,1
475,-13,1,-4,1,9,1,8,1,-11,1,2,1,-9,1,0,1,-5,1,-18,1,-3,1,-8,1
476,-14,1,-5,1,9,1,9,1,-12,1,2,1,-8,1,0,1,-5,1,-17,1,-4,1,-7,1
477,-16,1,-6,1,10,1,11,1,-13,1,2,1,-8,1,1,1,-5,1,-17,1,-4,1,-7,1
478,-18,1,-7,1,11,1,12,1,-15,1,2,1,-8,1,0,1,-5,1,-17,1,-5,1,-7,1
479,-17,1,-9,1,8,1,13,1,-13,1,-1,1,-8,1,0,1,-6,1,-16,1,-5,1,-7,1
480,-15,1,-7,1,8,1,11,1,-12,1,0,1,-8,1,0,1,-6,1,-16,1,-6,1,-7,1
481,-13,1,-7,1,6,1,10,1,-10,1,-1,1,-9,1,-1,1,-6,1,-16,1,-6,1,-7,1
482,-13,1,-8,1,5,1,10,1,-9,1,-2,1,-9,1,-2,1,-7,1,-16,1,-6,1,-8,1
483,-13,1,-7,1,6,1,10,1,-10,1,-1,1,-10,1,-2,1,-7,1,-17,1,-5,1,-8,1
484,-11,1,-6,1,5,1,8,1,-8,1,-1,1,-10,1,-2,1,-7,1,-17,1,-5,1,-7,1
485,-10,1,-4,1,6,1,7,1,-8,1,1,1,-10,1,-2,1,-7,1,-17,1,-5,1,-7,1
486,-11,1,-4,1,7,1,7,1,-9,1,1,1,-10,1,-2,1,-7,1,-17,1,-5,1,-7,1
487,-12,1,-4,1,8,1,8,1,-10,1,2,1,-10,1,-2,1,-7,1,-17,1,-5,1,-7,1
488,-14,1,-5,1,9,1,9,1,-12,1,2,1,-11,1,-2,1,-7,1,-19,1,-5,1,-7,1
489,-14,1,-5,1,9,1,9,1,-12,1,2,1,-11,1,-2,1,-7,1,-19,1,-4,1,-7,1
490,-13,1,-4,1,9,1,8,1,-11,1,2,1,-10,1,-1,1,-7,1,-19,1,-4,1,-7,1
491,-11,1,-3,1,8,1,7,1,-10,1,2,1,-9,1,-1,1,-6,1,-19,1,-4,1,-7,1
492,-14,1,-5,1,9,1,9,1,-12,1,2,1,-10,1,-1,1,-7,1,-19,1,-5,1,-8,1
493,-16,1,-4,1,12,1,10,1,-14,1,4,1,-9,1,-1,1,-7,1,-19,1,-6,1,-9,1
494,-16,1,-4,1,12,1,10,1,-14,1,4,1,-9,1,0,1,-7,1,-19,1,-6,1,-10,1
495,-16,1,-5,1,11,1,10,1,-14,1,3,1,-10,1,0,1,-8,1,-19,1,-7,1,-11,1
496,-14,1,-4,1,10,1,9,1,-12,1,3,1,-10,1,0,1,-8,1,-18,1,-6,1,-10,1
497,-14,1,-4,1,10,1,9,1,-12,1,3,1,-10,1,0,1,-8,1,-17,1,-6,1,-10,1
498,-14,1,-4,1,10,1,9,1,-12,1,3,1,-11,1,0,1,-8,1,-17,1,-6,1,-9,1
499,-13,1,-4,1,9,1,8,1,-11,1,2,1,-11,1,0,1,-8,1,-17,1,-6,1,-9,1
500,-13,1,-4,1,9,1,8,1,-11,1,2,1,-12,1,-1,1,-8,1,-17,1,-6,1,-9,1
501,-13,1,-5,1,8,1,9,1,-11,1,1,1,-12,1,-1,1,-8,1,-17,1,-6,1,-10,1
502,-12,1,-3,1,9,1,7,1,-11,1,3,1,-11,1,-1,1,-8,1,-17,1,-6,1,-10,1
503,-12,1,-2,1,10,1,7,1,-11,1,4,1,-10,1,0,1,-8,1,-17,1,-6,1,-10,1
504,-13,1,-2,1,11,1,7,1,-12,1,4,1,-9,1,0,1,-7,1,-16,1,-6,1,-10,1
505,-13,1,-2,1,11,1,7,1,-12,1,4,1,-9,1,-1,1,-7,1,-16,1,-6,1,-11,1
506,-13,1,-1,1,12,1,7,1,-13,1,5,1,-8,1,-1,1,-7,1,-16,1,-7,1,-11,1
507,-13,1,-1,1,12,1,7,1,-13,1,5,1,-8,1,-1,1,-7,1,-16,1,-7,1,-10,1
508,-12,1,0,1,12,1,6,1,-12,1,6,1,-7,1,0,1,-6,1,-15,1,-7,1,-9,1
509,-12,1,0,1,12,1,6,1,-12,1,6,1,-6,1,0,1,-5,1,-15,1,-7,1,-9,1
510,-14,1,0,1,14,1,7,1,-14,1,7,1,-5,1,1,1,-5,1,-14,1,-6,1,-9,1
511,-12,1,2,1,14,1,5,1,-13,1,8,1,-4,1,2,1,-4,1,-13,1,-5,1,-9,1
512,-12,1,3,1,15,1,4,1,-13,1,9,1,-3,1,3,1,-4,1,-12,1,-5,1,-9,1
513,-11,1,4,1,15,1,3,1,-13,1,9,1,-3,1,4,1,-3,1,-12,1,-4,1,-9,1
514,-13,1,4,1,17,1,4,1,-15,1,10,1,-3,1,4,1,-3,1,-12,1,-4,1,-9,1
515,-14,1,3,1,17,1,5,1,-15,1,10,1,-3,1,4,1,-3,1,-13,1,-5,1,-10,1
516,-11,1,6,1,17,1,2,1,-14,1,11,1,0,1,6,1,-2,1,-12,1,-3,1,-9,1
517,-11,1,7,1,18,1,2,1,-14,1,12,1,2,1,7,1,-1,1,-11,1,-2,1,-8,1
518,-11,1,6,1,17,1,2,1,-14,1,11,1,3,1,7,1,0,1,-11,1,-2,1,-8,1
519,-10,1,6,1,16,1,2,1,-13,1,11,1,3,1,7,1,0,1,-10,1,-2,1,-7,1
520,-10,1,5,1,15,1,2,1,-12,1,10,1,2,1,8,1,0,1,-10,1,-2,1,-8,1
521,-12,1,5,1,17,1,3,1,-14,1,11,1,1,1,8,1,0,1,-9,1,-2,1,-8,1
522,-12,1,5,1,17,1,3,1,-14,1,11,1,0,1,8,1,-1,1,-9,1,-3,1,-8,1
523,-12,1,6,1,18,1,3,1,-15,1,12,1,-1,1,8,1,-1,1,-9,1,-3,1,-8,1
524,-12,1,6,1,18,1,3,1,-15,1,12,1,-1,1,8,1,-1,1,-10,1,-2,1,-9,1
525,-14,1,4,1,18,1,5,1,-16,1,11,1,-2,1,8,1,-1,1,-10,1,-2,1,-9,1
526,-16,1,2,1,18,1,7,1,-17,1,10,1,-3,1,8,1,-2,1,-10,1,-3,1,-10,1
527,-13,1,3,1,16,1,5,1,-14,1,9,1,-4,1,9,1,-2,1,-10,1,-2,1,-9,1
528,-9,1,6,1,15,1,1,1,-12,1,10,1,-5,1,9,1,-2,1,-10,1,-2,1,-8,1
529,-6,1,7,1,13,1,0,1,-9,1,10,1,-5,1,7,1,-2,1,-10,1,-1,1,-7,1
530,-4,1,9,1,13,1,-2,1,-8,1,11,1,-6,1,5,1,-1,1,-10,1,-1,1,-7,1
531,-3,1,10,1,13,1,-3,1,-8,1,11,1,-8,1,5,1,-1,1,-8,1,-1,1,-6,1
532,-4,1,10,1,14,1,-3,1,-9,1,12,1,-9,1,4,1,-1,1,-8,1,-1,1,-7,1
533,-4,1,10,1,14,1,-3,1,-9,1,12,1,-11,1,4,1,-1,1,-8,1,-1,1,-7,1
534,-4,1,12,1,16,1,-4,1,-10,1,14,1,-12,1,5,1,-1,1,-8,1,-1,1,-6,1
535,-4,1,13,1,17,1,-4,1,-10,1,15,1,-12,1,5,1,0,1,-8,1,0,1,-6,1
536,-4,1,12,1,16,1,-4,1,-10,1,14,1,-13,1,5,1,-1,1,-8,1,0,1,-6,1
537,-4,1,11,1,15,1,-3,1,-9,1,13,1,-15,1,4,1,-2,1,-9,1,0,1,-6,1
538,-4,1,11,1,15,1,-3,1,-9,1,13,1,-16,1,2,1,-4,1,-10,1,-2,1,-6,1
539,-2,1,11,1,13,1,-4,1,-7,1,12,1,-17,1,1,1,-5,1,-11,1,-2,1,-6,1
540,0,1,11,1,11,1,-5,1,-5,1,11,1,-17,1,1,1,-5,1,-12,1,-3,1,-7,1
541,0,1,11,1,11,1,-5,1,-5,1,11,1,-16,1,0,1,-6,1,-12,1,-3,1,-7,1
542,-1,1,8,1,9,1,-3,1,-5,1,8,1,-17,1,-1,1,-7,1,-13,1,-4,1,-8,1
543,-3,1,7,1,10,1,-2,1,-6,1,8,1,-16,1,-1,1,-6,1,-12,1,-3,1,-9,1
544,-4,1,6,1,10,1,-1,1,-7,1,8,1,-15,1,0,1,-5,1,-12,1,-2,1,-9,1
545,-3,1,6,1,9,1,-1,1,-6,1,7,1,-15,1,0,1,-4,1,-11,1,-2,1,-8,1
546,-3,1,6,1,9,1,-1,1,-6,1,7,1,-14,1,1,1,-4,1,-11,1,-1,1,-8,1
547,-2,1,6,1,8,1,-2,1,-5,1,7,1,-13,1,2,1,-5,1,-10,1,-1,1,-7,1
548,-1,1,6,1,7,1,-2,1,-4,1,6,1,-12,1,2,1,-5,1,-9,1,0,1,-7,1
549,-2,1,2,1,4,1,0,1,-3,1,3,1,-13,1,1,1,-6,1,-10,1,-2,1,-8,1
550,-2,1,0,1,2,1,1,1,-2,1,1,1,-14,1,1,1,-7,1,-10,1,-3,1,-9,1
551,-2,1,-1,1,1,1,1,1,-2,1,0,1,-13,1,0,1,-7,1,-10,1,-3,1,-8,1
552,-5,1,-2,1,3,1,3,1,-4,1,0,1,-13,1,-1,1,-7,1,-11,1,-3,1,-8,1
553,-8,1,-4,1,4,1,6,1,-6,1,0,1,-13,1,-1,1,-7,1,-11,1,-4,1,-9,1
554,-11,1,-7,1,4,1,9,1,-8,1,-2,1,-13,1,-2,1,-8,1,-13,1,-6,1,-10,1
555,-10,1,-5,1,5,1,7,1,-8,1,0,1,-12,1,0,1,-7,1,-13,1,-5,1,-9,1
556,-10,1,-3,1,7,1,6,1,-9,1,2,1,-11,1,0,1,-7,1,-13,1,-5,1,-10,1
557,-12,1,-4,1,8,1,8,1,-10,1,2,1,-11,1,0,1,-8,1,-13,1,-5,1,-11,1
558,-16,1,-7,1,9,1,11,1,-13,1,1,1,-12,1,-2,1,-10,1,-15,1,-7,1,-14,1
559,-14,1,-5,1,9,1,9,1,-12,1,2,1,-12,1,-3,1,-10,1,-14,1,-8,1,-15,1
560,-14,1,-5,1,9,1,9,1,-12,1,2,1,-12,1,-4,1,-11,1,-15,1,-9,1,-16,1
561,-15,1,-5,1,10,1,10,1,-13,1,2,1,-12,1,-5,1,-13,1,-16,1,-10,1,-17,1
562,-14,1,-4,1,10,1,9,1,-12,1,3,1,-12,1,-6,1,-14,1,-18,1,-11,1,-17,1
563,-14,1,-5,1,9,1,9,1,-12,1,2,1,-12,1,-6,1,-15,1,-18,1,-12,1,-18,1
564,-14,1,-5,1,9,1,9,1,-12,1,2,1,-12,1,-6,1,-14,1,-19,1,-11,1,-17,1
565,-13,1,-4,1,9,1,8,1,-11,1,2,1,-11,1,-6,1,-14,1,-19,1,-11,1,-17,1
566,-14,1,-5,1,9,1,9,1,-12,1,2,1,-12,1,-7,1,-14,1,-19,1,-11,1,-18,1
567,-15,1,-7,1,8,1,11,1,-12,1,0,1,-12,1,-7,1,-15,1,-20,1,-10,1,-17,1
568,-16,1,-7,1,9,1,11,1,-13,1,1,1,-12,1,-7,1,-15,1,-20,1,-11,1,-17,1
569,-18,1,-9,1,9,1,13,1,-14,1,0,1,-13,1,-8,1,-15,1,-21,1,-12,1,-17,1
570,-17,1,-9,1,8,1,13,1,-13,1,-1,1,-13,1,-9,1,-15,1,-21,1,-12,1,-17,1
571,-16,1,-9,1,7,1,12,1,-12,1,-1,1,-13,1,-9,1,-14,1,-21,1,-12,1,-17,1
572,-14,1,-9,1,5,1,11,1,-10,1,-2,1,-13,1,-9,1,-14,1,-21,1,-12,1,-18,1
573,-15,1,-9,1,6,1,12,1,-11,1,-2,1,-13,1,-9,1,-14,1,-22,1,-12,1,-19,1
574,-15,1,-10,1,5,1,12,1,-10,1,-3,1,-13,1,-10,1,-15,1,-22,1,-12,1,-19,1
575,-15,1,-10,1,5,1,12,1,-10,1,-3,1,-13,1,-10,1,-14,1,-22,1,-11,1,-19,1
576,-15,1,-10,1,5,1,12,1,-10,1,-3,1,-13,1,-10,1,-14,1,-22,1,-11,1,-18,1
577,-15,1,-9,1,6,1,12,1,-11,1,-2,1,-12,1,-9,1,-14,1,-22,1,-11,1,-17,1
578,-16,1,-9,1,7,1,12,1,-12,1,-1,1,-12,1,-9,1,-14,1,-21,1,-10,1,-17,1
579,-17,1,-10,1,7,1,13,1,-12,1,-2,1,-12,1,-9,1,-14,1,-21,1,-10,1,-17,1
580,-17,1,-11,1,6,1,14,1,-12,1,-3,1,-13,1,-8,1,-14,1,-21,1,-10,1,-18,1
581,-18,1,-12,1,6,1,15,1,-12,1,-3,1,-13,1,-8,1,-14,1,-21,1,-9,1,-18,1
582,-15,1,-10,1,5,1,12,1,-10,1,-3,1,-12,1,-7,1,-13,1,-20,1,-9,1,-17,1
583,-13,1,-10,1,3,1,11,1,-8,1,-4,1,-12,1,-6,1,-13,1,-19,1,-8,1,-17,1
584,-14,1,-12,1,2,1,13,1,-8,1,-5,1,-11,1,-5,1,-14,1,-20,1,-10,1,-18,1
585,-14,1,-12,1,2,1,13,1,-8,1,-5,1,-9,1,-4,1,-13,1,-19,1,-10,1,-19,1
586,-17,1,-16,1,1,1,16,1,-9,1,-8,1,-6,1,-3,1,-13,1,-19,1,-11,1,-20,1
587,-20,1,-19,1,1,1,19,1,-11,1,-9,1,-3,1,0,1,-11,1,-18,1,-12,1,-22,1
588,-17,1,-16,1,1,1,16,1,-9,1,-8,1,2,1,7,1,-5,1,-14,1,-9,1,-20,1
589,-16,1,-13,1,3,1,14,1,-10,1,-5,1,6,1,16,1,1,1,-10,1,-7,1,-19,1
590,-13,1,-11,1,2,1,12,1,-8,1,-5,1,10,1,27,1,8,1,-6,1,-4,1,-17,1
591,-10,1,-10,1,0,1,10,1,-5,1,-5,1,17,1,39,1,16,1,0,1,0,1,-15,1
592,-6,1,-10,1,-4,1,8,1,-1,1,-7,1,26,1,55,1,26,1,9,1,6,1,-12,1
593,-2,1,-9,1,-7,1,5,1,2,1,-8,1,38,1,75,1,40,1,22,1,14,1,-7,1
594,4,1,-7,1,-11,1,1,1,7,1,-9,1,54,1,101,1,59,1,39,1,28,1,0,1
595,13,1,-5,1,-18,1,-4,1,15,1,-11,1,69,1,130,1,82,1,59,1,44,1,11,1
596,25,1,-1,1,-26,1,-12,1,25,1,-13,1,82,1,157,1,107,1,81,1,63,1,24,1
597,39,1,6,1,-33,1,-22,1,36,1,-13,1,88,1,182,1,133,1,105,1,85,1,40,1
598,55,1,16,1,-39,1,-35,1,47,1,-11,1,80,1,200,1,157,1,129,1,107,1,58,1
599,75,1,32,1,-43,1,-53,1,59,1,-5,1,59,1,208,1,177,1,152,1,130,1,78,1
600,93,1,48,1,-45,1,-70,1,69,1,2,1,27,1,211,1,192,1,173,1,151,1,98,1
601,108,1,64,1,-44,1,-86,1,76,1,10,1,-4,1,208,1,203,1,191,1,168,1,116,1
602,115,1,77,1,-38,1,-96,1,77,1,20,1,-33,1,197,1,204,1,199,1,179,1,129,1
603,114,1,81,1,-33,1,-97,1,74,1,24,1,-62,1,170,1,187,1,189,1,175,1,131,1
604,109,1,78,1,-31,1,-93,1,70,1,24,1,-88,1,130,1,156,1,165,1,159,1,124,1
605,103,1,72,1,-31,1,-87,1,67,1,21,1,-108,1,86,1,120,1,135,1,137,1,112,1
606,91,1,63,1,-28,1,-77,1,60,1,18,1,-124,1,40,1,84,1,103,1,114,1,97,1
607,73,1,52,1,-21,1,-62,1,47,1,16,1,-135,1,-6,1,48,1,70,1,90,1,81,1
608,57,1,44,1,-13,1,-50,1,35,1,16,1,-138,1,-44,1,18,1,43,1,68,1,66,1
609,45,1,39,1,-6,1,-42,1,26,1,17,1,-134,1,-66,1,-2,1,23,1,51,1,54,1
610,37,1,34,1,-3,1,-35,1,20,1,16,1,-123,1,-73,1,-13,1,9,1,38,1,43,1
611,28,1,28,1,0,1,-28,1,14,1,14,1,-109,1,-70,1,-19,1,1,1,27,1,33,1
612,19,1,22,1,3,1,-20,1,8,1,13,1,-94,1,-64,1,-23,1,-5,1,18,1,24,1
613,12,1,17,1,5,1,-14,1,4,1,11,1,-79,1,-55,1,-24,1,-9,1,12,1,16,1
614,7,1,13,1,6,1,-10,1,1,1,10,1,-67,1,-46,1,-22,1,-11,1,8,1,10,1
615,3,1,9,1,6,1,-6,1,-1,1,8,1,-56,1,-38,1,-19,1,-10,1,6,1,6,1
616,-2,1,5,1,7,1,-1,1,-4,1,6,1,-47,1,-32,1,-15,1,-10,1,5,1,3,1
617,-4,1,4,1,8,1,0,1,-6,1,6,1,-39,1,-26,1,-11,1,-9,1,4,1,0,1
618,-4,1,2,1,6,1,1,1,-5,1,4,1,-33,1,-21,1,-9,1,-9,1,3,1,-1,1
619,-2,1,1,1,3,1,0,1,-2,1,2,1,-28,1,-16,1,-9,1,-9,1,2,1,-3,1
620,-2,1,0,1,2,1,1,1,-2,1,1,1,-23,1,-11,1,-9,1,-9,1,0,1,-5,1
621,-5,1,-3,1,2,1,4,1,-4,1,-1,1,-20,1,-8,1,-10,1,-11,1,-1,1,-7,1
622,-8,1,-5,1,3,1,6,1,-6,1,-1,1,-16,1,-6,1,-10,1,-12,1,-4,1,-9,1
623,-13,1,-10,1,3,1,11,1,-8,1,-4,1,-16,1,-7,1,-12,1,-13,1,-7,1,-12,1
624,-15,1,-9,1,6,1,12,1,-11,1,-2,1,-13,1,-7,1,-12,1,-14,1,-8,1,-13,1
625,-16,1,-8,1,8,1,12,1,-12,1,0,1,-13,1,-7,1,-11,1,-14,1,-8,1,-13,1
626,-15,1,-7,1,8,1,11,1,-12,1,0,1,-12,1,-8,1,-10,1,-14,1,-8,1,-13,1
627,-15,1,-7,1,8,1,11,1,-12,1,0,1,-12,1,-8,1,-10,1,-15,1,-8,1,-14,1
628,-15,1,-8,1,7,1,11,1,-11,1,-1,1,-12,1,-9,1,-10,1,-16,1,-9,1,-15,1
629,-15,1,-10,1,5,1,12,1,-10,1,-3,1,-12,1,-8,1,-12,1,-16,1,-10,1,-15,1
630,-15,1,-10,1,5,1,12,1,-10,1,-3,1,-12,1,-7,1,-12,1,-17,1,-10,1,-16,1
631,-15,1,-11,1,4,1,13,1,-10,1,-4,1,-12,1,-6,1,-13,1,-18,1,-10,1,-16,1
632,-15,1,-11,1,4,1,13,1,-10,1,-4,1,-12,1,-6,1,-13,1,-18,1,-10,1,-17,1
633,-17,1,-13,1,4,1,15,1,-11,1,-5,1,-12,1,-7,1,-14,1,-19,1,-11,1,-18,1
634,-19,1,-14,1,5,1,16,1,-12,1,-5,1,-12,1,-7,1,-14,1,-19,1,-11,1,-19,1
635,-17,1,-12,1,5,1,14,1,-11,1,-4,1,-11,1,-6,1,-13,1,-17,1,-10,1,-17,1
636,-17,1,-11,1,6,1,14,1,-12,1,-3,1,-11,1,-6,1,-13,1,-17,1,-10,1,-16,1
637,-15,1,-9,1,6,1,12,1,-11,1,-2,1,-11,1,-5,1,-12,1,-16,1,-10,1,-15,1
638,-15,1,-9,1,6,1,12,1,-11,1,-2,1,-11,1,-5,1,-11,1,-16,1,-9,1,-14,1
639,-19,1,-12,1,7,1,15,1,-13,1,-3,1,-12,1,-5,1,-12,1,-16,1,-10,1,-15,1
640,-19,1,-12,1,7,1,15,1,-13,1,-3,1,-11,1,-5,1,-12,1,-17,1,-9,1,-16,1
641,-16,1,-11,1,5,1,13,1,-11,1,-3,1,-11,1,-5,1,-12,1,-16,1,-8,1,-16,1
642,-18,1,-14,1,4,1,16,1,-11,1,-5,1,-11,1,-5,1,-13,1,-17,1,-8,1,-16,1
643,-16,1,-12,1,4,1,14,1,-10,1,-4,1,-10,1,-4,1,-12,1,-17,1,-7,1,-15,1
644,-15,1,-12,1,3,1,13,1,-9,1,-5,1,-10,1,-4,1,-12,1,-16,1,-7,1,-14,1
645,-13,1,-10,1,3,1,11,1,-8,1,-4,1,-9,1,-3,1,-10,1,-16,1,-6,1,-13,1
646,-11,1,-8,1,3,1,9,1,-7,1,-3,1,-8,1,-2,1,-9,1,-15,1,-6,1,-12,1
647,-10,1,-8,1,2,1,9,1,-6,1,-3,1,-8,1,-1,1,-9,1,-15,1,-7,1,-12,1
648,-10,1,-8,1,2,1,9,1,-6,1,-3,1,-8,1,-1,1,-9,1,-16,1,-7,1,-13,1
649,-10,1,-8,1,2,1,9,1,-6,1,-3,1,-8,1,-1,1,-9,1,-15,1,-8,1,-13,1
650,-12,1,-10,1,2,1,11,1,-7,1,-4,1,-8,1,-1,1,-9,1,-14,1,-8,1,-13,1
651,-12,1,-11,1,1,1,11,1,-7,1,-5,1,-8,1,-1,1,-9,1,-13,1,-7,1,-13,1
652,-13,1,-13,1,0,1,13,1,-7,1,-7,1,-8,1,0,1,-9,1,-12,1,-6,1,-14,1
653,-15,1,-14,1,1,1,14,1,-8,1,-7,1,-8,1,0,1,-9,1,-12,1,-6,1,-13,1
654,-16,1,-15,1,1,1,15,1,-9,1,-7,1,-8,1,0,1,-9,1,-12,1,-7,1,-13,1
655,-17,1,-15,1,2,1,16,1,-10,1,-7,1,-8,1,-1,1,-10,1,-13,1,-8,1,-14,1
656,-16,1,-14,1,2,1,15,1,-9,1,-6,1,-7,1,-1,1,-10,1,-13,1,-9,1,-14,1
657,-14,1,-12,1,2,1,13,1,-8,1,-5,1,-6,1,-1,1,-10,1,-12,1,-10,1,-15,1
658,-15,1,-13,1,2,1,14,1,-9,1,-6,1,-6,1,-1,1,-10,1,-13,1,-11,1,-15,1
659,-15,1,-14,1,1,1,14,1,-8,1,-7,1,-7,1,-2,1,-10,1,-13,1,-11,1,-16,1
660,-16,1,-15,1,1,1,15,1,-9,1,-7,1,-9,1,-2,1,-10,1,-13,1,-11,1,-16,1
661,-18,1,-18,1,0,1,18,1,-9,1,-9,1,-10,1,-3,1,-11,1,-15,1,-12,1,-18,1
662,-14,1,-14,1,0,1,14,1,-7,1,-7,1,-9,1,-1,1,-10,1,-13,1,-9,1,-15,1
663,-12,1,-10,1,2,1,11,1,-7,1,-4,1,-8,1,-1,1,-9,1,-12,1,-8,1,-13,1
664,-11,1,-9,1,2,1,10,1,-7,1,-4,1,-8,1,0,1,-9,1,-11,1,-8,1,-12,1
665,-11,1,-9,1,2,1,10,1,-7,1,-4,1,-7,1,0,1,-9,1,-10,1,-8,1,-12,1
666,-10,1,-8,1,2,1,9,1,-6,1,-3,1,-6,1,1,1,-8,1,-10,1,-7,1,-12,1
667,-9,1,-8,1,1,1,8,1,-5,1,-4,1,-5,1,1,1,-7,1,-9,1,-7,1,-12,1
668,-10,1,-11,1,-1,1,10,1,-5,1,-6,1,-5,1,1,1,-7,1,-9,1,-8,1,-13,1
669,-12,1,-13,1,-1,1,12,1,-6,1,-7,1,-4,1,2,1,-7,1,-10,1,-8,1,-14,1
670,-14,1,-16,1,-2,1,15,1,-6,1,-9,1,-4,1,2,1,-7,1,-10,1,-8,1,-14,1
671,-15,1,-17,1,-2,1,16,1,-7,1,-10,1,-5,1,2,1,-7,1,-10,1,-8,1,-14,1
672,-14,1,-16,1,-2,1,15,1,-6,1,-9,1,-5,1,3,1,-7,1,-11,1,-7,1,-14,1
673,-13,1,-15,1,-2,1,14,1,-6,1,-9,1,-5,1,3,1,-7,1,-11,1,-7,1,-13,1
674,-12,1,-14,1,-2,1,13,1,-5,1,-8,1,-6,1,3,1,-6,1,-10,1,-7,1,-13,1
675,-10,1,-11,1,-1,1,10,1,-5,1,-6,1,-6,1,4,1,-6,1,-9,1,-6,1,-12,1
676,-8,1,-8,1,0,1,8,1,-4,1,-4,1,-6,1,5,1,-5,1,-8,1,-6,1,-12,1
677,-12,1,-11,1,1,1,11,1,-7,1,-5,1,-9,1,3,1,-7,1,-9,1,-7,1,-14,1
678,-15,1,-14,1,1,1,14,1,-8,1,-7,1,-10,1,3,1,-8,1,-10,1,-8,1,-15,1
679,-14,1,-13,1,1,1,13,1,-8,1,-6,1,-9,1,4,1,-7,1,-9,1,-7,1,-15,1
680,-12,1,-11,1,1,1,11,1,-7,1,-5,1,-9,1,5,1,-6,1,-9,1,-6,1,-15,1
681,-12,1,-11,1,1,1,11,1,-7,1,-5,1,-8,1,6,1,-6,1,-9,1,-6,1,-15,1
682,-10,1,-10,1,0,1,10,1,-5,1,-5,1,-8,1,7,1,-7,1,-9,1,-6,1,-15,1
683,-10,1,-9,1,1,1,9,1,-6,1,-4,1,-8,1,7,1,-7,1,-8,1,-6,1,-15,1
684,-9,1,-8,1,1,1,8,1,-5,1,-4,1,-8,1,8,1,-7,1,-8,1,-6,1,-15,1
685,-8,1,-7,1,1,1,7,1,-5,1,-3,1,-7,1,8,1,-6,1,-7,1,-6,1,-15,1
686,-8,1,-7,1,1,1,7,1,-5,1,-3,1,-6,1,9,1,-5,1,-7,1,-5,1,-13,1
687,-8,1,-6,1,2,1,7,1,-5,1,-2,1,-6,1,10,1,-5,1,-7,1,-4,1,-13,1
688,-10,1,-8,1,2,1,9,1,-6,1,-3,1,-6,1,10,1,-5,1,-7,1,-4,1,-14,1
689,-12,1,-11,1,1,1,11,1,-7,1,-5,1,-6,1,10,1,-6,1,-8,1,-4,1,-16,1
690,-12,1,-11,1,1,1,11,1,-7,1,-5,1,-5,1,11,1,-6,1,-8,1,-4,1,-16,1
691,-13,1,-12,1,1,1,12,1,-7,1,-6,1,-5,1,11,1,-6,1,-9,1,-4,1,-17,1
692,-13,1,-12,1,1,1,12,1,-7,1,-6,1,-6,1,11,1,-6,1,-9,1,-4,1,-17,1
693,-10,1,-9,1,1,1,9,1,-6,1,-4,1,-5,1,11,1,-6,1,-8,1,-3,1,-15,1
694,-6,1,-6,1,0,1,6,1,-3,1,-3,1,-4,1,12,1,-5,1,-7,1,-2,1,-14,1
695,-5,1,-4,1,1,1,4,1,-3,1,-2,1,-4,1,13,1,-4,1,-6,1,-2,1,-13,1
696,-5,1,-5,1,0,1,5,1,-3,1,-3,1,-4,1,13,1,-4,1,-6,1,-2,1,-14,1
697,-6,1,-7,1,-1,1,6,1,-3,1,-4,1,-5,1,14,1,-3,1,-4,1,-2,1,-14,1
698,-9,1,-8,1,1,1,8,1,-5,1,-4,1,-5,1,14,1,-3,1,-3,1,-1,1,-14,1
699,-10,1,-10,1,0,1,10,1,-5,1,-5,1,-6,1,14,1,-2,1,-3,1,-1,1,-14,1
700,-11,1,-10,1,1,1,10,1,-6,1,-5,1,-6,1,13,1,-3,1,-2,1,-1,1,-14,1
701,-11,1,-9,1,2,1,10,1,-7,1,-4,1,-5,1,14,1,-2,1,-1,1,0,1,-14,1
702,-11,1,-8,1,3,1,9,1,-7,1,-3,1,-5,1,13,1,-2,1,-1,1,1,1,-14,1
703,-9,1,-6,1,3,1,7,1,-6,1,-2,1,-4,1,14,1,-1,1,-1,1,0,1,-14,1
704,-8,1,-5,1,3,1,6,1,-6,1,-1,1,-4,1,14,1,-1,1,-1,1,0,1,-14,1
705,-7,1,-4,1,3,1,5,1,-5,1,-1,1,-3,1,15,1,0,1,-1,1,0,1,-14,1
706,-6,1,-4,1,2,1,5,1,-4,1,-1,1,-3,1,16,1,0,1,-1,1,0,1,-14,1
707,-7,1,-4,1,3,1,5,1,-5,1,-1,1,-3,1,17,1,0,1,-2,1,0,1,-14,1
708,-5,1,-4,1,1,1,4,1,-3,1,-2,1,-3,1,18,1,1,1,0,1,1,1,-13,1
709,-6,1,-5,1,1,1,5,1,-4,1,-2,1,-4,1,18,1,2,1,0,1,2,1,-13,1
710,-7,1,-6,1,1,1,6,1,-4,1,-3,1,-4,1,18,1,2,1,0,1,2,1,-13,1
711,-7,1,-5,1,2,1,6,1,-5,1,-2,1,-3,1,19,1,2,1,0,1,2,1,-12,1
712,-9,1,-7,1,2,1,8,1,-6,1,-3,1,-5,1,18,1,1,1,-1,1,2,1,-13,1
713,-6,1,-4,1,2,1,5,1,-4,1,-1,1,-5,1,19,1,2,1,0,1,2,1,-12,1
714,-4,1,-2,1,2,1,3,1,-3,1,0,1,-5,1,20,1,2,1,0,1,2,1,-12,1
715,-3,1,-1,1,2,1,2,1,-3,1,0,1,-5,1,20,1,1,1,0,1,2,1,-13,1
716,-3,1,-1,1,2,1,2,1,-3,1,0,1,-4,1,20,1,1,1,0,1,2,1,-13,1
717,-3,1,-1,1,2,1,2,1,-3,1,0,1,-3,1,20,1,1,1,0,1,1,1,-14,1
718,-6,1,-2,1,4,1,4,1,-5,1,1,1,-3,1,20,1,1,1,-1,1,1,1,-15,1
719,-7,1,-1,1,6,1,4,1,-7,1,2,1,-1,1,20,1,1,1,0,1,1,1,-14,1
720,-9,1,-2,1,7,1,5,1,-8,1,2,1,-1,1,21,1,2,1,1,1,1,1,-15,1
721,-7,1,-1,1,6,1,4,1,-7,1,2,1,-1,1,21,1,1,1,2,1,1,1,-14,1
722,-5,1,0,1,5,1,2,1,-5,1,2,1,-1,1,21,1,1,1,2,1,1,1,-14,1
723,-4,1,0,1,4,1,2,1,-4,1,2,1,-2,1,20,1,1,1,2,1,1,1,-14,1
724,-2,1,1,1,3,1,0,1,-2,1,2,1,-2,1,21,1,1,1,2,1,3,1,-13,1
725,-1,1,3,1,4,1,-1,1,-2,1,3,1,-2,1,21,1,2,1,3,1,4,1,-12,1
726,0,1,3,1,3,1,-1,1,-1,1,3,1,-3,1,21,1,3,1,4,1,6,1,-12,1
727,0,1,3,1,3,1,-1,1,-1,1,3,1,-2,1,21,1,4,1,4,1,6,1,-11,1
728,0,1,3,1,3,1,-1,1,-1,1,3,1,-3,1,21,1,5,1,4,1,7,1,-11,1
729,-1,1,2,1,3,1,0,1,-2,1,2,1,-3,1,21,1,6,1,5,1,6,1,-11,1
730,-2,1,0,1,2,1,1,1,-2,1,1,1,-4,1,20,1,6,1,5,1,6,1,-11,1
731,0,1,3,1,3,1,-1,1,-1,1,3,1,-4,1,20,1,6,1,5,1,6,1,-10,1
732,2,1,4,1,2,1,-3,1,0,1,3,1,-3,1,20,1,5,1,6,1,6,1,-10,1
733,-1,1,3,1,4,1,-1,1,-2,1,3,1,-3,1,19,1,3,1,4,1,4,1,-10,1
734,-3,1,3,1,6,1,0,1,-4,1,4,1,-3,1,18,1,2,1,4,1,4,1,-11,1
735,-2,1,4,1,6,1,-1,1,-4,1,5,1,-3,1,18,1,1,1,5,1,5,1,-10,1
736,-2,1,6,1,8,1,-2,1,-5,1,7,1,-2,1,18,1,1,1,5,1,6,1,-9,1
737,-1,1,6,1,7,1,-2,1,-4,1,6,1,-3,1,18,1,2,1,6,1,7,1,-8,1
738,-1,1,8,1,9,1,-3,1,-5,1,8,1,-3,1,18,1,3,1,7,1,8,1,-7,1
739,-1,1,8,1,9,1,-3,1,-5,1,8,1,-3,1,17,1,3,1,7,1,8,1,-6,1
740,0,1,8,1,8,1,-4,1,-4,1,8,1,-2,1,17,1,4,1,7,1,8,1,-5,1
741,0,1,8,1,8,1,-4,1,-4,1,8,1,-2,1,17,1,4,1,7,1,8,1,-5,1
742,-2,1,5,1,7,1,-1,1,-4,1,6,1,-4,1,15,1,3,1,5,1,6,1,-5,1
743,0,1,6,1,6,1,-3,1,-3,1,6,1,-4,1,15,1,3,1,5,1,6,1,-4,1
744,0,1,8,1,8,1,-4,1,-4,1,8,1,-3,1,16,1,4,1,6,1,8,1,-3,1
745,0,1,8,1,8,1,-4,1,-4,1,8,1,-2,1,17,1,4,1,7,1,9,1,-3,1
746,-2,1,8,1,10,1,-3,1,-6,1,9,1,-2,1,17,1,4,1,7,1,9,1,-3,1
747,-1,1,9,1,10,1,-4,1,-5,1,9,1,-2,1,16,1,3,1,7,1,10,1,-3,1
748,-1,1,9,1,10,1,-4,1,-5,1,9,1,-3,1,15,1,3,1,5,1,9,1,-3,1
749,-3,1,8,1,11,1,-2,1,-7,1,9,1,-4,1,13,1,2,1,4,1,8,1,-3,1
750,-4,1,6,1,10,1,-1,1,-7,1,8,1,-6,1,11,1,2,1,4,1,7,1,-5,1
751,-3,1,8,1,11,1,-2,1,-7,1,9,1,-6,1,11,1,2,1,5,1,7,1,-5,1
752,-3,1,10,1,13,1,-3,1,-8,1,11,1,-6,1,11,1,3,1,5,1,8,1,-5,1
753,-2,1,11,1,13,1,-4,1,-7,1,12,1,-6,1,10,1,3,1,6,1,7,1,-5,1
754,-3,1,11,1,14,1,-4,1,-8,1,12,1,-7,1,10,1,3,1,6,1,7,1,-6,1
755,-3,1,11,1,14,1,-4,1,-8,1,12,1,-6,1,10,1,3,1,6,1,6,1,-7,1
756,-3,1,12,1,15,1,-4,1,-9,1,13,1,-5,1,11,1,3,1,7,1,7,1,-6,1
757,-2,1,12,1,14,1,-5,1,-8,1,13,1,-4,1,11,1,4,1,8,1,7,1,-6,1
758,-3,1,12,1,15,1,-4,1,-9,1,13,1,-3,1,12,1,4,1,8,1,8,1,-6,1
759,-8,1,8,1,16,1,0,1,-12,1,12,1,-4,1,10,1,3,1,7,1,7,1,-7,1
760,-9,1,7,1,16,1,1,1,-12,1,11,1,-3,1,10,1,3,1,7,1,7,1,-7,1
761,-8,1,6,1,14,1,1,1,-11,1,10,1,-3,1,10,1,3,1,8,1,7,1,-7,1
762,-8,1,6,1,14,1,1,1,-11,1,10,1,-3,1,10,1,3,1,8,1,8,1,-6,1
763,-7,1,7,1,14,1,0,1,-10,1,10,1,-3,1,10,1,4,1,8,1,8,1,-6,1
764,-8,1,7,1,15,1,0,1,-11,1,11,1,-3,1,10,1,5,1,9,1,8,1,-7,1
765,-7,1,8,1,15,1,0,1,-11,1,11,1,-4,1,10,1,5,1,9,1,8,1,-8,1
766,-9,1,6,1,15,1,1,1,-12,1,10,1,-4,1,10,1,6,1,8,1,7,1,-8,1
767,-10,1,5,1,15,1,2,1,-12,1,10,1,-4,1,10,1,6,1,8,1,7,1,-9,1
768,-12,1,3,1,15,1,4,1,-13,1,9,1,-4,1,10,1,6,1,8,1,6,1,-9,1
769,-15,1,1,1,16,1,7,1,-15,1,8,1,-5,1,11,1,6,1,8,1,4,1,-10,1
770,-18,1,1,1,19,1,8,1,-18,1,10,1,-5,1,10,1,6,1,8,1,3,1,-10,1
771,-17,1,3,1,20,1,7,1,-18,1,11,1,-4,1,11,1,6,1,8,1,2,1,-10,1
772,-16,1,3,1,19,1,6,1,-17,1,11,1,-5,1,9,1,6,1,8,1,0,1,-12,1
773,-14,1,2,1,16,1,6,1,-15,1,9,1,-6,1,8,1,5,1,8,1,0,1,-13,1
774,-13,1,1,1,14,1,6,1,-13,1,7,1,-5,1,8,1,5,1,8,1,-1,1,-14,1
775,-13,1,0,1,13,1,6,1,-13,1,6,1,-4,1,6,1,4,1,8,1,-2,1,-14,1
776,-15,1,0,1,15,1,7,1,-15,1,7,1,-5,1,5,1,3,1,7,1,-2,1,-15,1
777,-16,1,0,1,16,1,8,1,-16,1,8,1,-4,1,4,1,3,1,7,1,-3,1,-15,1
778,-17,1,1,1,18,1,8,1,-17,1,9,1,-5,1,3,1,2,1,6,1,-3,1,-15,1
779,-17,1,1,1,18,1,8,1,-17,1,9,1,-5,1,3,1,1,1,6,1,-3,1,-15,1
780,-18,1,0,1,18,1,9,1,-18,1,9,1,-6,1,2,1,1,1,5,1,-5,1,-17,1
781,-17,1,0,1,17,1,8,1,-17,1,8,1,-6,1,2,1,2,1,5,1,-5,1,-17,1
782,-16,1,0,1,16,1,8,1,-16,1,8,1,-7,1,2,1,2,1,5,1,-4,1,-17,1
783,-15,1,0,1,15,1,7,1,-15,1,7,1,-6,1,3,1,2,1,6,1,-4,1,-16,1
784,-19,1,-5,1,14,1,12,1,-17,1,4,1,-7,1,1,1,0,1,4,1,-5,1,-17,1
785,-21,1,-7,1,14,1,14,1,-18,1,3,1,-7,1,1,1,0,1,4,1,-6,1,-18,1
786,-22,1,-8,1,14,1,15,1,-18,1,3,1,-7,1,1,1,0,1,3,1,-6,1,-18,1
787,-20,1,-5,1,15,1,12,1,-18,1,5,1,-6,1,1,1,1,1,4,1,-5,1,-17,1
788,-18,1,-3,1,15,1,10,1,-17,1,6,1,-6,1,2,1,2,1,4,1,-4,1,-16,1
789,-16,1,-1,1,15,1,8,1,-16,1,7,1,-6,1,2,1,2,1,4,1,-4,1,-16,1
790,-14,1,0,1,14,1,7,1,-14,1,7,1,-6,1,2,1,2,1,4,1,-4,1,-16,1
791,-16,1,-1,1,15,1,8,1,-16,1,7,1,-7,1,1,1,0,1,3,1,-4,1,-18,1
792,-16,1,-1,1,15,1,8,1,-16,1,7,1,-7,1,1,1,0,1,4,1,-4,1,-18,1
793,-17,1,-2,1,15,1,9,1,-16,1,6,1,-6,1,1,1,0,1,4,1,-5,1,-18,1
794,-17,1,-3,1,14,1,10,1,-16,1,5,1,-6,1,1,1,0,1,4,1,-5,1,-19,1
795,-17,1,-3,1,14,1,10,1,-16,1,5,1,-6,1,0,1,0,1,4,1,-5,1,-19,1
796,-15,1,0,1,15,1,7,1,-15,1,7,1,-7,1,0,1,0,1,4,1,-6,1,-19,1
797,-13,1,2,1,15,1,5,1,-14,1,8,1,-6,1,-1,1,0,1,4,1,-6,1,-19,1
798,-14,1,3,1,17,1,5,1,-15,1,10,1,-6,1,-1,1,0,1,3,1,-6,1,-19,1
799,-15,1,3,1,18,1,6,1,-16,1,10,1,-5,1,0,1,1,1,4,1,-5,1,-18,1
800,-14,1,4,1,18,1,5,1,-16,1,11,1,-5,1,-1,1,1,1,4,1,-4,1,-17,1
801,-14,1,4,1,18,1,5,1,-16,1,11,1,-5,1,0,1,2,1,5,1,-4,1,-17,1
802,-15,1,2,1,17,1,6,1,-16,1,9,1,-5,1,0,1,2,1,5,1,-4,1,-17,1
803,-15,1,2,1,17,1,6,1,-16,1,9,1,-6,1,0,1,1,1,5,1,-3,1,-17,1
804,-14,1,2,1,16,1,6,1,-15,1,9,1,-7,1,-1,1,0,1,5,1,-3,1,-17,1
805,-14,1,2,1,16,1,6,1,-15,1,9,1,-7,1,-1,1,0,1,6,1,-3,1,-17,1
806,-14,1,1,1,15,1,6,1,-14,1,8,1,-7,1,-1,1,1,1,6,1,-4,1,-17,1
807,-14,1,1,1,15,1,6,1,-14,1,8,1,-6,1,0,1,2,1,7,1,-3,1,-16,1
808,-13,1,2,1,15,1,5,1,-14,1,8,1,-6,1,1,1,2,1,7,1,-2,1,-16,1
809,-12,1,3,1,15,1,4,1,-13,1,9,1,-6,1,1,1,3,1,7,1,-2,1,-16,1
810,-11,1,3,1,14,1,4,1,-12,1,8,1,-5,1,2,1,4,1,8,1,-1,1,-15,1
811,-10,1,4,1,14,1,3,1,-12,1,9,1,-5,1,2,1,5,1,9,1,0,1,-14,1
812,-11,1,1,1,12,1,5,1,-11,1,6,1,-5,1,3,1,4,1,8,1,-1,1,-14,1
813,-14,1,0,1,14,1,7,1,-14,1,7,1,-6,1,2,1,4,1,8,1,-1,1,-15,1
814,-15,1,0,1,15,1,7,1,-15,1,7,1,-5,1,2,1,4,1,8,1,-1,1,-15,1
815,-14,1,1,1,15,1,6,1,-14,1,8,1,-5,1,1,1,5,1,9,1,-1,1,-15,1
816,-14,1,2,1,16,1,6,1,-15,1,9,1,-5,1,1,1,5,1,9,1,-1,1,-14,1
817,-13,1,3,1,16,1,5,1,-14,1,9,1,-4,1,2,1,5,1,9,1,-2,1,-14,1
818,-13,1,4,1,17,1,4,1,-15,1,10,1,-3,1,2,1,4,1,9,1,-3,1,-14,1
819,-12,1,4,1,16,1,4,1,-14,1,10,1,-2,1,3,1,4,1,9,1,-3,1,-14,1
820,-11,1,5,1,16,1,3,1,-13,1,10,1,-2,1,4,1,4,1,9,1,-3,1,-14,1
821,-10,1,5,1,15,1,2,1,-12,1,10,1,-1,1,4,1,3,1,8,1,-3,1,-14,1
822,-13,1,2,1,15,1,5,1,-14,1,8,1,-2,1,2,1,2,1,6,1,-5,1,-16,1
823,-14,1,1,1,15,1,6,1,-14,1,8,1,-2,1,1,1,2,1,6,1,-4,1,-16,1
824,-14,1,2,1,16,1,6,1,-15,1,9,1,-1,1,2,1,2,1,7,1,-3,1,-16,1
825,-13,1,4,1,17,1,4,1,-15,1,10,1,0,1,3,1,3,1,8,1,-2,1,-15,1
826,-13,1,5,1,18,1,4,1,-15,1,11,1,0,1,3,1,3,1,8,1,-3,1,-15,1
827,-16,1,1,1,17,1,7,1,-16,1,9,1,-2,1,1,1,1,1,6,1,-5,1,-17,1
828,-14,1,2,1,16,1,6,1,-15,1,9,1,-3,1,1,1,1,1,6,1,-4,1,-17,1
829,-10,1,4,1,14,1,3,1,-12,1,9,1,-3,1,2,1,3,1,7,1,-3,1,-16,1
830,-9,1,5,1,14,1,2,1,-11,1,9,1,-4,1,2,1,4,1,8,1,-2,1,-15,1
831,-10,1,4,1,14,1,3,1,-12,1,9,1,-4,1,3,1,4,1,9,1,-1,1,-14,1
832,-10,1,5,1,15,1,2,1,-12,1,10,1,-3,1,4,1,6,1,11,1,0,1,-12,1
833,-10,1,5,1,15,1,2,1,-12,1,10,1,-2,1,4,1,7,1,12,1,1,1,-11,1
834,-10,1,7,1,17,1,1,1,-13,1,12,1,-2,1,4,1,8,1,14,1,2,1,-10,1
835,-9,1,10,1,19,1,0,1,-14,1,14,1,-2,1,4,1,9,1,15,1,3,1,-9,1
836,-7,1,12,1,19,1,-2,1,-13,1,15,1,-2,1,4,1,9,1,16,1,3,1,-9,1
837,-7,1,13,1,20,1,-3,1,-13,1,16,1,-2,1,5,1,8,1,16,1,3,1,-9,1
838,-7,1,12,1,19,1,-2,1,-13,1,15,1,-2,1,5,1,8,1,16,1,3,1,-9,1
839,-6,1,13,1,19,1,-3,1,-12,1,16,1,-2,1,5,1,9,1,16,1,3,1,-10,1
840,-7,1,11,1,18,1,-2,1,-12,1,14,1,-2,1,4,1,8,1,15,1,2,1,-11,1
841,-7,1,10,1,17,1,-1,1,-12,1,13,1,-3,1,3,1,6,1,12,1,1,1,-12,1
842,-6,1,10,1,16,1,-2,1,-11,1,13,1,-2,1,4,1,5,1,12,1,1,1,-12,1
843,-6,1,10,1,16,1,-2,1,-11,1,13,1,-1,1,4,1,5,1,11,1,1,1,-12,1
844,-7,1,8,1,15,1,0,1,-11,1,11,1,-1,1,4,1,5,1,10,1,0,1,-13,1
845,-8,1,8,1,16,1,0,1,-12,1,12,1,0,1,5,1,5,1,10,1,0,1,-13,1
846,-7,1,10,1,17,1,-1,1,-12,1,13,1,0,1,5,1,7,1,10,1,0,1,-13,1
847,-6,1,10,1,16,1,-2,1,-11,1,13,1,1,1,5,1,8,1,11,1,-1,1,-13,1
848,-4,1,11,1,15,1,-3,1,-9,1,13,1,0,1,5,1,8,1,11,1,-2,1,-13,1
849,-1,1,12,1,13,1,-5,1,-7,1,12,1,0,1,4,1,7,1,12,1,-2,1,-13,1
850,-1,1,12,1,13,1,-5,1,-7,1,12,1,0,1,4,1,7,1,12,1,-1,1,-13,1
851,0,1,14,1,14,1,-7,1,-7,1,14,1,1,1,5,1,8,1,13,1,0,1,-12,1
852,1,1,14,1,13,1,-7,1,-6,1,14,1,0,1,5,1,8,1,14,1,0,1,-12,1
853,0,1,14,1,14,1,-7,1,-7,1,14,1,0,1,4,1,8,1,14,1,1,1,-12,1
854,-3,1,12,1,15,1,-4,1,-9,1,13,1,-1,1,3,1,7,1,13,1,0,1,-13,1
855,1,1,17,1,16,1,-9,1,-7,1,17,1,0,1,5,1,8,1,15,1,1,1,-11,1
856,2,1,18,1,16,1,-10,1,-7,1,17,1,1,1,6,1,9,1,16,1,2,1,-11,1
857,4,1,20,1,16,1,-12,1,-6,1,18,1,1,1,6,1,8,1,16,1,1,1,-11,1
858,3,1,20,1,17,1,-11,1,-7,1,19,1,0,1,5,1,8,1,16,1,0,1,-12,1
859,3,1,20,1,17,1,-11,1,-7,1,19,1,0,1,5,1,7,1,15,1,0,1,-12,1
860,4,1,22,1,18,1,-13,1,-7,1,20,1,-1,1,4,1,6,1,15,1,0,1,-12,1
861,3,1,21,1,18,1,-12,1,-7,1,20,1,-1,1,3,1,6,1,15,1,0,1,-12,1
862,2,1,21,1,19,1,-11,1,-8,1,20,1,0,1,4,1,6,1,16,1,0,1,-11,1
863,2,1,20,1,18,1,-11,1,-8,1,19,1,0,1,4,1,6,1,16,1,0,1,-10,1
864,3,1,22,1,19,1,-12,1,-8,1,21,1,1,1,4,1,6,1,17,1,0,1,-10,1
865,4,1,22,1,18,1,-13,1,-7,1,20,1,1,1,3,1,5,1,16,1,-1,1,-10,1
866,2,1,19,1,17,1,-10,1,-7,1,18,1,0,1,3,1,4,1,15,1,-2,1,-11,1
867,0,1,15,1,15,1,-7,1,-7,1,15,1,0,1,3,1,4,1,13,1,-2,1,-13,1
868,-1,1,14,1,15,1,-6,1,-8,1,14,1,0,1,2,1,4,1,13,1,-2,1,-13,1
869,0,1,14,1,14,1,-7,1,-7,1,14,1,1,1,2,1,5,1,13,1,-1,1,-13,1
870,1,1,16,1,15,1,-8,1,-7,1,16,1,2,1,2,1,6,1,13,1,-1,1,-13,1
871,3,1,18,1,15,1,-10,1,-6,1,17,1,3,1,3,1,6,1,14,1,0,1,-13,1
872,2,1,19,1,17,1,-10,1,-7,1,18,1,3,1,2,1,5,1,14,1,-1,1,-13,1
873,4,1,21,1,17,1,-12,1,-6,1,19,1,3,1,2,1,5,1,14,1,-2,1,-13,1
874,5,1,22,1,17,1,-13,1,-6,1,20,1,1,1,1,1,4,1,13,1,-2,1,-13,1
875,3,1,19,1,16,1,-11,1,-6,1,18,1,0,1,0,1,3,1,12,1,-3,1,-14,1
876,2,1,17,1,15,1,-9,1,-6,1,16,1,0,1,0,1,3,1,12,1,-3,1,-14,1
877,3,1,17,1,14,1,-10,1,-5,1,16,1,0,1,1,1,4,1,13,1,-2,1,-13,1
878,5,1,17,1,12,1,-11,1,-3,1,15,1,0,1,2,1,5,1,14,1,-2,1,-14,1
879,5,1,17,1,12,1,-11,1,-3,1,15,1,0,1,2,1,5,1,13,1,-3,1,-15,1
880,4,1,16,1,12,1,-10,1,-4,1,14,1,1,1,1,1,4,1,13,1,-3,1,-15,1
881,2,1,16,1,14,1,-9,1,-6,1,15,1,1,1,0,1,3,1,12,1,-4,1,-15,1
882,0,1,16,1,16,1,-8,1,-8,1,16,1,0,1,0,1,1,1,11,1,-4,1,-16,1
883,1,1,18,1,17,1,-9,1,-8,1,18,1,-1,1,-1,1,0,1,10,1,-5,1,-16,1
884,1,1,19,1,18,1,-10,1,-8,1,19,1,-2,1,-1,1,0,1,9,1,-5,1,-16,1
885,2,1,21,1,19,1,-11,1,-8,1,20,1,-2,1,-1,1,0,1,9,1,-5,1,-16,1
886,1,1,19,1,18,1,-10,1,-8,1,19,1,-2,1,-1,1,0,1,9,1,-6,1,-17,1
887,-1,1,17,1,18,1,-8,1,-9,1,17,1,-2,1,-2,1,0,1,8,1,-6,1,-17,1
888,1,1,17,1,16,1,-9,1,-7,1,17,1,-1,1,-2,1,0,1,8,1,-6,1,-17,1
889,2,1,17,1,15,1,-9,1,-6,1,16,1,-1,1,-3,1,0,1,8,1,-7,1,-18,1
890,4,1,18,1,14,1,-11,1,-5,1,16,1,0,1,-3,1,0,1,8,1,-7,1,-18,1
891,3,1,19,1,16,1,-11,1,-6,1,18,1,0,1,-3,1,1,1,8,1,-7,1,-18,1
892,3,1,18,1,15,1,-10,1,-6,1,17,1,1,1,-3,1,1,1,9,1,-7,1,-17,1
893,3,1,19,1,16,1,-11,1,-6,1,18,1,1,1,-2,1,1,1,10,1,-6,1,-16,1
894,3,1,19,1,16,1,-11,1,-6,1,18,1,1,1,-2,1,1,1,11,1,-6,1,-16,1
895,3,1,19,1,16,1,-11,1,-6,1,18,1,0,1,-2,1,1,1,11,1,-5,1,-15,1
896,3,1,20,1,17,1,-11,1,-7,1,19,1,0,1,-1,1,1,1,12,1,-4,1,-15,1
897,2,1,18,1,16,1,-10,1,-7,1,17,1,-1,1,-2,1,1,1,11,1,-4,1,-16,1
898,3,1,18,1,15,1,-10,1,-6,1,17,1,-1,1,-2,1,1,1,11,1,-3,1,-16,1
899,3,1,17,1,14,1,-10,1,-5,1,16,1,-1,1,-2,1,0,1,11,1,-3,1,-16,1
900,0,1,14,1,14,1,-7,1,-7,1,14,1,-2,1,-3,1,0,1,10,1,-5,1,-17,1
901,2,1,18,1,16,1,-10,1,-7,1,17,1,-1,1,-2,1,2,1,11,1,-5,1,-16,1
902,1,1,19,1,18,1,-10,1,-8,1,19,1,-2,1,-2,1,2,1,10,1,-6,1,-16,1
903,1,1,19,1,18,1,-10,1,-8,1,19,1,-2,1,-2,1,1,1,9,1,-7,1,-17,1
904,1,1,20,1,19,1,-10,1,-9,1,20,1,-1,1,-1,1,1,1,9,1,-7,1,-17,1
905,0,1,19,1,19,1,-9,1,-9,1,19,1,0,1,-1,1,1,1,9,1,-7,1,-18,1
906,1,1,18,1,17,1,-9,1,-8,1,18,1,0,1,-1,1,0,1,8,1,-7,1,-18,1
907,0,1,15,1,15,1,-7,1,-7,1,15,1,1,1,-2,1,0,1,8,1,-7,1,-18,1
908,1,1,15,1,14,1,-8,1,-6,1,15,1,2,1,-2,1,-1,1,8,1,-6,1,-18,1
909,1,1,16,1,15,1,-8,1,-7,1,16,1,3,1,-2,1,0,1,9,1,-6,1,-17,1
910,2,1,16,1,14,1,-9,1,-6,1,15,1,2,1,-3,1,0,1,8,1,-7,1,-17,1
911,5,1,19,1,14,1,-12,1,-4,1,17,1,1,1,-3,1,0,1,8,1,-7,1,-16,1
912,3,1,17,1,14,1,-10,1,-5,1,16,1,0,1,-5,1,0,1,7,1,-8,1,-17,1
913,-1,1,12,1,13,1,-5,1,-7,1,12,1,-3,1,-7,1,-2,1,5,1,-10,1,-19,1
914,3,1,17,1,14,1,-10,1,-5,1,16,1,-2,1,-5,1,0,1,6,1,-8,1,-17,1
915,5,1,19,1,14,1,-12,1,-4,1,17,1,-1,1,-3,1,0,1,7,1,-7,1,-17,1
916,2,1,17,1,15,1,-9,1,-6,1,16,1,-2,1,-3,1,-1,1,6,1,-7,1,-18,1
917,2,1,17,1,15,1,-9,1,-6,1,16,1,-2,1,-2,1,0,1,7,1,-6,1,-18,1
918,3,1,18,1,15,1,-10,1,-6,1,17,1,-2,1,-2,1,0,1,7,1,-6,1,-16,1
919,3,1,18,1,15,1,-10,1,-6,1,17,1,-2,1,-2,1,0,1,8,1,-5,1,-16,1
920,3,1,17,1,14,1,-10,1,-5,1,16,1,-2,1,-3,1,0,1,8,1,-5,1,-17,1
921,2,1,17,1,15,1,-9,1,-6,1,16,1,-1,1,-2,1,0,1,9,1,-5,1,-17,1
922,2,1,17,1,15,1,-9,1,-6,1,16,1,-1,1,-2,1,0,1,10,1,-5,1,-17,1
923,2,1,17,1,15,1,-9,1,-6,1,16,1,0,1,-2,1,0,1,10,1,-5,1,-16,1
924,2,1,17,1,15,1,-9,1,-6,1,16,1,0,1,-2,1,0,1,10,1,-5,1,-16,1
925,2,1,17,1,15,1,-9,1,-6,1,16,1,0,1,-3,1,-1,1,9,1,-6,1,-16,1
926,1,1,16,1,15,1,-8,1,-7,1,16,1,-1,1,-3,1,-3,1,7,1,-8,1,-16,1
927,1,1,16,1,15,1,-8,1,-7,1,16,1,-1,1,-4,1,-3,1,7,1,-8,1,-17,1
928,1,1,17,1,16,1,-9,1,-7,1,17,1,-1,1,-4,1,-3,1,7,1,-8,1,-17,1
929,1,1,16,1,15,1,-8,1,-7,1,16,1,-1,1,-5,1,-3,1,7,1,-9,1,-17,1
930,2,1,17,1,15,1,-9,1,-6,1,16,1,-1,1,-5,1,-2,1,7,1,-9,1,-17,1
931,1,1,15,1,14,1,-8,1,-6,1,15,1,0,1,-6,1,-3,1,7,1,-10,1,-17,1
932,2,1,15,1,13,1,-8,1,-5,1,14,1,0,1,-6,1,-2,1,7,1,-11,1,-17,1
933,2,1,14,1,12,1,-8,1,-5,1,13,1,0,1,-6,1,-3,1,6,1,-11,1,-17,1
934,2,1,14,1,12,1,-8,1,-5,1,13,1,0,1,-6,1,-3,1,5,1,-11,1,-17,1
935,1,1,14,1,13,1,-7,1,-6,1,14,1,0,1,-6,1,-4,1,5,1,-12,1,-17,1
936,1,1,15,1,14,1,-8,1,-6,1,15,1,1,1,-6,1,-3,1,5,1,-12,1,-17,1
937,1,1,16,1,15,1,-8,1,-7,1,16,1,1,1,-6,1,-3,1,5,1,-11,1,-16,1
938,0,1,16,1,16,1,-8,1,-8,1,16,1,0,1,-6,1,-3,1,5,1,-10,1,-16,1
939,0,1,17,1,17,1,-8,1,-8,1,17,1,0,1,-6,1,-4,1,5,1,-10,1,-16,1
940,1,1,18,1,17,1,-9,1,-8,1,18,1,0,1,-6,1,-4,1,6,1,-9,1,-15,1
941,1,1,17,1,16,1,-9,1,-7,1,17,1,-1,1,-6,1,-4,1,6,1,-9,1,-15,1
942,-3,1,12,1,15,1,-4,1,-9,1,13,1,-2,1,-7,1,-5,1,5,1,-10,1,-17,1
943,-4,1,10,1,14,1,-3,1,-9,1,12,1,-3,1,-8,1,-5,1,5,1,-11,1,-17,1
944,-1,1,12,1,13,1,-5,1,-7,1,12,1,-2,1,-8,1,-5,1,6,1,-12,1,-16,1
945,0,1,14,1,14,1,-7,1,-7,1,14,1,-2,1,-8,1,-4,1,5,1,-12,1,-16,1
946,1,1,15,1,14,1,-8,1,-6,1,15,1,-2,1,-8,1,-4,1,5,1,-13,1,-17,1
947,1,1,16,1,15,1,-8,1,-7,1,16,1,-2,1,-8,1,-3,1,5,1,-13,1,-17,1
948,1,1,15,1,14,1,-8,1,-6,1,15,1,-2,1,-8,1,-3,1,5,1,-13,1,-18,1
949,2,1,16,1,14,1,-9,1,-6,1,15,1,-2,1,-8,1,-3,1,5,1,-13,1,-18,1
950,2,1,16,1,14,1,-9,1,-6,1,15,1,-2,1,-8,1,-3,1,5,1,-13,1,-19,1
951,1,1,16,1,15,1,-8,1,-7,1,16,1,-2,1,-8,1,-4,1,5,1,-12,1,-19,1
952,0,1,15,1,15,1,-7,1,-7,1,15,1,-2,1,-8,1,-4,1,6,1,-11,1,-18,1
953,-1,1,15,1,16,1,-7,1,-8,1,15,1,-2,1,-8,1,-3,1,7,1,-11,1,-18,1
954,0,1,15,1,15,1,-7,1,-7,1,15,1,-2,1,-7,1,-2,1,7,1,-11,1,-17,1
955,2,1,17,1,15,1,-9,1,-6,1,16,1,-1,1,-5,1,-2,1,7,1,-10,1,-16,1
956,2,1,17,1,15,1,-9,1,-6,1,16,1,0,1,-5,1,-1,1,8,1,-10,1,-16,1
957,0,1,16,1,16,1,-8,1,-8,1,16,1,1,1,-5,1,-2,1,7,1,-11,1,-16,1
958,0,1,17,1,17,1,-8,1,-8,1,17,1,3,1,-4,1,0,1,8,1,-10,1,-17,1
959,1,1,19,1,18,1,-10,1,-8,1,19,1,5,1,-3,1,1,1,9,1,-10,1,-16,1
960,2,1,20,1,18,1,-11,1,-8,1,19,1,6,1,-2,1,2,1,10,1,-8,1,-16,1
961,2,1,21,1,19,1,-11,1,-8,1,20,1,8,1,-1,1,2,1,11,1,-8,1,-15,1
962,0,1,20,1,20,1,-10,1,-10,1,20,1,8,1,-1,1,2,1,11,1,-7,1,-13,1
963,0,1,20,1,20,1,-10,1,-10,1,20,1,8,1,0,1,1,1,11,1,-7,1,-12,1
964,0,1,20,1,20,1,-10,1,-10,1,20,1,9,1,0,1,1,1,10,1,-7,1,-12,1
965,-1,1,18,1,19,1,-8,1,-10,1,18,1,8,1,-1,1,1,1,9,1,-7,1,-12,1
966,1,1,20,1,19,1,-10,1,-9,1,20,1,9,1,0,1,2,1,10,1,-7,1,-11,1
967,2,1,21,1,19,1,-11,1,-8,1,20,1,10,1,0,1,3,1,10,1,-7,1,-12,1
968,2,1,22,1,20,1,-12,1,-9,1,21,1,10,1,0,1,3,1,11,1,-7,1,-12,1
969,0,1,22,1,22,1,-11,1,-11,1,22,1,10,1,0,1,4,1,10,1,-7,1,-13,1
970,-2,1,20,1,22,1,-9,1,-12,1,21,1,10,1,0,1,3,1,10,1,-8,1,-14,1
971,0,1,24,1,24,1,-12,1,-12,1,24,1,10,1,0,1,4,1,10,1,-8,1,-14,1
972,1,1,27,1,26,1,-14,1,-12,1,27,1,9,1,0,1,3,1,10,1,-8,1,-14,1
973,1,1,25,1,24,1,-13,1,-11,1,25,1,8,1,1,1,3,1,10,1,-8,1,-12,1
974,1,1,24,1,23,1,-12,1,-11,1,24,1,7,1,1,1,3,1,10,1,-8,1,-11,1
975,3,1,24,1,21,1,-13,1,-9,1,23,1,6,1,1,1,4,1,11,1,-8,1,-10,1
976,5,1,25,1,20,1,-15,1,-7,1,23,1,5,1,2,1,5,1,12,1,-6,1,-8,1
977,5,1,24,1,19,1,-14,1,-7,1,22,1,4,1,2,1,6,1,12,1,-6,1,-7,1
978,6,1,26,1,20,1,-16,1,-7,1,23,1,4,1,1,1,5,1,12,1,-5,1,-7,1
979,5,1,26,1,21,1,-15,1,-8,1,24,1,3,1,0,1,4,1,11,1,-5,1,-6,1
980,5,1,26,1,21,1,-15,1,-8,1,24,1,1,1,0,1,4,1,11,1,-5,1,-6,1
981,7,1,27,1,20,1,-17,1,-6,1,24,1,1,1,0,1,4,1,11,1,-5,1,-5,1
982,10,1,28,1,18,1,-19,1,-4,1,23,1,1,1,0,1,4,1,13,1,-4,1,-5,1
983,9,1,26,1,17,1,-17,1,-4,1,22,1,0,1,-1,1,3,1,12,1,-4,1,-5,1
984,8,1,25,1,17,1,-16,1,-4,1,21,1,-2,1,-1,1,3,1,12,1,-5,1,-5,1
985,7,1,24,1,17,1,-15,1,-5,1,21,1,-3,1,-2,1,2,1,12,1,-6,1,-6,1
986,7,1,24,1,17,1,-15,1,-5,1,21,1,-4,1,-3,1,2,1,11,1,-6,1,-6,1
987,6,1,23,1,17,1,-14,1,-5,1,20,1,-6,1,-5,1,1,1,11,1,-7,1,-7,1
988,8,1,25,1,17,1,-16,1,-4,1,21,1,-7,1,-6,1,1,1,12,1,-7,1,-7,1
989,9,1,26,1,17,1,-17,1,-4,1,22,1,-6,1,-6,1,0,1,11,1,-7,1,-7,1
990,10,1,27,1,17,1,-18,1,-3,1,22,1,-6,1,-6,1,0,1,9,1,-7,1,-7,1
991,11,1,27,1,16,1,-19,1,-2,1,22,1,-5,1,-7,1,0,1,9,1,-8,1,-7,1
992,10,1,28,1,18,1,-19,1,-4,1,23,1,-5,1,-7,1,0,1,8,1,-8,1,-7,1
993,9,1,26,1,17,1,-17,1,-4,1,22,1,-5,1,-8,1,-1,1,8,1,-8,1,-8,1
994,7,1,24,1,17,1,-15,1,-5,1,21,1,-5,1,-8,1,-2,1,8,1,-8,1,-8,1
995,8,1,24,1,16,1,-16,1,-4,1,20,1,-5,1,-7,1,-2,1,8,1,-8,1,-8,1
996,9,1,24,1,15,1,-16,1,-3,1,20,1,-5,1,-8,1,-2,1,6,1,-8,1,-9,1
997,10,1,24,1,14,1,-17,1,-2,1,19,1,-4,1,-8,1,-2,1,6,1,-8,1,-9,1
998,11,1,25,1,14,1,-18,1,-1,1,20,1,-3,1,-7,1,-1,1,8,1,-7,1,-8,1
999,8,1,22,1,14,1,-15,1,-3,1,18,1,-3,1,-7,1,-1,1,6,1,-8,1,-9,1
1000,4,1,19,1,15,1,-11,1,-5,1,17,1,-3,1,-7,1,-2,1,5,1,-10,1,-11,1
1001,2,1,18,1,16,1,-10,1,-7,1,17,1,-1,1,-6,1,-2,1,6,1,-10,1,-11,1
1002,3,1,19,1,16,1,-11,1,-6,1,18,1,-1,1,-6,1,-1,1,6,1,-10,1,-11,1
1003,3,1,18,1,15,1,-10,1,-6,1,17,1,0,1,-6,1,-2,1,6,1,-10,1,-11,1
1004,2,1,17,1,15,1,-9,1,-6,1,16,1,-1,1,-8,1,-3,1,5,1,-11,1,-13,1
1005,1,1,16,1,15,1,-8,1,-7,1,16,1,-2,1,-10,1,-4,1,4,1,-11,1,-14,1
1006,1,1,16,1,15,1,-8,1,-7,1,16,1,-3,1,-11,1,-5,1,3,1,-12,1,-15,1
1007,2,1,17,1,15,1,-9,1,-6,1,16,1,-3,1,-10,1,-6,1,2,1,-13,1,-15,1
1008,1,1,16,1,15,1,-8,1,-7,1,16,1,-3,1,-11,1,-6,1,1,1,-14,1,-15,1
1009,-3,1,13,1,16,1,-5,1,-9,1,14,1,-4,1,-12,1,-7,1,1,1,-16,1,-16,1
1010,-4,1,13,1,17,1,-4,1,-10,1,15,1,-4,1,-13,1,-8,1,0,1,-16,1,-16,1
1011,-3,1,14,1,17,1,-5,1,-10,1,15,1,-4,1,-12,1,-8,1,0,1,-17,1,-17,1
1012,-2,1,13,1,15,1,-5,1,-8,1,14,1,-4,1,-13,1,-8,1,-1,1,-17,1,-17,1
1013,-2,1,11,1,13,1,-4,1,-7,1,12,1,-4,1,-14,1,-10,1,-2,1,-18,1,-18,1
1014,-4,1,10,1,14,1,-3,1,-9,1,12,1,-5,1,-15,1,-11,1,-3,1,-19,1,-18,1
1015,-3,1,10,1,13,1,-3,1,-8,1,11,1,-4,1,-15,1,-11,1,-3,1,-19,1,-18,1
1016,-3,1,9,1,12,1,-3,1,-7,1,10,1,-4,1,-15,1,-12,1,-3,1,-20,1,-19,1
1017,-4,1,8,1,12,1,-2,1,-8,1,10,1,-5,1,-15,1,-12,1,-4,1,-21,1,-20,1
1018,-2,1,11,1,13,1,-4,1,-7,1,12,1,-4,1,-14,1,-11,1,-4,1,-20,1,-20,1
1019,-1,1,13,1,14,1,-6,1,-7,1,13,1,-3,1,-14,1,-10,1,-3,1,-19,1,-19,1
1020,-1,1,12,1,13,1,-5,1,-7,1,12,1,-3,1,-15,1,-10,1,-3,1,-19,1,-20,1
1021,-2,1,12,1,14,1,-5,1,-8,1,13,1,-3,1,-14,1,-11,1,-3,1,-19,1,-20,1
1022,-2,1,12,1,14,1,-5,1,-8,1,13,1,-2,1,-14,1,-11,1,-4,1,-19,1,-19,1
1023,-2,1,11,1,13,1,-4,1,-7,1,12,1,-2,1,-14,1,-11,1,-4,1,-20,1,-19,1
1024,-1,1,11,1,12,1,-5,1,-6,1,11,1,-2,1,-13,1,-12,1,-5,1,-21,1,-20,1
1025,0,1,12,1,12,1,-6,1,-6,1,12,1,-2,1,-13,1,-11,1,-5,1,-21,1,-19,1
1026,0,1,12,1,12,1,-6,1,-6,1,12,1,-2,1,-12,1,-11,1,-6,1,-21,1,-20,1
1027,1,1,12,1,11,1,-6,1,-5,1,12,1,-2,1,-12,1,-11,1,-5,1,-20,1,-20,1
1028,0,1,12,1,12,1,-6,1,-6,1,12,1,-3,1,-12,1,-11,1,-5,1,-20,1,-19,1
1029,0,1,13,1,13,1,-6,1,-6,1,13,1,-3,1,-12,1,-10,1,-5,1,-20,1,-19,1
1030,1,1,15,1,14,1,-8,1,-6,1,15,1,-3,1,-11,1,-9,1,-4,1,-20,1,-18,1
1031,1,1,16,1,15,1,-8,1,-7,1,16,1,-3,1,-10,1,-9,1,-4,1,-20,1,-18,1
1032,1,1,16,1,15,1,-8,1,-7,1,16,1,-2,1,-10,1,-9,1,-4,1,-20,1,-18,1
1033,0,1,12,1,12,1,-6,1,-6,1,12,1,-3,1,-10,1,-9,1,-4,1,-21,1,-20,1
1034,0,1,12,1,12,1,-6,1,-6,1,12,1,0,1,-6,1,-8,1,-5,1,-22,1,-20,1
1035,1,1,11,1,10,1,-6,1,-4,1,11,1,4,1,-2,1,-6,1,-5,1,-23,1,-21,1
1036,2,1,11,1,9,1,-6,1,-3,1,10,1,9,1,5,1,-1,1,-4,1,-22,1,-21,1
1037,1,1,10,1,9,1,-5,1,-4,1,10,1,12,1,13,1,4,1,-1,1,-20,1,-21,1
1038,1,1,11,1,10,1,-6,1,-4,1,11,1,16,1,21,1,11,1,2,1,-17,1,-20,1
1039,2,1,11,1,9,1,-6,1,-3,1,10,1,22,1,33,1,19,1,10,1,-12,1,-18,1
1040,4,1,10,1,6,1,-7,1,-1,1,8,1,26,1,46,1,31,1,19,1,-6,1,-15,1
1041,13,1,14,1,1,1,-13,1,6,1,8,1,36,1,66,1,47,1,34,1,5,1,-8,1
1042,25,1,20,1,-5,1,-22,1,15,1,8,1,47,1,91,1,69,1,53,1,20,1,2,1
1043,35,1,24,1,-11,1,-29,1,23,1,7,1,60,1,119,1,95,1,77,1,39,1,15,1
1044,44,1,29,1,-15,1,-36,1,30,1,7,1,73,1,149,1,122,1,102,1,61,1,31,1
1045,57,1,38,1,-19,1,-47,1,38,1,10,1,86,1,178,1,151,1,129,1,84,1,49,1
1046,67,1,46,1,-21,1,-56,1,44,1,13,1,91,1,200,1,176,1,154,1,108,1,68,1
1047,79,1,56,1,-23,1,-67,1,51,1,17,1,85,1,213,1,198,1,179,1,131,1,88,1
1048,94,1,73,1,-21,1,-83,1,58,1,26,1,66,1,217,1,218,1,204,1,155,1,109,1
1049,105,1,88,1,-17,1,-96,1,61,1,36,1,39,1,209,1,229,1,221,1,175,1,126,1
1050,109,1,102,1,-7,1,-105,1,58,1,48,1,12,1,195,1,232,1,231,1,187,1,139,1
1051,109,1,110,1,1,1,-109,1,54,1,56,1,-12,1,172,1,221,1,226,1,188,1,143,1
1052,104,1,107,1,3,1,-105,1,51,1,55,1,-36,1,137,1,192,1,202,1,174,1,137,1
1053,99,1,101,1,2,1,-100,1,49,1,52,1,-58,1,95,1,154,1,170,1,151,1,124,1
1054,88,1,90,1,2,1,-89,1,43,1,46,1,-79,1,49,1,112,1,133,1,123,1,108,1
1055,76,1,80,1,4,1,-78,1,36,1,42,1,-95,1,2,1,68,1,94,1,93,1,90,1
1056,63,1,72,1,9,1,-67,1,27,1,41,1,-104,1,-40,1,29,1,59,1,64,1,73,1
1057,51,1,66,1,15,1,-58,1,18,1,41,1,-108,1,-70,1,1,1,31,1,41,1,57,1
1058,39,1,59,1,20,1,-49,1,10,1,40,1,-104,1,-85,1,-17,1,12,1,22,1,43,1
1059,27,1,48,1,21,1,-37,1,3,1,35,1,-97,1,-87,1,-28,1,0,1,8,1,29,1
1060,21,1,38,1,17,1,-29,1,2,1,28,1,-85,1,-82,1,-32,1,-7,1,-2,1,16,1
1061,19,1,32,1,13,1,-25,1,3,1,23,1,-73,1,-73,1,-32,1,-11,1,-8,1,7,1
1062,17,1,29,1,12,1,-23,1,3,1,21,1,-61,1,-64,1,-30,1,-12,1,-11,1,1,1
1063,15,1,26,1,11,1,-20,1,2,1,19,1,-51,1,-55,1,-27,1,-12,1,-13,1,-2,1
1064,12,1,24,1,12,1,-18,1,0,1,18,1,-43,1,-47,1,-23,1,-11,1,-14,1,-4,1
1065,10,1,25,1,15,1,-17,1,-2,1,20,1,-35,1,-39,1,-19,1,-9,1,-15,1,-5,1
1066,9,1,26,1,17,1,-17,1,-4,1,22,1,-28,1,-31,1,-15,1,-8,1,-15,1,-5,1
1067,7,1,26,1,19,1,-16,1,-6,1,23,1,-23,1,-24,1,-13,1,-8,1,-16,1,-7,1
1068,4,1,22,1,18,1,-13,1,-7,1,20,1,-19,1,-20,1,-12,1,-9,1,-17,1,-9,1
1069,5,1,22,1,17,1,-13,1,-6,1,20,1,-14,1,-17,1,-11,1,-9,1,-17,1,-11,1
1070,6,1,20,1,14,1,-13,1,-4,1,17,1,-11,1,-15,1,-11,1,-9,1,-18,1,-14,1
1071,5,1,16,1,11,1,-10,1,-3,1,14,1,-9,1,-14,1,-10,1,-10,1,-18,1,-16,1
1072,3,1,14,1,11,1,-8,1,-4,1,13,1,-7,1,-13,1,-10,1,-10,1,-18,1,-17,1
1073,1,1,13,1,12,1,-7,1,-5,1,13,1,-6,1,-13,1,-10,1,-11,1,-19,1,-17,1
1074,0,1,13,1,13,1,-6,1,-6,1,13,1,-5,1,-13,1,-10,1,-11,1,-20,1,-17,1
1075,-1,1,12,1,13,1,-5,1,-7,1,12,1,-5,1,-13,1,-11,1,-12,1,-21,1,-17,1
1076,-1,1,13,1,14,1,-6,1,-7,1,13,1,-4,1,-12,1,-11,1,-12,1,-22,1,-18,1
1077,-1,1,14,1,15,1,-6,1,-8,1,14,1,-4,1,-12,1,-12,1,-13,1,-22,1,-18,1
1078,-2,1,13,1,15,1,-5,1,-8,1,14,1,-4,1,-11,1,-13,1,-14,1,-23,1,-20,1
1079,-1,1,13,1,14,1,-6,1,-7,1,13,1,-3,1,-11,1,-13,1,-15,1,-23,1,-21,1
1080,-3,1,11,1,14,1,-4,1,-8,1,12,1,-3,1,-11,1,-13,1,-16,1,-23,1,-22,1
1081,-4,1,10,1,14,1,-3,1,-9,1,12,1,-3,1,-11,1,-13,1,-16,1,-24,1,-22,1
1082,-2,1,13,1,15,1,-5,1,-8,1,14,1,-2,1,-10,1,-12,1,-15,1,-23,1,-21,1
1083,-1,1,14,1,15,1,-6,1,-8,1,14,1,-2,1,-10,1,-11,1,-15,1,-23,1,-20,1
1084,-5,1,10,1,15,1,-2,1,-10,1,12,1,-3,1,-10,1,-13,1,-17,1,-25,1,-21,1
1085,-5,1,10,1,15,1,-2,1,-10,1,12,1,-3,1,-10,1,-12,1,-16,1,-24,1,-21,1
1086,-5,1,11,1,16,1,-3,1,-10,1,13,1,-3,1,-9,1,-12,1,-16,1,-24,1,-20,1
1087,-5,1,10,1,15,1,-2,1,-10,1,12,1,-3,1,-8,1,-12,1,-16,1,-24,1,-21,1
1088,-6,1,8,1,14,1,-1,1,-10,1,11,1,-4,1,-8,1,-12,1,-17,1,-25,1,-21,1
1089,-5,1,8,1,13,1,-1,1,-9,1,10,1,-2,1,-8,1,-12,1,-16,1,-24,1,-21,1
1090,-1,1,12,1,13,1,-5,1,-7,1,12,1,-1,1,-6,1,-10,1,-15,1,-23,1,-19,1
1091,-2,1,11,1,13,1,-4,1,-7,1,12,1,-1,1,-6,1,-10,1,-16,1,-23,1,-19,1
1092,-2,1,11,1,13,1,-4,1,-7,1,12,1,0,1,-6,1,-9,1,-15,1,-22,1,-18,1
1093,0,1,12,1,12,1,-6,1,-6,1,12,1,0,1,-6,1,-8,1,-15,1,-22,1,-17,1
1094,-2,1,11,1,13,1,-4,1,-7,1,12,1,0,1,-6,1,-7,1,-14,1,-22,1,-17,1
1095,-2,1,11,1,13,1,-4,1,-7,1,12,1,-1,1,-7,1,-7,1,-15,1,-23,1,-18,1
1096,-4,1,9,1,13,1,-2,1,-8,1,11,1,-1,1,-7,1,-8,1,-15,1,-24,1,-19,1
1097,-4,1,9,1,13,1,-2,1,-8,1,11,1,-1,1,-7,1,-9,1,-16,1,-25,1,-19,1
1098,-1,1,11,1,12,1,-5,1,-6,1,11,1,-1,1,-6,1,-8,1,-16,1,-25,1,-19,1
1099,1,1,14,1,13,1,-7,1,-6,1,14,1,0,1,-5,1,-8,1,-15,1,-24,1,-18,1
1100,0,1,11,1,11,1,-5,1,-5,1,11,1,-1,1,-6,1,-8,1,-16,1,-24,1,-19,1
1101,0,1,11,1,11,1,-5,1,-5,1,11,1,-1,1,-6,1,-9,1,-17,1,-25,1,-20,1
1102,-2,1,9,1,11,1,-3,1,-6,1,10,1,-1,1,-7,1,-9,1,-17,1,-25,1,-20,1
1103,-4,1,9,1,13,1,-2,1,-8,1,11,1,-1,1,-7,1,-8,1,-17,1,-25,1,-20,1
1104,-4,1,8,1,12,1,-2,1,-8,1,10,1,-1,1,-7,1,-8,1,-16,1,-25,1,-20,1
1105,-5,1,8,1,13,1,-1,1,-9,1,10,1,-1,1,-7,1,-7,1,-15,1,-25,1,-19,1
1106,-4,1,8,1,12,1,-2,1,-8,1,10,1,-1,1,-7,1,-7,1,-14,1,-25,1,-19,1
1107,-1,1,10,1,11,1,-4,1,-6,1,10,1,-1,1,-6,1,-6,1,-13,1,-24,1,-19,1
1108,0,1,11,1,11,1,-5,1,-5,1,11,1,-1,1,-5,1,-6,1,-12,1,-23,1,-18,1
1109,0,1,10,1,10,1,-5,1,-5,1,10,1,0,1,-4,1,-6,1,-12,1,-23,1,-18,1
1110,-2,1,8,1,10,1,-3,1,-6,1,9,1,0,1,-5,1,-6,1,-13,1,-23,1,-18,1
1111,-1,1,9,1,10,1,-4,1,-5,1,9,1,0,1,-4,1,-5,1,-12,1,-22,1,-17,1
1112,-1,1,10,1,11,1,-4,1,-6,1,10,1,1,1,-3,1,-4,1,-11,1,-22,1,-16,1
1113,-1,1,10,1,11,1,-4,1,-6,1,10,1,1,1,-3,1,-4,1,-12,1,-21,1,-16,1
1114,-2,1,9,1,11,1,-3,1,-6,1,10,1,0,1,-3,1,-4,1,-12,1,-22,1,-17,1
1115,-1,1,10,1,11,1,-4,1,-6,1,10,1,0,1,-3,1,-5,1,-13,1,-23,1,-17,1
1116,-3,1,8,1,11,1,-2,1,-7,1,9,1,-1,1,-3,1,-5,1,-13,1,-23,1,-17,1
1117,-4,1,7,1,11,1,-1,1,-7,1,9,1,-1,1,-3,1,-6,1,-13,1,-23,1,-16,1
1118,-2,1,7,1,9,1,-2,1,-5,1,8,1,-1,1,-3,1,-5,1,-11,1,-22,1,-15,1
1119,-2,1,9,1,11,1,-3,1,-6,1,10,1,-1,1,-2,1,-5,1,-11,1,-21,1,-15,1
1120,-3,1,9,1,12,1,-3,1,-7,1,10,1,-1,1,-1,1,-5,1,-10,1,-21,1,-15,1
1121,-3,1,9,1,12,1,-3,1,-7,1,10,1,0,1,0,1,-4,1,-10,1,-20,1,-15,1
1122,-3,1,10,1,13,1,-3,1,-8,1,11,1,0,1,1,1,-4,1,-9,1,-19,1,-15,1
1123,-2,1,8,1,10,1,-3,1,-6,1,9,1,-1,1,1,1,-4,1,-10,1,-19,1,-15,1
1124,-2,1,7,1,9,1,-2,1,-5,1,8,1,0,1,0,1,-4,1,-11,1,-20,1,-15,1
1125,0,1,9,1,9,1,-4,1,-4,1,9,1,0,1,1,1,-3,1,-11,1,-19,1,-14,1
1126,0,1,10,1,10,1,-5,1,-5,1,10,1,1,1,1,1,-4,1,-11,1,-19,1,-14,1
1127,-1,1,9,1,10,1,-4,1,-5,1,9,1,1,1,2,1,-4,1,-11,1,-19,1,-13,1
1128,0,1,10,1,10,1,-5,1,-5,1,10,1,1,1,3,1,-4,1,-11,1,-19,1,-13,1
1129,0,1,10,1,10,1,-5,1,-5,1,10,1,2,1,4,1,-3,1,-11,1,-19,1,-14,1
1130,0,1,10,1,10,1,-5,1,-5,1,10,1,3,1,5,1,-2,1,-11,1,-19,1,-14,1
1131,0,1,9,1,9,1,-4,1,-4,1,9,1,4,1,5,1,-2,1,-10,1,-19,1,-15,1
1132,-1,1,8,1,9,1,-3,1,-5,1,8,1,4,1,5,1,-1,1,-11,1,-19,1,-15,1
1133,-3,1,7,1,10,1,-2,1,-6,1,8,1,4,1,5,1,-1,1,-11,1,-19,1,-16,1
1134,-3,1,5,1,8,1,-1,1,-5,1,6,1,4,1,5,1,0,1,-11,1,-19,1,-16,1
1135,-1,1,6,1,7,1,-2,1,-4,1,6,1,5,1,6,1,0,1,-11,1,-18,1,-15,1
1136,0,1,8,1,8,1,-4,1,-4,1,8,1,4,1,6,1,0,1,-11,1,-17,1,-15,1
1137,1,1,8,1,7,1,-4,1,-3,1,8,1,3,1,6,1,0,1,-11,1,-17,1,-15,1
1138,1,1,7,1,6,1,-4,1,-2,1,7,1,2,1,5,1,0,1,-11,1,-17,1,-15,1
1139,0,1,6,1,6,1,-3,1,-3,1,6,1,2,1,6,1,0,1,-11,1,-17,1,-14,1
1140,2,1,9,1,7,1,-5,1,-2,1,8,1,2,1,7,1,1,1,-10,1,-16,1,-13,1
1141,3,1,9,1,6,1,-6,1,-1,1,8,1,2,1,9,1,1,1,-9,1,-16,1,-13,1
1142,2,1,8,1,6,1,-5,1,-2,1,7,1,1,1,9,1,1,1,-10,1,-16,1,-13,1
1143,2,1,8,1,6,1,-5,1,-2,1,7,1,1,1,9,1,1,1,-9,1,-16,1,-13,1
1144,1,1,9,1,8,1,-5,1,-3,1,9,1,1,1,9,1,2,1,-9,1,-15,1,-14,1
1145,2,1,10,1,8,1,-6,1,-3,1,9,1,1,1,9,1,2,1,-9,1,-15,1,-13,1
1146,1,1,10,1,9,1,-5,1,-4,1,10,1,1,1,9,1,3,1,-9,1,-15,1,-13,1
1147,0,1,8,1,8,1,-4,1,-4,1,8,1,0,1,9,1,3,1,-9,1,-14,1,-14,1
1148,2,1,11,1,9,1,-6,1,-3,1,10,1,2,1,10,1,4,1,-7,1,-13,1,-13,1
1149,3,1,12,1,9,1,-7,1,-3,1,11,1,3,1,11,1,4,1,-6,1,-13,1,-12,1
1150,5,1,13,1,8,1,-9,1,-1,1,11,1,2,1,12,1,4,1,-6,1,-13,1,-12,1
1151,7,1,13,1,6,1,-10,1,1,1,10,1,3,1,12,1,4,1,-5,1,-13,1,-11,1
1152,7,1,14,1,7,1,-10,1,0,1,11,1,4,1,13,1,4,1,-5,1,-13,1,-11,1
1153,7,1,14,1,7,1,-10,1,0,1,11,1,4,1,14,1,4,1,-5,1,-13,1,-11,1
1154,6,1,14,1,8,1,-10,1,-1,1,11,1,4,1,14,1,4,1,-4,1,-13,1,-11,1
1155,5,1,14,1,9,1,-9,1,-2,1,12,1,5,1,16,1,5,1,-3,1,-12,1,-10,1
1156,5,1,14,1,9,1,-9,1,-2,1,12,1,4,1,16,1,6,1,-2,1,-12,1,-11,1
1157,5,1,14,1,9,1,-9,1,-2,1,12,1,4,1,15,1,6,1,-3,1,-11,1,-12,1
1158,6,1,14,1,8,1,-10,1,-1,1,11,1,4,1,14,1,7,1,-2,1,-11,1,-12,1
1159,4,1,13,1,9,1,-8,1,-2,1,11,1,4,1,13,1,7,1,-3,1,-11,1,-11,1
1160,4,1,12,1,8,1,-8,1,-2,1,10,1,4,1,13,1,7,1,-2,1,-11,1,-10,1
1161,3,1,12,1,9,1,-7,1,-3,1,11,1,3,1,14,1,7,1,-2,1,-10,1,-9,1
1162,6,1,14,1,8,1,-10,1,-1,1,11,1,4,1,16,1,9,1,0,1,-9,1,-7,1
1163,7,1,16,1,9,1,-11,1,-1,1,13,1,5,1,17,1,9,1,0,1,-8,1,-6,1
1164,7,1,16,1,9,1,-11,1,-1,1,13,1,5,1,18,1,9,1,0,1,-7,1,-5,1
1165,6,1,16,1,10,1,-11,1,-2,1,13,1,6,1,19,1,9,1,0,1,-7,1,-5,1
1166,7,1,16,1,9,1,-11,1,-1,1,13,1,7,1,19,1,10,1,0,1,-7,1,-4,1
1167,9,1,17,1,8,1,-13,1,1,1,13,1,7,1,20,1,10,1,0,1,-6,1,-4,1
1168,8,1,15,1,7,1,-11,1,1,1,11,1,6,1,20,1,10,1,0,1,-6,1,-4,1
1169,8,1,15,1,7,1,-11,1,1,1,11,1,5,1,20,1,10,1,0,1,-7,1,-4,1
1170,8,1,15,1,7,1,-11,1,1,1,11,1,5,1,20,1,10,1,0,1,-6,1,-4,1
1171,10,1,17,1,7,1,-13,1,2,1,12,1,5,1,20,1,11,1,0,1,-6,1,-3,1
1172,8,1,14,1,6,1,-11,1,1,1,10,1,3,1,17,1,9,1,0,1,-7,1,-4,1
1173,10,1,16,1,6,1,-13,1,2,1,11,1,3,1,17,1,10,1,0,1,-6,1,-4,1
1174,11,1,18,1,7,1,-14,1,2,1,13,1,4,1,18,1,11,1,0,1,-5,1,-3,1
1175,12,1,19,1,7,1,-15,1,3,1,13,1,5,1,18,1,11,1,0,1,-5,1,-3,1
1176,11,1,19,1,8,1,-15,1,2,1,14,1,5,1,18,1,10,1,0,1,-4,1,-3,1
1177,12,1,21,1,9,1,-16,1,2,1,15,1,5,1,19,1,11,1,0,1,-3,1,-2,1
1178,12,1,22,1,10,1,-17,1,1,1,16,1,5,1,19,1,12,1,0,1,-2,1,-2,1
1179,9,1,21,1,12,1,-15,1,-1,1,17,1,4,1,19,1,10,1,0,1,-3,1,-3,1
1180,10,1,21,1,11,1,-15,1,0,1,16,1,3,1,18,1,10,1,0,1,-3,1,-3,1
1181,11,1,21,1,10,1,-16,1,1,1,16,1,2,1,17,1,9,1,0,1,-4,1,-4,1
1182,13,1,22,1,9,1,-17,1,2,1,16,1,2,1,17,1,9,1,0,1,-3,1,-4,1
1183,14,1,24,1,10,1,-19,1,2,1,17,1,3,1,18,1,9,1,1,1,-3,1,-3,1
1184,13,1,23,1,10,1,-18,1,2,1,17,1,3,1,17,1,8,1,1,1,-3,1,-2,1
1185,12,1,23,1,11,1,-17,1,1,1,17,1,4,1,17,1,8,1,1,1,-3,1,-2,1
1186,12,1,23,1,11,1,-17,1,1,1,17,1,4,1,16,1,8,1,1,1,-2,1,-1,1
1187,15,1,25,1,10,1,-20,1,3,1,18,1,4,1,17,1,8,1,1,1,-2,1,0,1
1188,15,1,24,1,9,1,-19,1,3,1,17,1,4,1,16,1,8,1,1,1,-2,1,1,1
1189,14,1,24,1,10,1,-19,1,2,1,17,1,4,1,16,1,8,1,1,1,-1,1,1,1
1190,16,1,26,1,10,1,-21,1,3,1,18,1,5,1,16,1,9,1,1,1,0,1,2,1
1191,16,1,26,1,10,1,-21,1,3,1,18,1,4,1,16,1,9,1,1,1,0,1,3,1
1192,14,1,26,1,12,1,-20,1,1,1,19,1,3,1,15,1,10,1,1,1,0,1,3,1
1193,12,1,25,1,13,1,-18,1,0,1,19,1,2,1,14,1,9,1,1,1,0,1,2,1
1194,11,1,23,1,12,1,-17,1,0,1,18,1,1,1,13,1,9,1,0,1,0,1,1,1
1195,11,1,24,1,13,1,-17,1,-1,1,19,1,1,1,13,1,9,1,1,1,0,1,1,1
1196,13,1,26,1,13,1,-19,1,0,1,20,1,2,1,13,1,9,1,2,1,0,1,1,1
1197,12,1,26,1,14,1,-19,1,-1,1,20,1,2,1,13,1,9,1,3,1,1,1,1,1
1198,13,1,28,1,15,1,-20,1,-1,1,22,1,3,1,13,1,9,1,3,1,2,1,2,1
1199,14,1,28,1,14,1,-21,1,0,1,21,1,3,1,12,1,9,1,3,1,2,1,2,1
1200,15,1,29,1,14,1,-22,1,1,1,22,1,3,1,12,1,9,1,3,1,2,1,2,1
1201,15,1,29,1,14,1,-22,1,1,1,22,1,3,1,11,1,9,1,3,1,2,1,3,1
1202,15,1,30,1,15,1,-22,1,0,1,23,1,4,1,11,1,10,1,3,1,1,1,3,1
1203,10,1,25,1,15,1,-17,1,-2,1,20,1,3,1,10,1,10,1,1,1,0,1,2,1
1204,6,1,21,1,15,1,-13,1,-4,1,18,1,2,1,9,1,9,1,1,1,-1,1,1,1
1205,5,1,21,1,16,1,-13,1,-5,1,19,1,2,1,10,1,10,1,2,1,0,1,1,1
1206,6,1,23,1,17,1,-14,1,-5,1,20,1,3,1,10,1,11,1,3,1,0,1,0,1
1207,6,1,23,1,17,1,-14,1,-5,1,20,1,3,1,10,1,11,1,3,1,1,1,0,1
1208,6,1,24,1,18,1,-15,1,-6,1,21,1,3,1,10,1,11,1,4,1,1,1,0,1
1209,6,1,24,1,18,1,-15,1,-6,1,21,1,3,1,10,1,11,1,4,1,1,1,0,1
1210,4,1,23,1,19,1,-13,1,-7,1,21,1,3,1,11,1,12,1,4,1,1,1,0,1
1211,4,1,22,1,18,1,-13,1,-7,1,20,1,3,1,12,1,12,1,4,1,0,1,0,1
1212,1,1,17,1,16,1,-9,1,-7,1,17,1,2,1,11,1,11,1,2,1,-1,1,-2,1
1213,2,1,18,1,16,1,-10,1,-7,1,17,1,4,1,12,1,12,1,3,1,-1,1,-2,1
1214,4,1,18,1,14,1,-11,1,-5,1,16,1,5,1,13,1,13,1,3,1,-1,1,-2,1
1215,3,1,18,1,15,1,-10,1,-6,1,17,1,6,1,13,1,15,1,3,1,-1,1,-2,1
1216,4,1,18,1,14,1,-11,1,-5,1,16,1,6,1,13,1,15,1,4,1,-1,1,-3,1
1217,0,1,15,1,15,1,-7,1,-7,1,15,1,4,1,11,1,14,1,3,1,-1,1,-3,1
1218,-3,1,12,1,15,1,-4,1,-9,1,13,1,3,1,10,1,13,1,2,1,-3,1,-6,1
1219,0,1,16,1,16,1,-8,1,-8,1,16,1,4,1,11,1,14,1,3,1,-1,1,-5,1
1220,1,1,18,1,17,1,-9,1,-8,1,18,1,4,1,11,1,15,1,3,1,-1,1,-6,1
1221,2,1,18,1,16,1,-10,1,-7,1,17,1,4,1,11,1,15,1,3,1,-1,1,-6,1
1222,2,1,18,1,16,1,-10,1,-7,1,17,1,4,1,10,1,14,1,2,1,-1,1,-6,1
1223,0,1,16,1,16,1,-8,1,-8,1,16,1,4,1,10,1,14,1,2,1,-2,1,-5,1
1224,0,1,16,1,16,1,-8,1,-8,1,16,1,4,1,11,1,14,1,2,1,-2,1,-5,1
1225,0,1,14,1,14,1,-7,1,-7,1,14,1,4,1,11,1,14,1,1,1,-3,1,-6,1
1226,-1,1,13,1,14,1,-6,1,-7,1,13,1,3,1,10,1,14,1,0,1,-4,1,-6,1
1227,-2,1,11,1,13,1,-4,1,-7,1,12,1,4,1,10,1,14,1,1,1,-4,1,-7,1
1228,-2,1,11,1,13,1,-4,1,-7,1,12,1,4,1,9,1,13,1,1,1,-4,1,-7,1
1229,-1,1,11,1,12,1,-5,1,-6,1,11,1,3,1,9,1,13,1,0,1,-4,1,-8,1
1230,-3,1,9,1,12,1,-3,1,-7,1,10,1,2,1,6,1,12,1,0,1,-5,1,-10,1
1231,-4,1,8,1,12,1,-2,1,-8,1,10,1,1,1,5,1,11,1,-2,1,-6,1,-11,1
1232,-6,1,8,1,14,1,-1,1,-10,1,11,1,1,1,5,1,11,1,-3,1,-8,1,-11,1
1233,-6,1,9,1,15,1,-1,1,-10,1,12,1,1,1,5,1,11,1,-3,1,-8,1,-11,1
1234,-5,1,10,1,15,1,-2,1,-10,1,12,1,1,1,5,1,11,1,-3,1,-8,1,-10,1
1235,-5,1,11,1,16,1,-3,1,-10,1,13,1,1,1,5,1,11,1,-4,1,-8,1,-10,1
1236,-5,1,11,1,16,1,-3,1,-10,1,13,1,0,1,5,1,11,1,-4,1,-8,1,-9,1
1237,-6,1,9,1,15,1,-1,1,-10,1,12,1,0,1,5,1,10,1,-4,1,-9,1,-9,1
1238,-8,1,6,1,14,1,1,1,-11,1,10,1,-1,1,3,1,9,1,-5,1,-10,1,-10,1
1239,-7,1,5,1,12,1,1,1,-9,1,8,1,-1,1,3,1,8,1,-5,1,-10,1,-11,1
1240,-5,1,7,1,12,1,-1,1,-8,1,9,1,0,1,4,1,10,1,-4,1,-9,1,-10,1
1241,-7,1,6,1,13,1,0,1,-10,1,9,1,0,1,4,1,10,1,-5,1,-9,1,-10,1
1242,-9,1,5,1,14,1,2,1,-11,1,9,1,0,1,4,1,9,1,-6,1,-10,1,-10,1
1243,-10,1,3,1,13,1,3,1,-11,1,8,1,-1,1,4,1,9,1,-6,1,-9,1,-11,1
1244,-10,1,3,1,13,1,3,1,-11,1,8,1,-2,1,4,1,9,1,-6,1,-9,1,-11,1
1245,-8,1,4,1,12,1,2,1,-10,1,8,1,-2,1,3,1,9,1,-6,1,-9,1,-11,1
1246,-7,1,6,1,13,1,0,1,-10,1,9,1,-2,1,2,1,9,1,-7,1,-8,1,-11,1
1247,-7,1,7,1,14,1,0,1,-10,1,10,1,-2,1,2,1,9,1,-7,1,-8,1,-11,1
1248,-7,1,8,1,15,1,0,1,-11,1,11,1,-2,1,2,1,10,1,-7,1,-8,1,-11,1
1249,-8,1,7,1,15,1,0,1,-11,1,11,1,-2,1,3,1,10,1,-7,1,-8,1,-11,1
1250,-8,1,7,1,15,1,0,1,-11,1,11,1,-2,1,3,1,10,1,-6,1,-8,1,-11,1
1251,-8,1,6,1,14,1,1,1,-11,1,10,1,-2,1,3,1,11,1,-6,1,-9,1,-12,1
1252,-8,1,5,1,13,1,1,1,-10,1,9,1,-2,1,4,1,11,1,-6,1,-9,1,-11,1
1253,-9,1,4,1,13,1,2,1,-11,1,8,1,-3,1,3,1,10,1,-7,1,-10,1,-12,1
1254,-10,1,2,1,12,1,4,1,-11,1,7,1,-2,1,3,1,10,1,-7,1,-10,1,-12,1
1255,-11,1,0,1,11,1,5,1,-11,1,5,1,-3,1,3,1,9,1,-8,1,-11,1,-13,1
1256,-7,1,3,1,10,1,2,1,-8,1,6,1,-2,1,4,1,10,1,-7,1,-9,1,-11,1
1257,-8,1,1,1,9,1,3,1,-8,1,5,1,-2,1,3,1,8,1,-8,1,-9,1,-12,1
1258,-7,1,3,1,10,1,2,1,-8,1,6,1,-3,1,3,1,9,1,-9,1,-8,1,-11,1
1259,-6,1,5,1,11,1,0,1,-8,1,8,1,-2,1,3,1,10,1,-8,1,-7,1,-10,1
1260,-7,1,6,1,13,1,0,1,-10,1,9,1,-2,1,3,1,10,1,-8,1,-7,1,-10,1
1261,-8,1,6,1,14,1,1,1,-11,1,10,1,-2,1,3,1,11,1,-7,1,-7,1,-10,1
1262,-10,1,4,1,14,1,3,1,-12,1,9,1,-2,1,3,1,10,1,-7,1,-7,1,-10,1
1263,-11,1,3,1,14,1,4,1,-12,1,8,1,-2,1,4,1,10,1,-7,1,-7,1,-9,1
1264,-8,1,4,1,12,1,2,1,-10,1,8,1,0,1,5,1,11,1,-6,1,-7,1,-8,1
1265,-7,1,4,1,11,1,1,1,-9,1,7,1,0,1,5,1,12,1,-6,1,-7,1,-8,1
1266,-7,1,1,1,8,1,3,1,-7,1,4,1,-1,1,5,1,12,1,-6,1,-7,1,-8,1
1267,-9,1,1,1,10,1,4,1,-9,1,5,1,-1,1,5,1,12,1,-6,1,-7,1,-8,1
1268,-11,1,0,1,11,1,5,1,-11,1,5,1,-2,1,5,1,11,1,-6,1,-7,1,-8,1
1269,-10,1,0,1,10,1,5,1,-10,1,5,1,-3,1,4,1,10,1,-8,1,-7,1,-10,1
1270,-7,1,2,1,9,1,2,1,-8,1,5,1,-4,1,3,1,10,1,-8,1,-6,1,-10,1
1271,-6,1,4,1,10,1,1,1,-8,1,7,1,-3,1,4,1,11,1,-8,1,-5,1,-9,1
1272,-5,1,4,1,9,1,0,1,-7,1,6,1,-3,1,4,1,12,1,-9,1,-5,1,-9,1
1273,-7,1,3,1,10,1,2,1,-8,1,6,1,-3,1,4,1,12,1,-8,1,-6,1,-8,1
1274,-7,1,2,1,9,1,2,1,-8,1,5,1,-2,1,4,1,12,1,-8,1,-6,1,-7,1
1275,-7,1,2,1,9,1,2,1,-8,1,5,1,-2,1,5,1,12,1,-8,1,-6,1,-7,1
1276,-7,1,1,1,8,1,3,1,-7,1,4,1,-2,1,6,1,12,1,-8,1,-6,1,-7,1
1277,-7,1,1,1,8,1,3,1,-7,1,4,1,-2,1,6,1,12,1,-8,1,-6,1,-7,1
1278,-8,1,0,1,8,1,4,1,-8,1,4,1,-3,1,5,1,11,1,-9,1,-6,1,-8,1
1279,-9,1,0,1,9,1,4,1,-9,1,4,1,-3,1,5,1,11,1,-9,1,-6,1,-9,1
1280,-5,1,4,1,9,1,0,1,-7,1,6,1,-2,1,5,1,12,1,-8,1,-5,1,-7,1
1281,-6,1,4,1,10,1,1,1,-8,1,7,1,-2,1,4,1,13,1,-8,1,-4,1,-7,1
1282,-8,1,1,1,9,1,3,1,-8,1,5,1,-3,1,4,1,13,1,-8,1,-5,1,-9,1
1283,-8,1,1,1,9,1,3,1,-8,1,5,1,-3,1,4,1,13,1,-8,1,-5,1,-9,1
1284,-7,1,1,1,8,1,3,1,-7,1,4,1,-3,1,5,1,13,1,-6,1,-4,1,-10,1
1285,-7,1,0,1,7,1,3,1,-7,1,3,1,-3,1,6,1,12,1,-6,1,-4,1,-10,1
1286,-7,1,0,1,7,1,3,1,-7,1,3,1,-4,1,6,1,12,1,-6,1,-4,1,-10,1
1287,-7,1,-1,1,6,1,4,1,-7,1,2,1,-4,1,5,1,11,1,-6,1,-4,1,-9,1
1288,-7,1,0,1,7,1,3,1,-7,1,3,1,-4,1,4,1,11,1,-7,1,-4,1,-9,1
1289,-6,1,1,1,7,1,2,1,-6,1,4,1,-4,1,3,1,12,1,-6,1,-4,1,-9,1
1290,-5,1,2,1,7,1,1,1,-6,1,4,1,-4,1,2,1,12,1,-6,1,-5,1,-9,1
1291,-5,1,2,1,7,1,1,1,-6,1,4,1,-4,1,2,1,11,1,-6,1,-5,1,-9,1
1292,-6,1,1,1,7,1,2,1,-6,1,4,1,-5,1,2,1,11,1,-6,1,-5,1,-9,1
1293,-6,1,1,1,7,1,2,1,-6,1,4,1,-5,1,2,1,11,1,-7,1,-5,1,-10,1
1294,-10,1,-2,1,8,1,6,1,-9,1,3,1,-6,1,1,1,10,1,-7,1,-6,1,-11,1
1295,-10,1,-3,1,7,1,6,1,-9,1,2,1,-6,1,1,1,10,1,-7,1,-7,1,-12,1
1296,-8,1,-1,1,7,1,4,1,-8,1,3,1,-5,1,2,1,11,1,-6,1,-6,1,-10,1
1297,-6,1,0,1,6,1,3,1,-6,1,3,1,-6,1,3,1,12,1,-6,1,-6,1,-10,1
1298,-8,1,-3,1,5,1,5,1,-7,1,1,1,-7,1,1,1,10,1,-8,1,-7,1,-11,1
1299,-10,1,-4,1,6,1,7,1,-8,1,1,1,-8,1,1,1,10,1,-10,1,-8,1,-12,1
1300,-8,1,-2,1,6,1,5,1,-7,1,2,1,-8,1,2,1,11,1,-10,1,-8,1,-11,1
1301,-7,1,-1,1,6,1,4,1,-7,1,2,1,-7,1,2,1,11,1,-10,1,-8,1,-11,1
1302,-7,1,-1,1,6,1,4,1,-7,1,2,1,-7,1,1,1,10,1,-10,1,-8,1,-12,1
1303,-9,1,-3,1,6,1,6,1,-8,1,1,1,-7,1,0,1,10,1,-10,1,-8,1,-13,1
1304,-9,1,-2,1,7,1,5,1,-8,1,2,1,-7,1,0,1,10,1,-9,1,-8,1,-13,1
1305,-9,1,-3,1,6,1,6,1,-8,1,1,1,-6,1,1,1,10,1,-9,1,-8,1,-13,1
1306,-7,1,-2,1,5,1,4,1,-6,1,1,1,-7,1,1,1,10,1,-9,1,-8,1,-12,1
1307,-7,1,-2,1,5,1,4,1,-6,1,1,1,-6,1,1,1,9,1,-9,1,-8,1,-12,1
1308,-11,1,-6,1,5,1,8,1,-8,1,-1,1,-8,1,0,1,7,1,-10,1,-9,1,-13,1
1309,-11,1,-5,1,6,1,8,1,-9,1,0,1,-9,1,-1,1,6,1,-11,1,-9,1,-13,1
1310,-8,1,-2,1,6,1,5,1,-7,1,2,1,-8,1,-1,1,7,1,-11,1,-8,1,-12,1
1311,-7,1,0,1,7,1,3,1,-7,1,3,1,-8,1,-1,1,8,1,-11,1,-8,1,-11,1
1312,-7,1,0,1,7,1,3,1,-7,1,3,1,-8,1,-1,1,8,1,-11,1,-8,1,-11,1
1313,-9,1,-1,1,8,1,5,1,-9,1,3,1,-8,1,-1,1,8,1,-12,1,-8,1,-11,1
1314,-11,1,-3,1,8,1,7,1,-10,1,2,1,-8,1,-1,1,8,1,-12,1,-8,1,-12,1
1315,-12,1,-5,1,7,1,8,1,-10,1,1,1,-8,1,0,1,8,1,-12,1,-9,1,-12,1
1316,-10,1,-4,1,6,1,7,1,-8,1,1,1,-7,1,0,1,8,1,-12,1,-8,1,-12,1
1317,-10,1,-5,1,5,1,7,1,-8,1,0,1,-7,1,0,1,7,1,-13,1,-9,1,-12,1
1318,-11,1,-7,1,4,1,9,1,-8,1,-2,1,-8,1,-1,1,7,1,-14,1,-9,1,-14,1
1319,-10,1,-6,1,4,1,8,1,-7,1,-1,1,-8,1,-1,1,6,1,-14,1,-9,1,-14,1
1320,-8,1,-4,1,4,1,6,1,-6,1,0,1,-9,1,-1,1,6,1,-14,1,-9,1,-14,1
1321,-8,1,-2,1,6,1,5,1,-7,1,2,1,-10,1,-1,1,6,1,-14,1,-9,1,-13,1
1322,-7,1,-1,1,6,1,4,1,-7,1,2,1,-10,1,-1,1,6,1,-14,1,-9,1,-13,1
1323,-7,1,-1,1,6,1,4,1,-7,1,2,1,-10,1,-1,1,7,1,-14,1,-9,1,-12,1
1324,-7,1,0,1,7,1,3,1,-7,1,3,1,-10,1,-1,1,6,1,-14,1,-9,1,-12,1
1325,-7,1,0,1,7,1,3,1,-7,1,3,1,-10,1,-1,1,6,1,-14,1,-9,1,-12,1
1326,-9,1,-1,1,8,1,5,1,-9,1,3,1,-10,1,-1,1,6,1,-14,1,-9,1,-12,1
1327,-11,1,-3,1,8,1,7,1,-10,1,2,1,-10,1,0,1,6,1,-15,1,-10,1,-13,1
1328,-12,1,-4,1,8,1,8,1,-10,1,2,1,-11,1,0,1,5,1,-15,1,-10,1,-13,1
1329,-10,1,-2,1,8,1,6,1,-9,1,3,1,-10,1,2,1,5,1,-15,1,-9,1,-12,1
1330,-8,1,-1,1,7,1,4,1,-8,1,3,1,-9,1,2,1,5,1,-14,1,-9,1,-11,1
1331,-9,1,-2,1,7,1,5,1,-8,1,2,1,-9,1,3,1,5,1,-14,1,-9,1,-11,1
1332,-12,1,-5,1,7,1,8,1,-10,1,1,1,-8,1,3,1,5,1,-14,1,-9,1,-11,1
1333,-14,1,-6,1,8,1,10,1,-11,1,1,1,-8,1,1,1,4,1,-14,1,-9,1,-11,1
1334,-13,1,-7,1,6,1,10,1,-10,1,-1,1,-9,1,1,1,4,1,-15,1,-9,1,-11,1
1335,-10,1,-5,1,5,1,7,1,-8,1,0,1,-9,1,1,1,4,1,-15,1,-8,1,-11,1
1336,-12,1,-6,1,6,1,9,1,-9,1,0,1,-9,1,0,1,4,1,-15,1,-8,1,-12,1
1337,-14,1,-7,1,7,1,10,1,-11,1,0,1,-10,1,0,1,4,1,-16,1,-8,1,-12,1
1338,-16,1,-7,1,9,1,11,1,-13,1,1,1,-9,1,1,1,3,1,-16,1,-8,1,-13,1
1339,-16,1,-8,1,8,1,12,1,-12,1,0,1,-10,1,1,1,3,1,-17,1,-8,1,-13,1
1340,-16,1,-8,1,8,1,12,1,-12,1,0,1,-10,1,1,1,3,1,-17,1,-8,1,-14,1
1341,-15,1,-8,1,7,1,11,1,-11,1,-1,1,-10,1,2,1,3,1,-17,1,-8,1,-14,1
1342,-15,1,-8,1,7,1,11,1,-11,1,-1,1,-10,1,3,1,3,1,-17,1,-8,1,-14,1
1343,-15,1,-10,1,5,1,12,1,-10,1,-3,1,-11,1,2,1,2,1,-18,1,-9,1,-15,1
1344,-12,1,-7,1,5,1,9,1,-9,1,-1,1,-10,1,2,1,2,1,-17,1,-8,1,-14,1
1345,-13,1,-8,1,5,1,10,1,-9,1,-2,1,-10,1,3,1,2,1,-17,1,-8,1,-14,1
1346,-14,1,-9,1,5,1,11,1,-10,1,-2,1,-10,1,3,1,2,1,-17,1,-9,1,-14,1
1347,-14,1,-9,1,5,1,11,1,-10,1,-2,1,-10,1,4,1,2,1,-18,1,-9,1,-13,1
1348,-15,1,-9,1,6,1,12,1,-11,1,-2,1,-11,1,2,1,1,1,-18,1,-10,1,-13,1
1349,-16,1,-10,1,6,1,13,1,-11,1,-2,1,-11,1,2,1,1,1,-18,1,-11,1,-14,1
1350,-16,1,-10,1,6,1,13,1,-11,1,-2,1,-10,1,3,1,1,1,-18,1,-10,1,-13,1
1351,-16,1,-10,1,6,1,13,1,-11,1,-2,1,-10,1,3,1,1,1,-18,1,-11,1,-13,1
1352,-18,1,-12,1,6,1,15,1,-12,1,-3,1,-10,1,3,1,1,1,-18,1,-12,1,-14,1
1353,-18,1,-12,1,6,1,15,1,-12,1,-3,1,-10,1,3,1,1,1,-19,1,-11,1,-13,1
1354,-17,1,-12,1,5,1,14,1,-11,1,-4,1,-11,1,4,1,0,1,-19,1,-11,1,-13,1
1355,-17,1,-13,1,4,1,15,1,-11,1,-5,1,-12,1,3,1,-1,1,-20,1,-11,1,-13,1
1356,-18,1,-13,1,5,1,15,1,-12,1,-4,1,-12,1,3,1,-2,1,-20,1,-11,1,-13,1
1357,-20,1,-14,1,6,1,17,1,-13,1,-4,1,-13,1,2,1,-3,1,-21,1,-11,1,-14,1
1358,-18,1,-11,1,7,1,14,1,-13,1,-2,1,-11,1,3,1,-1,1,-20,1,-10,1,-12,1
1359,-15,1,-7,1,8,1,11,1,-12,1,0,1,-10,1,4,1,0,1,-19,1,-9,1,-11,1
1360,-14,1,-7,1,7,1,10,1,-11,1,0,1,-10,1,5,1,0,1,-18,1,-9,1,-11,1
1361,-17,1,-10,1,7,1,13,1,-12,1,-2,1,-11,1,3,1,-1,1,-19,1,-11,1,-12,1
1362,-19,1,-14,1,5,1,16,1,-12,1,-5,1,-13,1,1,1,-3,1,-21,1,-13,1,-14,1
1363,-17,1,-13,1,4,1,15,1,-11,1,-5,1,-13,1,0,1,-2,1,-20,1,-12,1,-14,1
1364,-16,1,-13,1,3,1,14,1,-10,1,-5,1,-13,1,0,1,-3,1,-21,1,-11,1,-14,1
1365,-15,1,-13,1,2,1,14,1,-9,1,-6,1,-13,1,0,1,-2,1,-20,1,-10,1,-14,1
1366,-15,1,-13,1,2,1,14,1,-9,1,-6,1,-14,1,0,1,-3,1,-21,1,-10,1,-14,1
1367,-17,1,-13,1,4,1,15,1,-11,1,-5,1,-13,1,1,1,-2,1,-21,1,-10,1,-14,1
1368,-17,1,-13,1,4,1,15,1,-11,1,-5,1,-12,1,1,1,-2,1,-21,1,-10,1,-13,1
1369,-16,1,-11,1,5,1,13,1,-11,1,-3,1,-12,1,2,1,-2,1,-21,1,-10,1,-13,1
1370,-16,1,-11,1,5,1,13,1,-11,1,-3,1,-12,1,2,1,-2,1,-22,1,-10,1,-13,1
1371,-16,1,-11,1,5,1,13,1,-11,1,-3,1,-12,1,3,1,-2,1,-22,1,-11,1,-12,1
1372,-16,1,-11,1,5,1,13,1,-11,1,-3,1,-12,1,3,1,-3,1,-21,1,-11,1,-13,1
1373,-15,1,-11,1,4,1,13,1,-10,1,-4,1,-12,1,3,1,-3,1,-20,1,-11,1,-12,1
1374,-14,1,-9,1,5,1,11,1,-10,1,-2,1,-12,1,3,1,-3,1,-20,1,-10,1,-11,1
1375,-15,1,-10,1,5,1,12,1,-10,1,-3,1,-12,1,3,1,-4,1,-20,1,-10,1,-11,1
1376,-15,1,-10,1,5,1,12,1,-10,1,-3,1,-12,1,3,1,-4,1,-19,1,-10,1,-11,1
1377,-15,1,-10,1,5,1,12,1,-10,1,-3,1,-12,1,2,1,-3,1,-19,1,-10,1,-11,1
1378,-16,1,-10,1,6,1,13,1,-11,1,-2,1,-13,1,1,1,-4,1,-20,1,-11,1,-12,1
1379,-15,1,-10,1,5,1,12,1,-10,1,-3,1,-13,1,1,1,-3,1,-20,1,-11,1,-12,1
1380,-16,1,-10,1,6,1,13,1,-11,1,-2,1,-13,1,1,1,-3,1,-21,1,-12,1,-12,1
1381,-18,1,-11,1,7,1,14,1,-13,1,-2,1,-12,1,2,1,-4,1,-21,1,-12,1,-12,1
1382,-18,1,-10,1,8,1,14,1,-13,1,-1,1,-12,1,2,1,-4,1,-21,1,-12,1,-12,1
1383,-18,1,-10,1,8,1,14,1,-13,1,-1,1,-12,1,2,1,-5,1,-21,1,-12,1,-12,1
1384,-17,1,-10,1,7,1,13,1,-12,1,-2,1,-12,1,2,1,-5,1,-21,1,-12,1,-12,1
1385,-17,1,-11,1,6,1,14,1,-12,1,-3,1,-12,1,1,1,-6,1,-21,1,-12,1,-12,1
1386,-18,1,-12,1,6,1,15,1,-12,1,-3,1,-13,1,0,1,-6,1,-21,1,-13,1,-14,1
1387,-17,1,-12,1,5,1,14,1,-11,1,-4,1,-13,1,1,1,-5,1,-19,1,-12,1,-14,1
1388,-16,1,-10,1,6,1,13,1,-11,1,-2,1,-12,1,3,1,-4,1,-18,1,-12,1,-14,1
1389,-16,1,-11,1,5,1,13,1,-11,1,-3,1,-12,1,4,1,-4,1,-18,1,-12,1,-14,1
1390,-16,1,-11,1,5,1,13,1,-11,1,-3,1,-11,1,4,1,-4,1,-18,1,-12,1,-13,1
1391,-14,1,-11,1,3,1,12,1,-9,1,-4,1,-11,1,4,1,-5,1,-18,1,-12,1,-13,1
1392,-12,1,-10,1,2,1,11,1,-7,1,-4,1,-12,1,4,1,-5,1,-19,1,-13,1,-14,1
1393,-12,1,-10,1,2,1,11,1,-7,1,-4,1,-11,1,4,1,-5,1,-19,1,-13,1,-13,1
1394,-13,1,-10,1,3,1,11,1,-8,1,-4,1,-11,1,4,1,-5,1,-19,1,-13,1,-13,1
1395,-13,1,-9,1,4,1,11,1,-9,1,-3,1,-10,1,4,1,-4,1,-19,1,-13,1,-12,1
1396,-13,1,-8,1,5,1,10,1,-9,1,-2,1,-10,1,4,1,-3,1,-18,1,-13,1,-12,1
1397,-14,1,-8,1,6,1,11,1,-10,1,-1,1,-10,1,4,1,-3,1,-18,1,-13,1,-12,1
1398,-14,1,-8,1,6,1,11,1,-10,1,-1,1,-10,1,4,1,-3,1,-18,1,-13,1,-12,1
1399,-14,1,-7,1,7,1,10,1,-11,1,0,1,-9,1,4,1,-2,1,-17,1,-12,1,-11,1
1400,-16,1,-7,1,9,1,11,1,-13,1,1,1,-8,1,5,1,-1,1,-16,1,-11,1,-10,1
1401,-17,1,-7,1,10,1,12,1,-14,1,1,1,-8,1,5,1,-1,1,-16,1,-11,1,-10,1
1402,-16,1,-6,1,10,1,11,1,-13,1,2,1,-7,1,5,1,0,1,-15,1,-11,1,-10,1
1403,-14,1,-4,1,10,1,9,1,-12,1,3,1,-6,1,6,1,0,1,-15,1,-11,1,-9,1
1404,-13,1,-4,1,9,1,8,1,-11,1,2,1,-5,1,6,1,0,1,-15,1,-11,1,-9,1
1405,-11,1,-3,1,8,1,7,1,-10,1,2,1,-3,1,7,1,0,1,-15,1,-10,1,-9,1
1406,-11,1,-3,1,8,1,7,1,-10,1,2,1,-2,1,7,1,0,1,-14,1,-10,1,-7,1
1407,-12,1,-2,1,10,1,7,1,-11,1,4,1,-1,1,8,1,1,1,-14,1,-9,1,-8,1
1408,-12,1,-2,1,10,1,7,1,-11,1,4,1,-2,1,8,1,0,1,-14,1,-10,1,-8,1
1409,-14,1,-2,1,12,1,8,1,-13,1,5,1,-1,1,9,1,1,1,-13,1,-9,1,-8,1
1410,-14,1,0,1,14,1,7,1,-14,1,7,1,-1,1,9,1,2,1,-13,1,-9,1,-7,1
1411,-13,1,0,1,13,1,6,1,-13,1,6,1,-1,1,9,1,3,1,-13,1,-8,1,-7,1
1412,-12,1,1,1,13,1,5,1,-12,1,7,1,-1,1,10,1,3,1,-12,1,-9,1,-7,1
1413,-10,1,1,1,11,1,4,1,-10,1,6,1,-1,1,9,1,5,1,-12,1,-9,1,-8,1
1414,-10,1,-1,1,9,1,5,1,-10,1,4,1,-2,1,9,1,4,1,-12,1,-9,1,-8,1
1415,-12,1,-1,1,11,1,6,1,-12,1,5,1,-2,1,9,1,4,1,-12,1,-8,1,-7,1
1416,-9,1,0,1,9,1,4,1,-9,1,4,1,-1,1,11,1,6,1,-11,1,-8,1,-7,1
1417,-8,1,1,1,9,1,3,1,-8,1,5,1,-2,1,12,1,6,1,-10,1,-8,1,-6,1
1418,-6,1,4,1,10,1,1,1,-8,1,7,1,-4,1,12,1,6,1,-9,1,-7,1,-6,1
1419,-6,1,5,1,11,1,0,1,-8,1,8,1,-5,1,11,1,5,1,-9,1,-7,1,-6,1
1420,-8,1,4,1,12,1,2,1,-10,1,8,1,-8,1,9,1,5,1,-10,1,-7,1,-6,1
1421,-7,1,5,1,12,1,1,1,-9,1,8,1,-10,1,8,1,4,1,-10,1,-7,1,-6,1
1422,-7,1,5,1,12,1,1,1,-9,1,8,1,-11,1,7,1,4,1,-10,1,-7,1,-6,1
1423,-7,1,3,1,10,1,2,1,-8,1,6,1,-12,1,6,1,3,1,-11,1,-7,1,-6,1
1424,-9,1,0,1,9,1,4,1,-9,1,4,1,-13,1,5,1,2,1,-12,1,-7,1,-6,1
1425,-6,1,2,1,8,1,2,1,-7,1,5,1,-13,1,5,1,2,1,-12,1,-7,1,-5,1
1426,-2,1,5,1,7,1,-1,1,-4,1,6,1,-14,1,5,1,3,1,-12,1,-6,1,-5,1
1427,-1,1,6,1,7,1,-2,1,-4,1,6,1,-16,1,5,1,2,1,-12,1,-5,1,-4,1
1428,1,1,8,1,7,1,-4,1,-3,1,8,1,-17,1,4,1,1,1,-12,1,-5,1,-4,1
1429,-1,1,5,1,6,1,-2,1,-3,1,5,1,-19,1,2,1,0,1,-13,1,-6,1,-5,1
1430,-3,1,3,1,6,1,0,1,-4,1,4,1,-19,1,1,1,-1,1,-14,1,-6,1,-6,1
1431,-4,1,2,1,6,1,1,1,-5,1,4,1,-18,1,2,1,-1,1,-13,1,-5,1,-5,1
1432,-3,1,0,1,3,1,1,1,-3,1,1,1,-17,1,2,1,-1,1,-14,1,-5,1,-5,1
1433,-3,1,0,1,3,1,1,1,-3,1,1,1,-16,1,2,1,-1,1,-13,1,-5,1,-6,1
1434,-3,1,1,1,4,1,1,1,-3,1,2,1,-16,1,2,1,0,1,-13,1,-6,1,-6,1
1435,-4,1,0,1,4,1,2,1,-4,1,2,1,-15,1,3,1,0,1,-13,1,-5,1,-6,1
1436,-2,1,1,1,3,1,0,1,-2,1,2,1,-15,1,4,1,1,1,-12,1,-5,1,-6,1
1437,-1,1,1,1,2,1,0,1,-1,1,1,1,-15,1,6,1,2,1,-12,1,-5,1,-6,1
1438,-1,1,1,1,2,1,0,1,-1,1,1,1,-15,1,6,1,1,1,-12,1,-5,1,-6,1
1439,-1,1,0,1,1,1,0,1,-1,1,0,1,-16,1,5,1,1,1,-12,1,-5,1,-6,1
1440,-3,1,-1,1,2,1,2,1,-3,1,0,1,-16,1,5,1,0,1,-12,1,-5,1,-7,1
1441,-5,1,-3,1,2,1,4,1,-4,1,-1,1,-16,1,3,1,0,1,-13,1,-6,1,-8,1
1442,-7,1,-3,1,4,1,5,1,-6,1,0,1,-16,1,3,1,-1,1,-13,1,-7,1,-9,1
1443,-7,1,-3,1,4,1,5,1,-6,1,0,1,-15,1,3,1,-1,1,-13,1,-7,1,-9,1
1444,-9,1,-5,1,4,1,7,1,-7,1,-1,1,-15,1,1,1,-2,1,-14,1,-8,1,-11,1
1445,-11,1,-8,1,3,1,9,1,-7,1,-3,1,-14,1,1,1,-3,1,-16,1,-10,1,-12,1
1446,-11,1,-8,1,3,1,9,1,-7,1,-3,1,-13,1,1,1,-3,1,-16,1,-10,1,-12,1
1447,-11,1,-8,1,3,1,9,1,-7,1,-3,1,-12,1,1,1,-3,1,-16,1,-10,1,-12,1
1448,-12,1,-8,1,4,1,10,1,-8,1,-2,1,-12,1,1,1,-4,1,-17,1,-11,1,-12,1
1449,-12,1,-8,1,4,1,10,1,-8,1,-2,1,-12,1,1,1,-5,1,-17,1,-11,1,-12,1
1450,-13,1,-8,1,5,1,10,1,-9,1,-2,1,-13,1,1,1,-5,1,-18,1,-12,1,-13,1
1451,-13,1,-8,1,5,1,10,1,-9,1,-2,1,-14,1,1,1,-6,1,-18,1,-13,1,-14,1
1452,-14,1,-8,1,6,1,11,1,-10,1,-1,1,-14,1,0,1,-7,1,-19,1,-14,1,-15,1
1453,-15,1,-9,1,6,1,12,1,-11,1,-2,1,-14,1,-1,1,-8,1,-20,1,-15,1,-15,1
1454,-15,1,-9,1,6,1,12,1,-11,1,-2,1,-14,1,-1,1,-8,1,-20,1,-15,1,-16,1
1455,-14,1,-9,1,5,1,11,1,-10,1,-2,1,-14,1,-2,1,-8,1,-21,1,-16,1,-16,1
1456,-13,1,-9,1,4,1,11,1,-9,1,-3,1,-14,1,-2,1,-8,1,-21,1,-16,1,-17,1
1457,-13,1,-11,1,2,1,12,1,-8,1,-5,1,-14,1,-4,1,-9,1,-22,1,-16,1,-17,1
1458,-16,1,-13,1,3,1,14,1,-10,1,-5,1,-15,1,-5,1,-10,1,-22,1,-17,1,-18,1
1459,-14,1,-11,1,3,1,12,1,-9,1,-4,1,-15,1,-4,1,-9,1,-21,1,-16,1,-17,1
1460,-18,1,-14,1,4,1,16,1,-11,1,-5,1,-15,1,-4,1,-10,1,-22,1,-17,1,-17,1
1461,-18,1,-13,1,5,1,15,1,-12,1,-4,1,-15,1,-4,1,-10,1,-22,1,-17,1,-17,1
1462,-15,1,-10,1,5,1,12,1,-10,1,-3,1,-15,1,-2,1,-10,1,-21,1,-17,1,-16,1
1463,-14,1,-9,1,5,1,11,1,-10,1,-2,1,-15,1,-2,1,-10,1,-20,1,-16,1,-17,1
1464,-13,1,-9,1,4,1,11,1,-9,1,-3,1,-14,1,-2,1,-10,1,-20,1,-16,1,-17,1
1465,-12,1,-9,1,3,1,10,1,-8,1,-3,1,-14,1,-2,1,-10,1,-19,1,-16,1,-16,1
1466,-11,1,-10,1,1,1,10,1,-6,1,-5,1,-14,1,-2,1,-10,1,-19,1,-16,1,-17,1
1467,-10,1,-10,1,0,1,10,1,-5,1,-5,1,-14,1,-2,1,-10,1,-20,1,-16,1,-17,1
1468,-10,1,-10,1,0,1,10,1,-5,1,-5,1,-14,1,-2,1,-10,1,-19,1,-16,1,-17,1
1469,-12,1,-10,1,2,1,11,1,-7,1,-4,1,-13,1,-2,1,-9,1,-19,1,-16,1,-16,1
1470,-13,1,-9,1,4,1,11,1,-9,1,-3,1,-13,1,-1,1,-9,1,-19,1,-15,1,-16,1
1471,-13,1,-9,1,4,1,11,1,-9,1,-3,1,-13,1,-1,1,-9,1,-20,1,-15,1,-17,1
1472,-14,1,-8,1,6,1,11,1,-10,1,-1,1,-12,1,0,1,-9,1,-20,1,-15,1,-17,1
1473,-15,1,-9,1,6,1,12,1,-11,1,-2,1,-12,1,-1,1,-9,1,-21,1,-15,1,-16,1
1474,-15,1,-11,1,4,1,13,1,-10,1,-4,1,-13,1,-1,1,-10,1,-22,1,-17,1,-17,1
1475,-14,1,-12,1,2,1,13,1,-8,1,-5,1,-11,1,0,1,-9,1,-23,1,-17,1,-17,1
1476,-15,1,-16,1,-1,1,15,1,-7,1,-9,1,-10,1,2,1,-9,1,-23,1,-19,1,-18,1
1477,-13,1,-16,1,-3,1,14,1,-5,1,-10,1,-7,1,5,1,-8,1,-22,1,-20,1,-19,1
1478,-14,1,-17,1,-3,1,15,1,-6,1,-10,1,-4,1,10,1,-6,1,-20,1,-20,1,-20,1
1479,-16,1,-18,1,-2,1,17,1,-7,1,-10,1,-1,1,17,1,-1,1,-17,1,-18,1,-20,1
1480,-16,1,-17,1,-1,1,16,1,-8,1,-9,1,5,1,25,1,4,1,-13,1,-16,1,-18,1
1481,-14,1,-14,1,0,1,14,1,-7,1,-7,1,13,1,38,1,13,1,-7,1,-10,1,-16,1
1482,-11,1,-12,1,-1,1,11,1,-5,1,-7,1,22,1,55,1,25,1,2,1,-4,1,-12,1
1483,-6,1,-11,1,-5,1,8,1,-1,1,-8,1,35,1,76,1,39,1,13,1,5,1,-7,1
1484,1,1,-9,1,-10,1,4,1,5,1,-9,1,50,1,102,1,58,1,28,1,17,1,0,1
1485,12,1,-6,1,-18,1,-3,1,15,1,-12,1,66,1,131,1,81,1,48,1,33,1,8,1
1486,24,1,-2,1,-26,1,-11,1,25,1,-14,1,80,1,161,1,106,1,71,1,51,1,20,1
1487,37,1,5,1,-32,1,-21,1,35,1,-13,1,88,1,187,1,130,1,95,1,71,1,34,1
1488,52,1,14,1,-38,1,-33,1,45,1,-12,1,83,1,204,1,153,1,120,1,93,1,51,1
1489,68,1,27,1,-41,1,-47,1,55,1,-7,1,64,1,213,1,171,1,142,1,114,1,70,1
1490,86,1,42,1,-44,1,-64,1,65,1,-1,1,33,1,215,1,189,1,164,1,136,1,90,1
1491,100,1,58,1,-42,1,-79,1,71,1,8,1,0,1,214,1,202,1,182,1,156,1,110,1
1492,108,1,71,1,-37,1,-89,1,73,1,17,1,-31,1,206,1,207,1,192,1,168,1,125,1
1493,113,1,83,1,-30,1,-98,1,72,1,27,1,-61,1,185,1,198,1,189,1,171,1,132,1
1494,110,1,81,1,-29,1,-95,1,70,1,26,1,-89,1,147,1,170,1,168,1,158,1,126,1
1495,99,1,69,1,-30,1,-84,1,65,1,20,1,-113,1,102,1,133,1,138,1,135,1,112,1
1496,88,1,56,1,-32,1,-72,1,60,1,12,1,-131,1,55,1,94,1,104,1,109,1,95,1
1497,78,1,51,1,-27,1,-64,1,53,1,12,1,-141,1,9,1,59,1,74,1,86,1,80,1
1498,68,1,49,1,-19,1,-58,1,44,1,15,1,-141,1,-29,1,29,1,47,1,65,1,67,1
1499,54,1,44,1,-10,1,-49,1,32,1,17,1,-137,1,-56,1,6,1,25,1,48,1,55,1
1500,42,1,39,1,-3,1,-40,1,23,1,18,1,-126,1,-67,1,-7,1,10,1,34,1,45,1
1501,31,1,34,1,3,1,-32,1,14,1,19,1,-112,1,-66,1,-15,1,-1,1,23,1,36,1
1502,23,1,28,1,5,1,-25,1,9,1,17,1,-97,1,-59,1,-19,1,-8,1,14,1,27,1
1503,17,1,24,1,7,1,-20,1,5,1,16,1,-82,1,-49,1,-21,1,-12,1,7,1,18,1
1504,14,1,21,1,7,1,-17,1,4,1,14,1,-69,1,-39,1,-18,1,-13,1,3,1,11,1
1505,11,1,16,1,5,1,-13,1,3,1,11,1,-58,1,-31,1,-15,1,-12,1,1,1,6,1
1506,8,1,12,1,4,1,-10,1,2,1,8,1,-50,1,-24,1,-12,1,-11,1,0,1,2,1
1507,5,1,7,1,2,1,-6,1,2,1,5,1,-42,1,-20,1,-8,1,-11,1,-1,1,0,1
1508,0,1,3,1,3,1,-1,1,-1,1,3,1,-36,1,-16,1,-5,1,-12,1,-2,1,-2,1
1509,-2,1,1,1,3,1,0,1,-2,1,2,1,-30,1,-12,1,-3,1,-12,1,-3,1,-3,1
1510,-5,1,-1,1,4,1,3,1,-5,1,1,1,-26,1,-8,1,-3,1,-13,1,-5,1,-5,1
1511,-8,1,-3,1,5,1,5,1,-7,1,1,1,-22,1,-6,1,-4,1,-15,1,-7,1,-8,1
1512,-9,1,-5,1,4,1,7,1,-7,1,-1,1,-19,1,-4,1,-5,1,-15,1,-9,1,-10,1
1513,-7,1,-5,1,2,1,6,1,-5,1,-2,1,-17,1,-2,1,-6,1,-16,1,-9,1,-12,1
1514,-5,1,-4,1,1,1,4,1,-3,1,-2,1,-15,1,-1,1,-7,1,-16,1,-10,1,-14,1
1515,-6,1,-4,1,2,1,5,1,-4,1,-1,1,-14,1,0,1,-7,1,-16,1,-10,1,-15,1
1516,-7,1,-4,1,3,1,5,1,-5,1,-1,1,-14,1,-1,1,-6,1,-17,1,-11,1,-16,1
1517,-7,1,-4,1,3,1,5,1,-5,1,-1,1,-13,1,-1,1,-5,1,-17,1,-12,1,-15,1
1518,-8,1,-4,1,4,1,6,1,-6,1,0,1,-13,1,-2,1,-5,1,-17,1,-12,1,-15,1
1519,-10,1,-5,1,5,1,7,1,-8,1,0,1,-14,1,-2,1,-5,1,-17,1,-12,1,-15,1
1520,-11,1,-5,1,6,1,8,1,-9,1,0,1,-14,1,-2,1,-5,1,-17,1,-12,1,-15,1
1521,-13,1,-7,1,6,1,10,1,-10,1,-1,1,-13,1,-1,1,-6,1,-18,1,-13,1,-15,1
1522,-13,1,-7,1,6,1,10,1,-10,1,-1,1,-12,1,0,1,-6,1,-18,1,-13,1,-15,1
1523,-14,1,-7,1,7,1,10,1,-11,1,0,1,-11,1,0,1,-6,1,-19,1,-13,1,-16,1
1524,-13,1,-7,1,6,1,10,1,-10,1,-1,1,-11,1,0,1,-6,1,-19,1,-13,1,-17,1
1525,-13,1,-7,1,6,1,10,1,-10,1,-1,1,-11,1,-1,1,-7,1,-20,1,-14,1,-18,1
1526,-14,1,-9,1,5,1,11,1,-10,1,-2,1,-11,1,-1,1,-8,1,-20,1,-15,1,-18,1
1527,-12,1,-7,1,5,1,9,1,-9,1,-1,1,-10,1,0,1,-8,1,-19,1,-14,1,-17,1
1528,-12,1,-7,1,5,1,9,1,-9,1,-1,1,-10,1,0,1,-8,1,-18,1,-15,1,-17,1
1529,-12,1,-7,1,5,1,9,1,-9,1,-1,1,-9,1,0,1,-9,1,-17,1,-15,1,-17,1
1530,-11,1,-7,1,4,1,9,1,-8,1,-2,1,-9,1,2,1,-8,1,-17,1,-14,1,-16,1
1531,-10,1,-7,1,3,1,8,1,-7,1,-2,1,-9,1,3,1,-8,1,-16,1,-14,1,-16,1
1532,-12,1,-8,1,4,1,10,1,-8,1,-2,1,-9,1,3,1,-8,1,-17,1,-14,1,-16,1
1533,-11,1,-7,1,4,1,9,1,-8,1,-2,1,-9,1,3,1,-8,1,-16,1,-13,1,-15,1
1534,-12,1,-7,1,5,1,9,1,-9,1,-1,1,-9,1,2,1,-8,1,-17,1,-13,1,-16,1
1535,-12,1,-7,1,5,1,9,1,-9,1,-1,1,-9,1,2,1,-7,1,-17,1,-14,1,-16,1
1536,-10,1,-6,1,4,1,8,1,-7,1,-1,1,-9,1,3,1,-7,1,-16,1,-13,1,-16,1
1537,-10,1,-6,1,4,1,8,1,-7,1,-1,1,-9,1,3,1,-7,1,-16,1,-13,1,-16,1
1538,-10,1,-6,1,4,1,8,1,-7,1,-1,1,-9,1,3,1,-7,1,-15,1,-13,1,-15,1
1539,-11,1,-8,1,3,1,9,1,-7,1,-3,1,-9,1,3,1,-8,1,-15,1,-13,1,-15,1
1540,-13,1,-9,1,4,1,11,1,-9,1,-3,1,-9,1,3,1,-9,1,-16,1,-13,1,-16,1
1541,-12,1,-8,1,4,1,10,1,-8,1,-2,1,-8,1,4,1,-8,1,-15,1,-12,1,-16,1
1542,-12,1,-7,1,5,1,9,1,-9,1,-1,1,-8,1,4,1,-8,1,-15,1,-13,1,-16,1
1543,-13,1,-6,1,7,1,9,1,-10,1,0,1,-8,1,4,1,-9,1,-16,1,-13,1,-17,1
1544,-13,1,-5,1,8,1,9,1,-11,1,1,1,-8,1,4,1,-7,1,-15,1,-12,1,-16,1
1545,-13,1,-5,1,8,1,9,1,-11,1,1,1,-8,1,4,1,-7,1,-14,1,-12,1,-16,1
1546,-14,1,-5,1,9,1,9,1,-12,1,2,1,-9,1,4,1,-6,1,-14,1,-12,1,-17,1
1547,-14,1,-5,1,9,1,9,1,-12,1,2,1,-9,1,4,1,-6,1,-14,1,-13,1,-17,1
1548,-11,1,-5,1,6,1,8,1,-9,1,0,1,-8,1,4,1,-5,1,-13,1,-13,1,-18,1
1549,-9,1,-5,1,4,1,7,1,-7,1,-1,1,-8,1,4,1,-5,1,-13,1,-13,1,-18,1
1550,-5,1,-2,1,3,1,3,1,-4,1,0,1,-6,1,6,1,-4,1,-11,1,-11,1,-17,1
1551,-6,1,-2,1,4,1,4,1,-5,1,1,1,-6,1,7,1,-4,1,-11,1,-10,1,-17,1
1552,-6,1,-2,1,4,1,4,1,-5,1,1,1,-5,1,8,1,-4,1,-11,1,-10,1,-17,1
1553,-6,1,-1,1,5,1,3,1,-6,1,2,1,-5,1,8,1,-4,1,-12,1,-9,1,-17,1
1554,-6,1,-1,1,5,1,3,1,-6,1,2,1,-5,1,8,1,-4,1,-12,1,-9,1,-17,1
1555,-9,1,-4,1,5,1,6,1,-7,1,0,1,-5,1,7,1,-5,1,-12,1,-9,1,-18,1
1556,-11,1,-7,1,4,1,9,1,-8,1,-2,1,-6,1,7,1,-7,1,-12,1,-9,1,-19,1
1557,-11,1,-7,1,4,1,9,1,-8,1,-2,1,-6,1,6,1,-7,1,-12,1,-9,1,-19,1
1558,-9,1,-7,1,2,1,8,1,-6,1,-3,1,-6,1,6,1,-8,1,-12,1,-10,1,-20,1
1559,-9,1,-5,1,4,1,7,1,-7,1,-1,1,-6,1,7,1,-7,1,-11,1,-10,1,-20,1
1560,-9,1,-5,1,4,1,7,1,-7,1,-1,1,-6,1,7,1,-7,1,-11,1,-11,1,-19,1
1561,-9,1,-5,1,4,1,7,1,-7,1,-1,1,-5,1,7,1,-6,1,-10,1,-11,1,-19,1
1562,-9,1,-4,1,5,1,6,1,-7,1,0,1,-5,1,7,1,-6,1,-11,1,-11,1,-19,1
1563,-9,1,-4,1,5,1,6,1,-7,1,0,1,-5,1,7,1,-5,1,-12,1,-11,1,-18,1
1564,-8,1,-4,1,4,1,6,1,-6,1,0,1,-5,1,7,1,-5,1,-12,1,-10,1,-18,1
1565,-7,1,-4,1,3,1,5,1,-5,1,-1,1,-5,1,8,1,-5,1,-12,1,-9,1,-18,1
1566,-6,1,-4,1,2,1,5,1,-4,1,-1,1,-6,1,9,1,-4,1,-13,1,-9,1,-18,1
1567,-7,1,-4,1,3,1,5,1,-5,1,-1,1,-6,1,10,1,-4,1,-13,1,-10,1,-18,1
1568,-8,1,-4,1,4,1,6,1,-6,1,0,1,-6,1,10,1,-5,1,-12,1,-10,1,-18,1
1569,-8,1,-3,1,5,1,5,1,-7,1,1,1,-6,1,10,1,-5,1,-11,1,-10,1,-18,1
1570,-7,1,-1,1,6,1,4,1,-7,1,2,1,-5,1,10,1,-5,1,-11,1,-9,1,-19,1
1571,-6,1,0,1,6,1,3,1,-6,1,3,1,-5,1,11,1,-4,1,-11,1,-9,1,-19,1
1572,-6,1,0,1,6,1,3,1,-6,1,3,1,-5,1,11,1,-4,1,-11,1,-8,1,-19,1
1573,-7,1,-1,1,6,1,4,1,-7,1,2,1,-5,1,11,1,-5,1,-11,1,-8,1,-19,1
1574,-7,1,-1,1,6,1,4,1,-7,1,2,1,-5,1,12,1,-5,1,-11,1,-8,1,-19,1
1575,-5,1,-1,1,4,1,3,1,-5,1,1,1,-5,1,12,1,-5,1,-11,1,-8,1,-19,1
1576,-4,1,-1,1,3,1,2,1,-4,1,1,1,-5,1,13,1,-5,1,-11,1,-7,1,-19,1
1577,-4,1,-2,1,2,1,3,1,-3,1,0,1,-6,1,14,1,-5,1,-11,1,-7,1,-19,1
1578,-5,1,-2,1,3,1,3,1,-4,1,0,1,-6,1,13,1,-5,1,-12,1,-7,1,-19,1
1579,-8,1,-4,1,4,1,6,1,-6,1,0,1,-7,1,13,1,-5,1,-13,1,-8,1,-20,1
1580,-8,1,-4,1,4,1,6,1,-6,1,0,1,-6,1,14,1,-4,1,-12,1,-7,1,-20,1
1581,-10,1,-6,1,4,1,8,1,-7,1,-1,1,-6,1,13,1,-5,1,-13,1,-8,1,-20,1
1582,-6,1,-2,1,4,1,4,1,-5,1,1,1,-4,1,14,1,-4,1,-12,1,-6,1,-19,1
1583,-4,1,0,1,4,1,2,1,-4,1,2,1,-4,1,15,1,-4,1,-11,1,-6,1,-19,1
1584,-6,1,-2,1,4,1,4,1,-5,1,1,1,-4,1,14,1,-5,1,-11,1,-6,1,-20,1
1585,-4,1,0,1,4,1,2,1,-4,1,2,1,-4,1,15,1,-4,1,-11,1,-5,1,-19,1
1586,-3,1,0,1,3,1,1,1,-3,1,1,1,-4,1,15,1,-4,1,-10,1,-5,1,-19,1
1587,-2,1,1,1,3,1,0,1,-2,1,2,1,-3,1,16,1,-3,1,-10,1,-4,1,-18,1
1588,-2,1,1,1,3,1,0,1,-2,1,2,1,-3,1,17,1,-2,1,-10,1,-5,1,-17,1
1589,-2,1,2,1,4,1,0,1,-3,1,3,1,-3,1,18,1,-1,1,-10,1,-5,1,-16,1
1590,-1,1,2,1,3,1,0,1,-2,1,2,1,-3,1,19,1,-1,1,-10,1,-5,1,-16,1
1591,-1,1,2,1,3,1,0,1,-2,1,2,1,-2,1,19,1,-1,1,-10,1,-5,1,-16,1
1592,-1,1,1,1,2,1,0,1,-1,1,1,1,-2,1,19,1,-1,1,-10,1,-4,1,-16,1
1593,-3,1,0,1,3,1,1,1,-3,1,1,1,-2,1,19,1,-2,1,-10,1,-4,1,-17,1
1594,0,1,2,1,2,1,-1,1,-1,1,2,1,-1,1,19,1,-1,1,-8,1,-3,1,-16,1
1595,0,1,3,1,3,1,-1,1,-1,1,3,1,-1,1,20,1,0,1,-7,1,-3,1,-15,1
1596,0,1,2,1,2,1,-1,1,-1,1,2,1,0,1,20,1,0,1,-7,1,-2,1,-15,1
1597,-1,1,2,1,3,1,0,1,-2,1,2,1,0,1,20,1,0,1,-6,1,-2,1,-15,1
1598,0,1,4,1,4,1,-2,1,-2,1,4,1,0,1,20,1,0,1,-6,1,-1,1,-15,1
1599,2,1,5,1,3,1,-3,1,0,1,4,1,1,1,20,1,0,1,-5,1,-1,1,-15,1
1600,1,1,4,1,3,1,-2,1,-1,1,4,1,1,1,20,1,1,1,-5,1,-1,1,-15,1
1601,-1,1,3,1,4,1,-1,1,-2,1,3,1,0,1,19,1,0,1,-5,1,-2,1,-15,1
1602,0,1,3,1,3,1,-1,1,-1,1,3,1,-1,1,20,1,0,1,-6,1,-2,1,-15,1
1603,2,1,6,1,4,1,-4,1,-1,1,5,1,-1,1,21,1,1,1,-5,1,-2,1,-14,1
1604,3,1,7,1,4,1,-5,1,0,1,6,1,-1,1,22,1,1,1,-5,1,-2,1,-13,1
1605,3,1,7,1,4,1,-5,1,0,1,6,1,-1,1,22,1,2,1,-4,1,-1,1,-11,1
1606,3,1,8,1,5,1,-5,1,-1,1,7,1,-1,1,23,1,3,1,-4,1,0,1,-11,1
1607,1,1,6,1,5,1,-3,1,-2,1,6,1,-1,1,23,1,4,1,-4,1,0,1,-11,1
1608,1,1,5,1,4,1,-3,1,-1,1,5,1,-1,1,22,1,4,1,-4,1,0,1,-10,1
1609,2,1,5,1,3,1,-3,1,0,1,4,1,0,1,22,1,4,1,-4,1,0,1,-11,1
1610,3,1,6,1,3,1,-4,1,0,1,5,1,0,1,22,1,4,1,-3,1,0,1,-10,1
1611,8,1,10,1,2,1,-9,1,3,1,6,1,2,1,24,1,4,1,-2,1,2,1,-9,1
1612,6,1,9,1,3,1,-7,1,2,1,6,1,0,1,22,1,2,1,-3,1,1,1,-9,1
1613,2,1,7,1,5,1,-4,1,-1,1,6,1,-1,1,21,1,1,1,-3,1,1,1,-11,1
1614,2,1,8,1,6,1,-5,1,-2,1,7,1,-1,1,22,1,1,1,-2,1,1,1,-10,1
1615,2,1,9,1,7,1,-5,1,-2,1,8,1,-1,1,22,1,1,1,-2,1,1,1,-10,1
1616,3,1,9,1,6,1,-6,1,-1,1,8,1,-1,1,22,1,2,1,-2,1,1,1,-9,1
1617,3,1,10,1,7,1,-6,1,-2,1,9,1,-1,1,23,1,3,1,-2,1,2,1,-9,1
1618,3,1,10,1,7,1,-6,1,-2,1,9,1,0,1,23,1,3,1,-1,1,2,1,-8,1
1619,4,1,10,1,6,1,-7,1,-1,1,8,1,0,1,23,1,4,1,-1,1,2,1,-6,1
1620,5,1,12,1,7,1,-8,1,-1,1,10,1,0,1,22,1,3,1,-1,1,2,1,-6,1
1621,5,1,12,1,7,1,-8,1,-1,1,10,1,0,1,22,1,3,1,0,1,2,1,-6,1
1622,7,1,14,1,7,1,-10,1,0,1,11,1,1,1,22,1,3,1,0,1,3,1,-6,1
1623,5,1,13,1,8,1,-9,1,-1,1,11,1,0,1,21,1,2,1,-1,1,3,1,-7,1
1624,4,1,13,1,9,1,-8,1,-2,1,11,1,0,1,21,1,2,1,-1,1,4,1,-6,1
1625,3,1,13,1,10,1,-8,1,-3,1,12,1,0,1,21,1,2,1,0,1,5,1,-4,1
1626,5,1,15,1,10,1,-10,1,-2,1,13,1,1,1,22,1,4,1,0,1,6,1,-3,1
1627,5,1,15,1,10,1,-10,1,-2,1,13,1,0,1,21,1,4,1,0,1,6,1,-2,1
1628,5,1,14,1,9,1,-9,1,-2,1,12,1,-1,1,20,1,4,1,0,1,5,1,-2,1
1629,5,1,14,1,9,1,-9,1,-2,1,12,1,-2,1,20,1,3,1,0,1,5,1,-3,1
1630,6,1,15,1,9,1,-10,1,-1,1,12,1,-2,1,20,1,3,1,0,1,5,1,-2,1
1631,4,1,14,1,10,1,-9,1,-3,1,12,1,-2,1,18,1,2,1,0,1,5,1,-3,1
1632,3,1,13,1,10,1,-8,1,-3,1,12,1,-4,1,17,1,0,1,-2,1,5,1,-4,1
1633,6,1,15,1,9,1,-10,1,-1,1,12,1,-2,1,17,1,1,1,-1,1,5,1,-3,1
1634,7,1,16,1,9,1,-11,1,-1,1,13,1,-1,1,17,1,0,1,-1,1,6,1,-2,1
1635,7,1,16,1,9,1,-11,1,-1,1,13,1,-1,1,17,1,0,1,-1,1,7,1,-2,1
1636,5,1,15,1,10,1,-10,1,-2,1,13,1,-1,1,17,1,0,1,-1,1,7,1,-2,1
1637,5,1,15,1,10,1,-10,1,-2,1,13,1,-1,1,16,1,0,1,-2,1,7,1,-2,1
1638,5,1,15,1,10,1,-10,1,-2,1,13,1,-1,1,16,1,0,1,-2,1,7,1,-2,1
1639,5,1,16,1,11,1,-10,1,-3,1,14,1,-1,1,17,1,0,1,-2,1,8,1,-1,1
1640,7,1,18,1,11,1,-12,1,-2,1,15,1,-1,1,16,1,1,1,-2,1,8,1,-1,1
1641,7,1,20,1,13,1,-13,1,-3,1,17,1,-1,1,17,1,2,1,-2,1,8,1,-1,1
1642,7,1,20,1,13,1,-13,1,-3,1,17,1,0,1,17,1,2,1,-2,1,8,1,0,1
1643,5,1,19,1,14,1,-12,1,-4,1,17,1,-1,1,17,1,2,1,-2,1,8,1,0,1
1644,3,1,16,1,13,1,-9,1,-5,1,15,1,-1,1,16,1,2,1,-3,1,7,1,-1,1
1645,3,1,16,1,13,1,-9,1,-5,1,15,1,-1,1,16,1,2,1,-3,1,7,1,-1,1
1646,2,1,15,1,13,1,-8,1,-5,1,14,1,-1,1,16,1,2,1,-2,1,7,1,-1,1
1647,1,1,15,1,14,1,-8,1,-6,1,15,1,-1,1,16,1,3,1,-2,1,8,1,-1,1
1648,2,1,16,1,14,1,-9,1,-6,1,15,1,0,1,16,1,3,1,-1,1,8,1,-1,1
1649,2,1,16,1,14,1,-9,1,-6,1,15,1,0,1,15,1,3,1,-1,1,8,1,-2,1
1650,2,1,16,1,14,1,-9,1,-6,1,15,1,0,1,15,1,3,1,-1,1,7,1,-3,1
1651,0,1,16,1,16,1,-8,1,-8,1,16,1,1,1,15,1,3,1,-1,1,7,1,-3,1
1652,-2,1,14,1,16,1,-6,1,-9,1,15,1,0,1,14,1,2,1,-1,1,6,1,-4,1
1653,-5,1,11,1,16,1,-3,1,-10,1,13,1,-1,1,13,1,2,1,-3,1,5,1,-6,1
1654,-2,1,15,1,17,1,-6,1,-9,1,16,1,0,1,14,1,4,1,-1,1,7,1,-4,1
1655,2,1,19,1,17,1,-10,1,-7,1,18,1,2,1,16,1,6,1,0,1,8,1,-3,1
1656,0,1,17,1,17,1,-8,1,-8,1,17,1,1,1,16,1,6,1,0,1,8,1,-4,1
1657,-1,1,16,1,17,1,-7,1,-9,1,16,1,1,1,15,1,6,1,0,1,7,1,-5,1
1658,-1,1,16,1,17,1,-7,1,-9,1,16,1,1,1,15,1,6,1,1,1,7,1,-6,1
1659,-2,1,15,1,17,1,-6,1,-9,1,16,1,1,1,14,1,5,1,0,1,6,1,-6,1
1660,-2,1,15,1,17,1,-6,1,-9,1,16,1,0,1,14,1,5,1,0,1,6,1,-7,1
1661,-2,1,13,1,15,1,-5,1,-8,1,14,1,0,1,13,1,4,1,-1,1,5,1,-8,1
1662,-4,1,11,1,15,1,-3,1,-9,1,13,1,-1,1,12,1,4,1,-2,1,4,1,-8,1
1663,-4,1,10,1,14,1,-3,1,-9,1,12,1,-1,1,11,1,4,1,-2,1,4,1,-9,1
1664,-5,1,10,1,15,1,-2,1,-10,1,12,1,-2,1,11,1,4,1,-3,1,3,1,-10,1
1665,-3,1,11,1,14,1,-4,1,-8,1,12,1,-1,1,11,1,4,1,-3,1,4,1,-9,1
1666,-2,1,12,1,14,1,-5,1,-8,1,13,1,-1,1,11,1,4,1,-2,1,4,1,-8,1
1667,-3,1,13,1,16,1,-5,1,-9,1,14,1,-1,1,10,1,4,1,-2,1,3,1,-8,1
1668,-5,1,11,1,16,1,-3,1,-10,1,13,1,-2,1,9,1,2,1,-3,1,3,1,-9,1
1669,-7,1,8,1,15,1,0,1,-11,1,11,1,-2,1,8,1,1,1,-4,1,2,1,-10,1
1670,-6,1,8,1,14,1,-1,1,-10,1,11,1,-3,1,8,1,1,1,-4,1,3,1,-11,1
1671,-5,1,10,1,15,1,-2,1,-10,1,12,1,-2,1,8,1,2,1,-4,1,3,1,-10,1
1672,-8,1,8,1,16,1,0,1,-12,1,12,1,-3,1,6,1,1,1,-4,1,2,1,-11,1
1673,-11,1,4,1,15,1,3,1,-13,1,9,1,-4,1,4,1,0,1,-6,1,0,1,-12,1
1674,-11,1,4,1,15,1,3,1,-13,1,9,1,-5,1,4,1,-1,1,-6,1,-1,1,-13,1
1675,-6,1,7,1,13,1,0,1,-9,1,10,1,-4,1,4,1,0,1,-6,1,0,1,-11,1
1676,-6,1,9,1,15,1,-1,1,-10,1,12,1,-4,1,4,1,0,1,-6,1,0,1,-12,1
1677,-5,1,9,1,14,1,-2,1,-9,1,11,1,-5,1,5,1,1,1,-6,1,0,1,-12,1
1678,-6,1,8,1,14,1,-1,1,-10,1,11,1,-5,1,5,1,0,1,-7,1,0,1,-13,1
1679,-6,1,10,1,16,1,-2,1,-11,1,13,1,-5,1,6,1,1,1,-6,1,0,1,-12,1
1680,-6,1,11,1,17,1,-2,1,-11,1,14,1,-5,1,7,1,2,1,-6,1,1,1,-11,1
1681,-6,1,11,1,17,1,-2,1,-11,1,14,1,-5,1,7,1,2,1,-6,1,1,1,-11,1
1682,-7,1,9,1,16,1,-1,1,-11,1,12,1,-6,1,6,1,1,1,-6,1,0,1,-11,1
1683,-9,1,8,1,17,1,0,1,-13,1,12,1,-6,1,5,1,1,1,-7,1,0,1,-11,1
1684,-8,1,8,1,16,1,0,1,-12,1,12,1,-5,1,6,1,1,1,-7,1,1,1,-11,1
1685,-8,1,7,1,15,1,0,1,-11,1,11,1,-5,1,5,1,0,1,-7,1,0,1,-11,1
1686,-9,1,6,1,15,1,1,1,-12,1,10,1,-6,1,4,1,0,1,-8,1,0,1,-12,1
1687,-10,1,5,1,15,1,2,1,-12,1,10,1,-5,1,4,1,0,1,-9,1,0,1,-12,1
1688,-11,1,4,1,15,1,3,1,-13,1,9,1,-5,1,4,1,1,1,-9,1,0,1,-12,1
1689,-11,1,4,1,15,1,3,1,-13,1,9,1,-5,1,5,1,1,1,-9,1,-2,1,-12,1
1690,-10,1,5,1,15,1,2,1,-12,1,10,1,-5,1,5,1,1,1,-8,1,-2,1,-12,1
1691,-10,1,5,1,15,1,2,1,-12,1,10,1,-5,1,5,1,1,1,-7,1,-2,1,-12,1
1692,-12,1,4,1,16,1,4,1,-14,1,10,1,-5,1,5,1,1,1,-7,1,-2,1,-12,1
1693,-10,1,6,1,16,1,2,1,-13,1,11,1,-5,1,5,1,1,1,-6,1,-1,1,-12,1
1694,-10,1,5,1,15,1,2,1,-12,1,10,1,-5,1,5,1,0,1,-7,1,-1,1,-12,1
1695,-11,1,5,1,16,1,3,1,-13,1,10,1,-5,1,5,1,0,1,-7,1,-1,1,-12,1
1696,-10,1,6,1,16,1,2,1,-13,1,11,1,-5,1,4,1,0,1,-6,1,-1,1,-11,1
1697,-10,1,6,1,16,1,2,1,-13,1,11,1,-5,1,4,1,0,1,-6,1,0,1,-11,1
1698,-11,1,6,1,17,1,2,1,-14,1,11,1,-5,1,5,1,0,1,-6,1,0,1,-10,1
1699,-12,1,5,1,17,1,3,1,-14,1,11,1,-4,1,5,1,0,1,-6,1,0,1,-10,1
1700,-11,1,5,1,16,1,3,1,-13,1,10,1,-5,1,6,1,0,1,-7,1,-1,1,-10,1
1701,-11,1,6,1,17,1,2,1,-14,1,11,1,-4,1,6,1,1,1,-7,1,0,1,-10,1
1702,-11,1,5,1,16,1,3,1,-13,1,10,1,-4,1,6,1,1,1,-7,1,0,1,-10,1
1703,-11,1,6,1,17,1,2,1,-14,1,11,1,-4,1,6,1,1,1,-7,1,0,1,-10,1
1704,-7,1,8,1,15,1,0,1,-11,1,11,1,-4,1,6,1,2,1,-6,1,1,1,-10,1
1705,-8,1,7,1,15,1,0,1,-11,1,11,1,-4,1,5,1,1,1,-7,1,1,1,-10,1
1706,-7,1,6,1,13,1,0,1,-10,1,9,1,-5,1,5,1,1,1,-7,1,0,1,-11,1
1707,-6,1,7,1,13,1,0,1,-9,1,10,1,-5,1,6,1,1,1,-7,1,0,1,-11,1
1708,-8,1,5,1,13,1,1,1,-10,1,9,1,-5,1,6,1,1,1,-7,1,0,1,-10,1
1709,-9,1,4,1,13,1,2,1,-11,1,8,1,-5,1,6,1,1,1,-7,1,0,1,-10,1
1710,-9,1,5,1,14,1,2,1,-11,1,9,1,-5,1,6,1,1,1,-7,1,0,1,-9,1
1711,-7,1,7,1,14,1,0,1,-10,1,10,1,-5,1,7,1,2,1,-7,1,1,1,-9,1
1712,-8,1,6,1,14,1,1,1,-11,1,10,1,-6,1,6,1,1,1,-8,1,1,1,-9,1
1713,-11,1,4,1,15,1,3,1,-13,1,9,1,-6,1,5,1,0,1,-9,1,0,1,-11,1
1714,-10,1,7,1,17,1,1,1,-13,1,12,1,-6,1,5,1,0,1,-9,1,0,1,-11,1
1715,-7,1,9,1,16,1,-1,1,-11,1,12,1,-6,1,5,1,1,1,-8,1,1,1,-11,1
1716,-6,1,9,1,15,1,-1,1,-10,1,12,1,-6,1,5,1,1,1,-8,1,1,1,-12,1
1717,-7,1,9,1,16,1,-1,1,-11,1,12,1,-6,1,6,1,2,1,-7,1,2,1,-12,1
1718,-7,1,9,1,16,1,-1,1,-11,1,12,1,-5,1,6,1,2,1,-6,1,2,1,-12,1
1719,-5,1,9,1,14,1,-2,1,-9,1,11,1,-5,1,6,1,2,1,-5,1,2,1,-11,1
1720,-6,1,8,1,14,1,-1,1,-10,1,11,1,-5,1,7,1,2,1,-5,1,0,1,-11,1
1721,-9,1,4,1,13,1,2,1,-11,1,8,1,-6,1,6,1,0,1,-6,1,0,1,-12,1
1722,-12,1,3,1,15,1,4,1,-13,1,9,1,-7,1,5,1,0,1,-7,1,0,1,-13,1
1723,-11,1,4,1,15,1,3,1,-13,1,9,1,-6,1,5,1,0,1,-7,1,1,1,-12,1
1724,-10,1,7,1,17,1,1,1,-13,1,12,1,-6,1,6,1,0,1,-7,1,1,1,-12,1
1725,-10,1,8,1,18,1,1,1,-14,1,13,1,-6,1,6,1,0,1,-7,1,1,1,-11,1
1726,-10,1,8,1,18,1,1,1,-14,1,13,1,-6,1,6,1,0,1,-7,1,0,1,-11,1
1727,-10,1,8,1,18,1,1,1,-14,1,13,1,-6,1,7,1,0,1,-7,1,0,1,-12,1
1728,-10,1,7,1,17,1,1,1,-13,1,12,1,-6,1,7,1,0,1,-7,1,0,1,-12,1
1729,-9,1,7,1,16,1,1,1,-12,1,11,1,-6,1,8,1,1,1,-7,1,0,1,-12,1
1730,-10,1,6,1,16,1,2,1,-13,1,11,1,-6,1,7,1,1,1,-8,1,0,1,-12,1
1731,-9,1,7,1,16,1,1,1,-12,1,11,1,-4,1,7,1,2,1,-7,1,0,1,-11,1
1732,-8,1,8,1,16,1,0,1,-12,1,12,1,-3,1,7,1,3,1,-6,1,1,1,-11,1
1733,-10,1,6,1,16,1,2,1,-13,1,11,1,-4,1,6,1,2,1,-7,1,0,1,-11,1
1734,-9,1,6,1,15,1,1,1,-12,1,10,1,-4,1,6,1,1,1,-7,1,0,1,-12,1
1735,-8,1,7,1,15,1,0,1,-11,1,11,1,-4,1,6,1,1,1,-7,1,0,1,-12,1
1736,-8,1,8,1,16,1,0,1,-12,1,12,1,-4,1,6,1,0,1,-7,1,0,1,-11,1
1737,-6,1,9,1,15,1,-1,1,-10,1,12,1,-4,1,6,1,0,1,-7,1,1,1,-11,1
1738,-5,1,9,1,14,1,-2,1,-9,1,11,1,-4,1,6,1,1,1,-7,1,1,1,-11,1
1739,-6,1,7,1,13,1,0,1,-9,1,10,1,-4,1,6,1,1,1,-8,1,0,1,-11,1
1740,-8,1,5,1,13,1,1,1,-10,1,9,1,-4,1,6,1,0,1,-8,1,0,1,-11,1
1741,-9,1,4,1,13,1,2,1,-11,1,8,1,-3,1,6,1,1,1,-8,1,0,1,-11,1
1742,-8,1,5,1,13,1,1,1,-10,1,9,1,-3,1,5,1,1,1,-7,1,0,1,-11,1
1743,-10,1,5,1,15,1,2,1,-12,1,10,1,-4,1,5,1,1,1,-6,1,0,1,-10,1
1744,-7,1,8,1,15,1,0,1,-11,1,11,1,-3,1,5,1,2,1,-6,1,0,1,-10,1
1745,-7,1,8,1,15,1,0,1,-11,1,11,1,-4,1,4,1,1,1,-7,1,0,1,-10,1
1746,-9,1,7,1,16,1,1,1,-12,1,11,1,-4,1,4,1,1,1,-7,1,1,1,-10,1
1747,-10,1,6,1,16,1,2,1,-13,1,11,1,-4,1,4,1,0,1,-8,1,1,1,-10,1
1748,-11,1,5,1,16,1,3,1,-13,1,10,1,-4,1,4,1,0,1,-9,1,0,1,-10,1
1749,-11,1,4,1,15,1,3,1,-13,1,9,1,-4,1,4,1,0,1,-9,1,0,1,-11,1
1750,-11,1,4,1,15,1,3,1,-13,1,9,1,-4,1,4,1,0,1,-9,1,0,1,-11,1
1751,-11,1,3,1,14,1,4,1,-12,1,8,1,-4,1,4,1,0,1,-9,1,0,1,-11,1
1752,-9,1,3,1,12,1,3,1,-10,1,7,1,-4,1,4,1,0,1,-8,1,0,1,-10,1
1753,-8,1,4,1,12,1,2,1,-10,1,8,1,-4,1,3,1,1,1,-8,1,0,1,-11,1
1754,-10,1,3,1,13,1,3,1,-11,1,8,1,-4,1,2,1,0,1,-9,1,-1,1,-12,1
1755,-12,1,1,1,13,1,5,1,-12,1,7,1,-5,1,2,1,0,1,-10,1,-2,1,-12,1
1756,-11,1,2,1,13,1,4,1,-12,1,7,1,-4,1,2,1,0,1,-10,1,-2,1,-12,1
1757,-10,1,4,1,14,1,3,1,-12,1,9,1,-4,1,3,1,0,1,-10,1,-2,1,-11,1
1758,-10,1,3,1,13,1,3,1,-11,1,8,1,-4,1,2,1,-1,1,-10,1,-2,1,-11,1
1759,-11,1,3,1,14,1,4,1,-12,1,8,1,-5,1,2,1,-1,1,-11,1,-2,1,-11,1
1760,-12,1,3,1,15,1,4,1,-13,1,9,1,-5,1,1,1,-2,1,-10,1,-1,1,-12,1
1761,-12,1,3,1,15,1,4,1,-13,1,9,1,-6,1,1,1,-2,1,-10,1,-1,1,-12,1
1762,-13,1,2,1,15,1,5,1,-14,1,8,1,-7,1,0,1,-3,1,-11,1,-1,1,-13,1
1763,-12,1,3,1,15,1,4,1,-13,1,9,1,-8,1,0,1,-2,1,-11,1,-2,1,-12,1
1764,-12,1,3,1,15,1,4,1,-13,1,9,1,-9,1,0,1,-2,1,-11,1,-2,1,-12,1
1765,-13,1,1,1,14,1,6,1,-13,1,7,1,-9,1,0,1,-2,1,-12,1,-3,1,-13,1
1766,-12,1,2,1,14,1,5,1,-13,1,8,1,-9,1,1,1,-2,1,-11,1,-2,1,-14,1
1767,-11,1,3,1,14,1,4,1,-12,1,8,1,-9,1,1,1,-2,1,-11,1,-2,1,-14,1
1768,-11,1,3,1,14,1,4,1,-12,1,8,1,-8,1,0,1,-2,1,-11,1,-3,1,-14,1
1769,-11,1,4,1,15,1,3,1,-13,1,9,1,-7,1,0,1,-2,1,-10,1,-2,1,-14,1
1770,-12,1,3,1,15,1,4,1,-13,1,9,1,-7,1,0,1,-3,1,-10,1,-3,1,-14,1
1771,-11,1,3,1,14,1,4,1,-12,1,8,1,-7,1,-1,1,-4,1,-12,1,-4,1,-15,1
1772,-11,1,4,1,15,1,3,1,-13,1,9,1,-6,1,-1,1,-4,1,-12,1,-3,1,-14,1
1773,-10,1,4,1,14,1,3,1,-12,1,9,1,-6,1,-1,1,-4,1,-12,1,-3,1,-14,1
1774,-8,1,5,1,13,1,1,1,-10,1,9,1,-7,1,-1,1,-4,1,-13,1,-4,1,-14,1
1775,-9,1,3,1,12,1,3,1,-10,1,7,1,-7,1,-2,1,-5,1,-13,1,-4,1,-15,1
1776,-12,1,0,1,12,1,6,1,-12,1,6,1,-8,1,-2,1,-6,1,-14,1,-5,1,-15,1
1777,-13,1,0,1,13,1,6,1,-13,1,6,1,-7,1,-1,1,-5,1,-14,1,-3,1,-15,1
1778,-11,1,2,1,13,1,4,1,-12,1,7,1,-6,1,0,1,-5,1,-14,1,-3,1,-15,1
1779,-9,1,4,1,13,1,2,1,-11,1,8,1,-5,1,0,1,-4,1,-14,1,-3,1,-15,1
1780,-11,1,3,1,14,1,4,1,-12,1,8,1,-5,1,0,1,-4,1,-14,1,-3,1,-16,1
1781,-12,1,3,1,15,1,4,1,-13,1,9,1,-4,1,-1,1,-3,1,-14,1,-3,1,-17,1
1782,-11,1,4,1,15,1,3,1,-13,1,9,1,-4,1,-1,1,-3,1,-14,1,-3,1,-16,1
1783,-13,1,1,1,14,1,6,1,-13,1,7,1,-4,1,-2,1,-3,1,-14,1,-4,1,-17,1
1784,-15,1,-1,1,14,1,8,1,-15,1,6,1,-6,1,-3,1,-4,1,-15,1,-5,1,-17,1
1785,-15,1,-1,1,14,1,8,1,-15,1,6,1,-6,1,-3,1,-4,1,-14,1,-4,1,-15,1
1786,-14,1,-1,1,13,1,7,1,-14,1,6,1,-7,1,-3,1,-5,1,-14,1,-4,1,-14,1
1787,-11,1,0,1,11,1,5,1,-11,1,5,1,-7,1,-2,1,-6,1,-14,1,-3,1,-13,1
1788,-9,1,2,1,11,1,3,1,-10,1,6,1,-7,1,-1,1,-6,1,-14,1,-2,1,-13,1
1789,-9,1,3,1,12,1,3,1,-10,1,7,1,-7,1,-2,1,-6,1,-15,1,-2,1,-13,1
1790,-9,1,2,1,11,1,3,1,-10,1,6,1,-8,1,-2,1,-7,1,-16,1,-2,1,-15,1
1791,-11,1,0,1,11,1,5,1,-11,1,5,1,-8,1,-3,1,-7,1,-16,1,-3,1,-16,1
1792,-13,1,-1,1,12,1,7,1,-13,1,5,1,-9,1,-5,1,-8,1,-18,1,-4,1,-18,1
1793,-13,1,0,1,13,1,6,1,-13,1,6,1,-7,1,-4,1,-7,1,-17,1,-4,1,-17,1
1794,-11,1,3,1,14,1,4,1,-12,1,8,1,-6,1,-2,1,-5,1,-15,1,-3,1,-15,1
1795,-12,1,3,1,15,1,4,1,-13,1,9,1,-6,1,-2,1,-5,1,-15,1,-3,1,-14,1
1796,-13,1,3,1,16,1,5,1,-14,1,9,1,-6,1,-2,1,-6,1,-16,1,-3,1,-15,1
1797,-14,1,2,1,16,1,6,1,-15,1,9,1,-6,1,-2,1,-6,1,-16,1,-3,1,-15,1
1798,-14,1,2,1,16,1,6,1,-15,1,9,1,-6,1,-2,1,-6,1,-16,1,-2,1,-16,1
1799,-13,1,1,1,14,1,6,1,-13,1,7,1,-6,1,-2,1,-7,1,-16,1,-2,1,-15,1
1800,-14,1,-1,1,13,1,7,1,-14,1,6,1,-7,1,-3,1,-9,1,-18,1,-4,1,-17,1
1801,-12,1,0,1,12,1,6,1,-12,1,6,1,-8,1,-3,1,-9,1,-18,1,-4,1,-16,1
1802,-11,1,0,1,11,1,5,1,-11,1,5,1,-8,1,-3,1,-9,1,-18,1,-4,1,-16,1
1803,-10,1,1,1,11,1,4,1,-10,1,6,1,-8,1,-3,1,-9,1,-18,1,-4,1,-16,1
1804,-11,1,0,1,11,1,5,1,-11,1,5,1,-8,1,-4,1,-10,1,-18,1,-5,1,-16,1
1805,-12,1,0,1,12,1,6,1,-12,1,6,1,-7,1,-3,1,-10,1,-18,1,-4,1,-17,1
1806,-11,1,0,1,11,1,5,1,-11,1,5,1,-7,1,-3,1,-9,1,-18,1,-3,1,-17,1
1807,-12,1,0,1,12,1,6,1,-12,1,6,1,-7,1,-3,1,-9,1,-18,1,-3,1,-17,1
1808,-14,1,-1,1,13,1,7,1,-14,1,6,1,-8,1,-4,1,-10,1,-18,1,-4,1,-17,1
1809,-14,1,-1,1,13,1,7,1,-14,1,6,1,-8,1,-4,1,-9,1,-18,1,-4,1,-17,1
1810,-13,1,0,1,13,1,6,1,-13,1,6,1,-8,1,-4,1,-9,1,-18,1,-4,1,-17,1
1811,-13,1,0,1,13,1,6,1,-13,1,6,1,-9,1,-4,1,-9,1,-18,1,-4,1,-18,1
1812,-13,1,0,1,13,1,6,1,-13,1,6,1,-9,1,-4,1,-9,1,-18,1,-5,1,-18,1
1813,-13,1,0,1,13,1,6,1,-13,1,6,1,-9,1,-4,1,-9,1,-18,1,-5,1,-18,1
1814,-16,1,-2,1,14,1,9,1,-15,1,6,1,-10,1,-5,1,-9,1,-19,1,-6,1,-19,1
1815,-16,1,-3,1,13,1,9,1,-15,1,5,1,-10,1,-5,1,-9,1,-18,1,-6,1,-19,1
1816,-14,1,-1,1,13,1,7,1,-14,1,6,1,-9,1,-5,1,-9,1,-18,1,-6,1,-19,1
1817,-14,1,0,1,14,1,7,1,-14,1,7,1,-9,1,-5,1,-9,1,-17,1,-5,1,-19,1
1818,-14,1,0,1,14,1,7,1,-14,1,7,1,-8,1,-5,1,-9,1,-16,1,-5,1,-18,1
1819,-12,1,2,1,14,1,5,1,-13,1,8,1,-7,1,-4,1,-8,1,-16,1,-4,1,-17,1
1820,-10,1,4,1,14,1,3,1,-12,1,9,1,-7,1,-4,1,-8,1,-16,1,-4,1,-17,1
1821,-9,1,4,1,13,1,2,1,-11,1,8,1,-7,1,-4,1,-8,1,-16,1,-4,1,-18,1
1822,-8,1,3,1,11,1,2,1,-9,1,7,1,-7,1,-3,1,-7,1,-16,1,-5,1,-18,1
1823,-11,1,0,1,11,1,5,1,-11,1,5,1,-8,1,-4,1,-9,1,-17,1,-5,1,-18,1
1824,-12,1,0,1,12,1,6,1,-12,1,6,1,-8,1,-3,1,-8,1,-18,1,-4,1,-18,1
1825,-12,1,0,1,12,1,6,1,-12,1,6,1,-8,1,-3,1,-8,1,-18,1,-4,1,-17,1
1826,-13,1,-1,1,12,1,7,1,-13,1,5,1,-8,1,-3,1,-8,1,-18,1,-3,1,-17,1
1827,-12,1,0,1,12,1,6,1,-12,1,6,1,-7,1,-3,1,-8,1,-18,1,-3,1,-17,1
1828,-12,1,0,1,12,1,6,1,-12,1,6,1,-7,1,-4,1,-8,1,-17,1,-3,1,-17,1
1829,-12,1,0,1,12,1,6,1,-12,1,6,1,-7,1,-4,1,-9,1,-16,1,-2,1,-17,1
1830,-13,1,0,1,13,1,6,1,-13,1,6,1,-7,1,-4,1,-10,1,-16,1,-3,1,-17,1
1831,-12,1,0,1,12,1,6,1,-12,1,6,1,-7,1,-4,1,-10,1,-17,1,-3,1,-17,1
1832,-10,1,2,1,12,1,4,1,-11,1,7,1,-6,1,-3,1,-9,1,-16,1,-2,1,-16,1
1833,-13,1,-1,1,12,1,7,1,-13,1,5,1,-7,1,-4,1,-10,1,-17,1,-3,1,-17,1
1834,-14,1,-1,1,13,1,7,1,-14,1,6,1,-7,1,-3,1,-10,1,-18,1,-3,1,-16,1
1835,-13,1,0,1,13,1,6,1,-13,1,6,1,-7,1,-3,1,-9,1,-18,1,-3,1,-16,1
1836,-13,1,0,1,13,1,6,1,-13,1,6,1,-7,1,-2,1,-8,1,-18,1,-2,1,-15,1
1837,-14,1,-1,1,13,1,7,1,-14,1,6,1,-9,1,-4,1,-8,1,-18,1,-3,1,-16,1
1838,-14,1,-1,1,13,1,7,1,-14,1,6,1,-10,1,-5,1,-9,1,-18,1,-4,1,-16,1
1839,-13,1,0,1,13,1,6,1,-13,1,6,1,-10,1,-4,1,-9,1,-17,1,-3,1,-16,1
1840,-12,1,2,1,14,1,5,1,-13,1,8,1,-9,1,-4,1,-8,1,-16,1,-3,1,-15,1
1841,-12,1,3,1,15,1,4,1,-13,1,9,1,-8,1,-4,1,-8,1,-16,1,-3,1,-15,1
1842,-11,1,3,1,14,1,4,1,-12,1,8,1,-8,1,-3,1,-9,1,-16,1,-3,1,-16,1
1843,-10,1,4,1,14,1,3,1,-12,1,9,1,-6,1,-2,1,-8,1,-15,1,-3,1,-15,1
1844,-9,1,6,1,15,1,1,1,-12,1,10,1,-4,1,0,1,-6,1,-14,1,-1,1,-14,1
1845,-15,1,3,1,18,1,6,1,-16,1,10,1,-5,1,0,1,-7,1,-14,1,-2,1,-14,1
1846,-18,1,0,1,18,1,9,1,-18,1,9,1,-5,1,-1,1,-7,1,-16,1,-3,1,-14,1
1847,-14,1,5,1,19,1,4,1,-16,1,12,1,-3,1,0,1,-5,1,-14,1,-1,1,-12,1
1848,-11,1,7,1,18,1,2,1,-14,1,12,1,-2,1,1,1,-5,1,-14,1,0,1,-12,1
1849,-9,1,8,1,17,1,0,1,-13,1,12,1,-1,1,1,1,-4,1,-13,1,0,1,-12,1
1850,-8,1,10,1,18,1,-1,1,-13,1,14,1,0,1,1,1,-3,1,-12,1,2,1,-10,1
1851,-8,1,11,1,19,1,-1,1,-13,1,15,1,0,1,2,1,-3,1,-12,1,3,1,-10,1
1852,-8,1,11,1,19,1,-1,1,-13,1,15,1,1,1,2,1,-2,1,-11,1,4,1,-10,1
1853,-8,1,12,1,20,1,-2,1,-14,1,16,1,1,1,3,1,-2,1,-10,1,5,1,-9,1
1854,-10,1,9,1,19,1,0,1,-14,1,14,1,1,1,2,1,-2,1,-11,1,4,1,-10,1
1855,-10,1,9,1,19,1,0,1,-14,1,14,1,1,1,3,1,-2,1,-11,1,4,1,-11,1
1856,-9,1,10,1,19,1,0,1,-14,1,14,1,1,1,4,1,-1,1,-10,1,4,1,-10,1
1857,-10,1,9,1,19,1,0,1,-14,1,14,1,0,1,4,1,-1,1,-11,1,3,1,-11,1
1858,-12,1,8,1,20,1,2,1,-16,1,14,1,0,1,5,1,-2,1,-12,1,2,1,-11,1
1859,-12,1,8,1,20,1,2,1,-16,1,14,1,-1,1,5,1,-2,1,-12,1,2,1,-10,1
1860,-10,1,10,1,20,1,0,1,-15,1,15,1,-1,1,7,1,-1,1,-11,1,2,1,-9,1
1861,-8,1,12,1,20,1,-2,1,-14,1,16,1,-1,1,7,1,-2,1,-10,1,3,1,-9,1
1862,-7,1,13,1,20,1,-3,1,-13,1,16,1,-2,1,7,1,-1,1,-9,1,3,1,-9,1
1863,-6,1,14,1,20,1,-4,1,-13,1,17,1,-3,1,7,1,-1,1,-9,1,4,1,-9,1
1864,-6,1,13,1,19,1,-3,1,-12,1,16,1,-6,1,5,1,-2,1,-10,1,4,1,-10,1
1865,-6,1,12,1,18,1,-3,1,-12,1,15,1,-8,1,4,1,-2,1,-10,1,5,1,-10,1
1866,-5,1,12,1,17,1,-3,1,-11,1,14,1,-9,1,4,1,-2,1,-10,1,5,1,-11,1
1867,-2,1,14,1,16,1,-6,1,-9,1,15,1,-10,1,4,1,-1,1,-9,1,6,1,-9,1
1868,-1,1,16,1,17,1,-7,1,-9,1,16,1,-10,1,5,1,0,1,-9,1,7,1,-9,1
1869,0,1,17,1,17,1,-8,1,-8,1,17,1,-11,1,6,1,0,1,-8,1,8,1,-8,1
1870,-1,1,16,1,17,1,-7,1,-9,1,16,1,-11,1,6,1,0,1,-8,1,7,1,-8,1
1871,-1,1,16,1,17,1,-7,1,-9,1,16,1,-13,1,5,1,-1,1,-9,1,7,1,-7,1
1872,0,1,17,1,17,1,-8,1,-8,1,17,1,-13,1,5,1,-1,1,-9,1,7,1,-7,1
1873,1,1,19,1,18,1,-10,1,-8,1,19,1,-13,1,4,1,-1,1,-9,1,7,1,-7,1
1874,1,1,20,1,19,1,-10,1,-9,1,20,1,-12,1,3,1,-1,1,-9,1,8,1,-6,1
1875,2,1,19,1,17,1,-10,1,-7,1,18,1,-13,1,2,1,-1,1,-9,1,7,1,-7,1
1876,0,1,17,1,17,1,-8,1,-8,1,17,1,-13,1,1,1,-2,1,-10,1,6,1,-8,1
1877,0,1,14,1,14,1,-7,1,-7,1,14,1,-13,1,1,1,-2,1,-10,1,6,1,-8,1
1878,-1,1,12,1,13,1,-5,1,-7,1,12,1,-13,1,1,1,-2,1,-10,1,6,1,-8,1
1879,-2,1,11,1,13,1,-4,1,-7,1,12,1,-13,1,1,1,-3,1,-10,1,7,1,-9,1
1880,-4,1,10,1,14,1,-3,1,-9,1,12,1,-14,1,1,1,-3,1,-10,1,7,1,-9,1
