TS,I,If,II,IIf,III,IIIf,aVR,aVRf,aVL,aVLf,aVF,aVFf,V1,V1f,V2,V2f,V3,V3f,V4,V4f,V5,V5f,V6,V6f
1,0,1,25,1,25,1,-12,1,-12,1,25,1,-11,1,-36,1,-48,1,-26,1,-34,1,-31,1
2,1,1,27,1,26,1,-14,1,-12,1,27,1,-12,1,-35,1,-48,1,-27,1,-34,1,-31,1
3,1,1,28,1,27,1,-14,1,-13,1,28,1,-11,1,-36,1,-47,1,-27,1,-34,1,-31,1
4,3,1,27,1,24,1,-15,1,-10,1,26,1,-12,1,-36,1,-48,1,-26,1,-32,1,-28,1
5,5,1,28,1,23,1,-16,1,-9,1,26,1,-12,1,-36,1,-47,1,-26,1,-30,1,-26,1
6,3,1,29,1,26,1,-16,1,-11,1,28,1,-11,1,-36,1,-46,1,-25,1,-30,1,-26,1
7,6,1,29,1,23,1,-17,1,-8,1,26,1,-10,1,-35,1,-46,1,-24,1,-30,1,-26,1
8,5,1,32,1,27,1,-18,1,-11,1,30,1,-7,1,-32,1,-45,1,-23,1,-30,1,-26,1
9,9,1,34,1,25,1,-21,1,-8,1,30,1,-6,1,-32,1,-46,1,-22,1,-30,1,-26,1
10,11,1,37,1,26,1,-24,1,-7,1,32,1,-4,1,-31,1,-44,1,-21,1,-29,1,-26,1
11,10,1,41,1,31,1,-25,1,-10,1,36,1,-3,1,-30,1,-43,1,-21,1,-28,1,-25,1
12,10,1,40,1,30,1,-25,1,-10,1,35,1,-2,1,-29,1,-41,1,-18,1,-27,1,-24,1
13,11,1,39,1,28,1,-25,1,-8,1,34,1,-3,1,-29,1,-40,1,-19,1,-26,1,-24,1
14,12,1,37,1,25,1,-24,1,-6,1,31,1,-5,1,-30,1,-41,1,-21,1,-27,1,-23,1
15,12,1,37,1,25,1,-24,1,-6,1,31,1,-5,1,-32,1,-43,1,-21,1,-28,1,-25,1
16,14,1,35,1,21,1,-24,1,-3,1,28,1,-6,1,-32,1,-44,1,-20,1,-27,1,-25,1
17,14,1,34,1,20,1,-24,1,-3,1,27,1,-5,1,-32,1,-44,1,-20,1,-26,1,-25,1
18,15,1,36,1,21,1,-25,1,-3,1,29,1,-5,1,-30,1,-40,1,-19,1,-24,1,-24,1
19,19,1,36,1,17,1,-27,1,1,1,27,1,-5,1,-30,1,-39,1,-18,1,-24,1,-24,1
20,22,1,38,1,16,1,-30,1,3,1,27,1,-5,1,-29,1,-37,1,-16,1,-22,1,-21,1
21,23,1,41,1,18,1,-32,1,3,1,30,1,-9,1,-29,1,-38,1,-16,1,-21,1,-19,1
22,25,1,42,1,17,1,-33,1,4,1,30,1,-9,1,-27,1,-36,1,-15,1,-20,1,-18,1
23,26,1,40,1,14,1,-33,1,6,1,27,1,-10,1,-29,1,-38,1,-15,1,-21,1,-19,1
24,25,1,39,1,14,1,-32,1,6,1,27,1,-12,1,-27,1,-36,1,-15,1,-19,1,-18,1
25,28,1,40,1,12,1,-34,1,8,1,26,1,-16,1,-30,1,-38,1,-15,1,-20,1,-19,1
26,27,1,39,1,12,1,-33,1,8,1,26,1,-19,1,-33,1,-39,1,-17,1,-21,1,-20,1
27,24,1,37,1,13,1,-30,1,6,1,25,1,-19,1,-37,1,-42,1,-19,1,-23,1,-22,1
28,24,1,36,1,12,1,-30,1,6,1,24,1,-18,1,-37,1,-42,1,-19,1,-25,1,-23,1
29,25,1,34,1,9,1,-29,1,8,1,22,1,-18,1,-36,1,-42,1,-19,1,-24,1,-23,1
30,28,1,34,1,6,1,-31,1,11,1,20,1,-16,1,-32,1,-39,1,-17,1,-23,1,-21,1
31,29,1,34,1,5,1,-31,1,12,1,20,1,-13,1,-30,1,-37,1,-15,1,-21,1,-21,1
32,29,1,34,1,5,1,-31,1,12,1,20,1,-13,1,-28,1,-36,1,-15,1,-21,1,-19,1
33,30,1,37,1,7,1,-33,1,12,1,22,1,-13,1,-27,1,-34,1,-13,1,-19,1,-17,1
34,32,1,37,1,5,1,-34,1,14,1,21,1,-15,1,-30,1,-36,1,-14,1,-19,1,-18,1
35,31,1,33,1,2,1,-32,1,15,1,18,1,-15,1,-30,1,-36,1,-14,1,-19,1,-18,1
36,33,1,34,1,1,1,-33,1,16,1,18,1,-15,1,-30,1,-35,1,-12,1,-18,1,-18,1
37,32,1,32,1,0,1,-32,1,16,1,16,1,-14,1,-29,1,-34,1,-12,1,-18,1,-18,1
38,32,1,30,1,-2,1,-31,1,17,1,14,1,-14,1,-29,1,-35,1,-14,1,-20,1,-18,1
39,32,1,30,1,-2,1,-31,1,17,1,14,1,-13,1,-28,1,-35,1,-13,1,-19,1,-16,1
40,31,1,32,1,1,1,-31,1,15,1,17,1,-12,1,-27,1,-34,1,-12,1,-18,1,-16,1
41,31,1,30,1,-1,1,-30,1,16,1,15,1,-10,1,-27,1,-31,1,-11,1,-17,1,-15,1
42,27,1,29,1,2,1,-28,1,13,1,16,1,-10,1,-27,1,-32,1,-12,1,-17,1,-15,1
43,25,1,28,1,3,1,-26,1,11,1,16,1,-11,1,-30,1,-34,1,-15,1,-20,1,-17,1
44,22,1,25,1,3,1,-23,1,10,1,14,1,-10,1,-28,1,-33,1,-15,1,-20,1,-18,1
45,24,1,26,1,2,1,-25,1,11,1,14,1,-9,1,-27,1,-34,1,-14,1,-18,1,-17,1
46,21,1,26,1,5,1,-23,1,8,1,16,1,-6,1,-26,1,-32,1,-13,1,-19,1,-16,1
47,20,1,21,1,1,1,-20,1,10,1,11,1,-6,1,-27,1,-35,1,-15,1,-22,1,-19,1
48,18,1,18,1,0,1,-18,1,9,1,9,1,-5,1,-28,1,-37,1,-18,1,-24,1,-21,1
49,12,1,13,1,1,1,-12,1,6,1,7,1,-6,1,-30,1,-38,1,-20,1,-26,1,-23,1
50,13,1,15,1,2,1,-14,1,6,1,9,1,-6,1,-29,1,-38,1,-21,1,-26,1,-23,1
51,17,1,16,1,-1,1,-16,1,9,1,8,1,-5,1,-29,1,-36,1,-20,1,-25,1,-23,1
52,17,1,13,1,-4,1,-15,1,11,1,5,1,-6,1,-30,1,-38,1,-21,1,-25,1,-22,1
53,15,1,13,1,-2,1,-14,1,9,1,6,1,-7,1,-32,1,-40,1,-22,1,-26,1,-23,1
54,14,1,15,1,1,1,-14,1,7,1,8,1,-8,1,-33,1,-40,1,-23,1,-26,1,-23,1
55,14,1,13,1,-1,1,-13,1,8,1,6,1,-6,1,-31,1,-39,1,-23,1,-26,1,-23,1
56,15,1,12,1,-3,1,-13,1,9,1,5,1,-7,1,-32,1,-38,1,-22,1,-25,1,-23,1
57,15,1,16,1,1,1,-15,1,7,1,9,1,-9,1,-33,1,-40,1,-25,1,-27,1,-25,1
58,16,1,20,1,4,1,-18,1,6,1,12,1,-9,1,-34,1,-39,1,-23,1,-27,1,-26,1
59,16,1,17,1,1,1,-16,1,8,1,9,1,-7,1,-32,1,-38,1,-21,1,-26,1,-23,1
60,17,1,15,1,-2,1,-16,1,10,1,7,1,-3,1,-30,1,-36,1,-19,1,-24,1,-21,1
61,19,1,18,1,-1,1,-18,1,10,1,9,1,-3,1,-28,1,-36,1,-19,1,-24,1,-21,1
62,22,1,21,1,-1,1,-21,1,12,1,10,1,-5,1,-30,1,-37,1,-19,1,-24,1,-21,1
63,22,1,24,1,2,1,-23,1,10,1,13,1,-5,1,-30,1,-36,1,-19,1,-22,1,-20,1
64,21,1,20,1,-1,1,-20,1,11,1,10,1,-5,1,-29,1,-35,1,-18,1,-21,1,-19,1
65,22,1,22,1,0,1,-22,1,11,1,11,1,-5,1,-29,1,-34,1,-18,1,-21,1,-19,1
66,21,1,23,1,2,1,-22,1,10,1,13,1,-4,1,-29,1,-34,1,-19,1,-23,1,-20,1
67,20,1,18,1,-2,1,-19,1,11,1,8,1,-5,1,-31,1,-36,1,-20,1,-25,1,-21,1
68,20,1,19,1,-1,1,-19,1,11,1,9,1,-6,1,-31,1,-36,1,-21,1,-25,1,-22,1
69,20,1,20,1,0,1,-20,1,10,1,10,1,-5,1,-30,1,-35,1,-20,1,-25,1,-21,1
70,19,1,17,1,-2,1,-18,1,11,1,8,1,-5,1,-29,1,-35,1,-20,1,-24,1,-22,1
71,18,1,17,1,-1,1,-17,1,10,1,8,1,-5,1,-30,1,-35,1,-19,1,-23,1,-22,1
72,18,1,17,1,-1,1,-17,1,10,1,8,1,-6,1,-30,1,-35,1,-19,1,-22,1,-22,1
73,15,1,17,1,2,1,-16,1,7,1,10,1,-7,1,-31,1,-35,1,-20,1,-23,1,-22,1
74,15,1,15,1,0,1,-15,1,8,1,8,1,-6,1,-30,1,-35,1,-21,1,-24,1,-23,1
75,10,1,15,1,5,1,-12,1,3,1,10,1,0,1,-24,1,-32,1,-18,1,-23,1,-23,1
76,8,1,15,1,7,1,-11,1,1,1,11,1,9,1,-15,1,-28,1,-18,1,-24,1,-25,1
77,9,1,16,1,7,1,-12,1,1,1,12,1,14,1,-8,1,-25,1,-17,1,-23,1,-26,1
78,11,1,17,1,6,1,-14,1,3,1,12,1,19,1,0,1,-18,1,-11,1,-20,1,-23,1
79,15,1,17,1,2,1,-16,1,7,1,10,1,24,1,13,1,-6,1,-3,1,-15,1,-18,1
80,22,1,15,1,-7,1,-18,1,15,1,4,1,34,1,33,1,10,1,9,1,-6,1,-12,1
81,26,1,16,1,-10,1,-21,1,18,1,3,1,49,1,59,1,32,1,25,1,4,1,-4,1
82,34,1,22,1,-12,1,-28,1,23,1,5,1,57,1,84,1,59,1,46,1,22,1,8,1
83,46,1,34,1,-12,1,-40,1,29,1,11,1,65,1,110,1,89,1,72,1,41,1,24,1
84,59,1,43,1,-16,1,-51,1,38,1,14,1,66,1,130,1,119,1,101,1,63,1,40,1
85,75,1,56,1,-19,1,-65,1,47,1,19,1,51,1,140,1,147,1,130,1,88,1,61,1
86,90,1,75,1,-15,1,-82,1,53,1,30,1,22,1,138,1,172,1,160,1,114,1,85,1
87,105,1,93,1,-12,1,-99,1,59,1,41,1,-12,1,125,1,190,1,184,1,138,1,108,1
88,119,1,118,1,-1,1,-118,1,60,1,59,1,-56,1,90,1,190,1,199,1,158,1,130,1
89,134,1,145,1,11,1,-139,1,62,1,78,1,-103,1,49,1,183,1,209,1,176,1,150,1
90,136,1,149,1,13,1,-142,1,62,1,81,1,-130,1,16,1,176,1,211,1,183,1,158,1
91,127,1,144,1,17,1,-135,1,55,1,81,1,-147,1,-12,1,165,1,205,1,181,1,158,1
92,112,1,124,1,12,1,-118,1,50,1,68,1,-152,1,-33,1,145,1,183,1,160,1,141,1
93,94,1,97,1,3,1,-95,1,46,1,50,1,-156,1,-62,1,102,1,139,1,120,1,109,1
94,70,1,78,1,8,1,-74,1,31,1,43,1,-159,1,-107,1,40,1,80,1,74,1,75,1
95,46,1,59,1,13,1,-52,1,17,1,36,1,-162,1,-150,1,-24,1,22,1,29,1,41,1
96,19,1,35,1,16,1,-27,1,2,1,26,1,-164,1,-192,1,-88,1,-33,1,-12,1,7,1
97,1,1,16,1,15,1,-8,1,-7,1,16,1,-177,1,-237,1,-148,1,-80,1,-46,1,-20,1
98,-15,1,0,1,15,1,7,1,-15,1,7,1,-187,1,-267,1,-193,1,-116,1,-71,1,-39,1
99,-30,1,-16,1,14,1,23,1,-22,1,-1,1,-188,1,-279,1,-220,1,-139,1,-90,1,-56,1
100,-36,1,-23,1,13,1,29,1,-25,1,-5,1,-188,1,-275,1,-225,1,-148,1,-100,1,-66,1
101,-38,1,-25,1,13,1,31,1,-26,1,-6,1,-182,1,-265,1,-221,1,-148,1,-103,1,-71,1
102,-40,1,-26,1,14,1,33,1,-27,1,-6,1,-177,1,-252,1,-212,1,-146,1,-105,1,-75,1
103,-44,1,-33,1,11,1,38,1,-28,1,-11,1,-169,1,-236,1,-203,1,-144,1,-108,1,-79,1
104,-48,1,-32,1,16,1,40,1,-32,1,-8,1,-158,1,-219,1,-192,1,-139,1,-106,1,-81,1
105,-51,1,-26,1,25,1,38,1,-38,1,-1,1,-140,1,-195,1,-170,1,-123,1,-97,1,-76,1
106,-47,1,-14,1,33,1,30,1,-40,1,9,1,-119,1,-169,1,-148,1,-106,1,-85,1,-68,1
107,-39,1,-3,1,36,1,21,1,-38,1,16,1,-101,1,-146,1,-128,1,-90,1,-74,1,-59,1
108,-34,1,1,1,35,1,16,1,-34,1,18,1,-82,1,-122,1,-107,1,-74,1,-61,1,-49,1
109,-30,1,5,1,35,1,12,1,-32,1,20,1,-61,1,-97,1,-86,1,-58,1,-49,1,-38,1
110,-23,1,9,1,32,1,7,1,-27,1,20,1,-45,1,-76,1,-68,1,-44,1,-38,1,-32,1
111,-17,1,8,1,25,1,4,1,-21,1,16,1,-35,1,-60,1,-56,1,-36,1,-33,1,-29,1
112,-14,1,6,1,20,1,4,1,-17,1,13,1,-26,1,-50,1,-49,1,-33,1,-32,1,-28,1
113,-11,1,1,1,12,1,5,1,-11,1,6,1,-17,1,-40,1,-41,1,-27,1,-29,1,-26,1
114,-7,1,-2,1,5,1,4,1,-6,1,1,1,-12,1,-31,1,-34,1,-23,1,-26,1,-25,1
115,-4,1,-5,1,-1,1,4,1,-2,1,-3,1,-10,1,-27,1,-32,1,-21,1,-25,1,-24,1
116,-6,1,-5,1,1,1,5,1,-4,1,-2,1,-7,1,-25,1,-31,1,-20,1,-25,1,-24,1
117,-10,1,-5,1,5,1,7,1,-8,1,0,1,-5,1,-21,1,-29,1,-17,1,-23,1,-22,1
118,-12,1,-6,1,6,1,9,1,-9,1,0,1,-3,1,-19,1,-27,1,-16,1,-23,1,-22,1
119,-11,1,-7,1,4,1,9,1,-8,1,-2,1,-2,1,-18,1,-24,1,-14,1,-23,1,-21,1
120,-9,1,-10,1,-1,1,9,1,-4,1,-6,1,-2,1,-17,1,-24,1,-14,1,-22,1,-21,1
121,-8,1,-12,1,-4,1,10,1,-2,1,-8,1,-2,1,-15,1,-22,1,-13,1,-22,1,-21,1
122,-8,1,-12,1,-4,1,10,1,-2,1,-8,1,0,1,-14,1,-21,1,-12,1,-21,1,-20,1
123,-6,1,-12,1,-6,1,9,1,0,1,-9,1,0,1,-13,1,-18,1,-10,1,-18,1,-17,1
124,-3,1,-12,1,-9,1,7,1,3,1,-11,1,0,1,-14,1,-19,1,-10,1,-19,1,-17,1
125,-2,1,-8,1,-6,1,5,1,2,1,-7,1,0,1,-13,1,-19,1,-10,1,-19,1,-17,1
126,-4,1,-10,1,-6,1,7,1,1,1,-8,1,1,1,-14,1,-19,1,-10,1,-19,1,-18,1
127,-3,1,-10,1,-7,1,6,1,2,1,-9,1,3,1,-11,1,-17,1,-9,1,-18,1,-17,1
128,-1,1,-9,1,-8,1,5,1,3,1,-9,1,2,1,-8,1,-16,1,-8,1,-17,1,-16,1
129,0,1,-5,1,-5,1,2,1,2,1,-5,1,2,1,-10,1,-16,1,-10,1,-19,1,-17,1
130,0,1,-6,1,-6,1,3,1,3,1,-6,1,3,1,-9,1,-16,1,-9,1,-19,1,-17,1
131,1,1,-6,1,-7,1,2,1,4,1,-6,1,3,1,-7,1,-15,1,-9,1,-19,1,-18,1
132,0,1,-5,1,-5,1,2,1,2,1,-5,1,5,1,-5,1,-13,1,-7,1,-19,1,-17,1
133,-3,1,-7,1,-4,1,5,1,0,1,-6,1,6,1,-3,1,-13,1,-6,1,-20,1,-17,1
134,0,1,-9,1,-9,1,4,1,4,1,-9,1,6,1,-4,1,-14,1,-7,1,-20,1,-18,1
135,3,1,-11,1,-14,1,4,1,8,1,-12,1,5,1,-4,1,-13,1,-8,1,-20,1,-18,1
136,5,1,-10,1,-15,1,2,1,10,1,-12,1,6,1,-4,1,-13,1,-8,1,-21,1,-19,1
137,7,1,-9,1,-16,1,1,1,11,1,-12,1,6,1,-3,1,-13,1,-9,1,-22,1,-20,1
138,6,1,-12,1,-18,1,3,1,12,1,-15,1,5,1,-2,1,-14,1,-9,1,-24,1,-20,1
139,10,1,-11,1,-21,1,0,1,15,1,-16,1,7,1,-1,1,-12,1,-9,1,-23,1,-20,1
140,9,1,-12,1,-21,1,1,1,15,1,-16,1,6,1,-2,1,-13,1,-10,1,-24,1,-20,1
141,8,1,-13,1,-21,1,2,1,14,1,-17,1,6,1,-2,1,-13,1,-10,1,-24,1,-19,1
142,12,1,-9,1,-21,1,-1,1,16,1,-15,1,5,1,-1,1,-12,1,-7,1,-21,1,-17,1
143,12,1,-11,1,-23,1,0,1,17,1,-17,1,6,1,1,1,-11,1,-6,1,-19,1,-17,1
144,14,1,-11,1,-25,1,-1,1,19,1,-18,1,4,1,0,1,-12,1,-6,1,-20,1,-17,1
145,13,1,-13,1,-26,1,0,1,19,1,-19,1,4,1,0,1,-11,1,-7,1,-20,1,-16,1
146,11,1,-12,1,-23,1,0,1,17,1,-17,1,8,1,3,1,-10,1,-5,1,-19,1,-13,1
147,8,1,-12,1,-20,1,2,1,14,1,-16,1,11,1,5,1,-10,1,-6,1,-20,1,-12,1
148,7,1,-13,1,-20,1,3,1,13,1,-16,1,11,1,5,1,-9,1,-7,1,-22,1,-14,1
149,9,1,-14,1,-23,1,2,1,16,1,-18,1,13,1,9,1,-7,1,-5,1,-19,1,-13,1
150,11,1,-14,1,-25,1,1,1,18,1,-19,1,14,1,11,1,-6,1,-2,1,-18,1,-13,1
151,12,1,-12,1,-24,1,0,1,18,1,-18,1,15,1,11,1,-5,1,-2,1,-19,1,-14,1
152,13,1,-11,1,-24,1,-1,1,18,1,-17,1,16,1,12,1,-3,1,-2,1,-19,1,-13,1
153,14,1,-8,1,-22,1,-3,1,18,1,-15,1,14,1,12,1,-3,1,-2,1,-19,1,-15,1
154,16,1,-8,1,-24,1,-4,1,20,1,-16,1,14,1,14,1,-1,1,0,1,-17,1,-13,1
155,17,1,-12,1,-29,1,-2,1,23,1,-20,1,16,1,17,1,2,1,2,1,-14,1,-11,1
156,17,1,-11,1,-28,1,-3,1,22,1,-19,1,15,1,17,1,2,1,3,1,-14,1,-11,1
157,17,1,-8,1,-25,1,-4,1,21,1,-16,1,14,1,18,1,3,1,3,1,-14,1,-10,1
158,18,1,-12,1,-30,1,-3,1,24,1,-21,1,17,1,22,1,8,1,6,1,-13,1,-8,1
159,18,1,-16,1,-34,1,-1,1,26,1,-25,1,18,1,24,1,9,1,8,1,-11,1,-6,1
160,17,1,-14,1,-31,1,-1,1,24,1,-22,1,20,1,25,1,11,1,11,1,-9,1,-5,1
161,16,1,-14,1,-30,1,-1,1,23,1,-22,1,19,1,26,1,13,1,13,1,-8,1,-5,1
162,19,1,-13,1,-32,1,-3,1,25,1,-22,1,20,1,25,1,13,1,13,1,-6,1,-4,1
163,20,1,-11,1,-31,1,-4,1,25,1,-21,1,20,1,27,1,13,1,13,1,-6,1,-4,1
164,18,1,-11,1,-29,1,-3,1,23,1,-20,1,19,1,28,1,14,1,13,1,-5,1,-5,1
165,18,1,-11,1,-29,1,-3,1,23,1,-20,1,18,1,30,1,15,1,14,1,-3,1,-4,1
166,20,1,-10,1,-30,1,-5,1,25,1,-20,1,18,1,32,1,17,1,15,1,-2,1,-4,1
167,22,1,-10,1,-32,1,-6,1,27,1,-21,1,19,1,34,1,18,1,16,1,-2,1,-4,1
168,20,1,-9,1,-29,1,-5,1,24,1,-19,1,20,1,36,1,19,1,17,1,-2,1,-2,1
169,24,1,-8,1,-32,1,-8,1,28,1,-20,1,21,1,39,1,20,1,18,1,0,1,0,1
170,23,1,-9,1,-32,1,-7,1,27,1,-20,1,21,1,42,1,24,1,21,1,2,1,2,1
171,24,1,-8,1,-32,1,-8,1,28,1,-20,1,20,1,44,1,25,1,22,1,2,1,2,1
172,21,1,-6,1,-27,1,-7,1,24,1,-16,1,21,1,45,1,26,1,22,1,2,1,2,1
173,20,1,-4,1,-24,1,-8,1,22,1,-14,1,21,1,46,1,26,1,21,1,2,1,1,1
174,21,1,-5,1,-26,1,-8,1,23,1,-15,1,21,1,49,1,28,1,22,1,3,1,1,1
175,23,1,-3,1,-26,1,-10,1,24,1,-14,1,20,1,51,1,32,1,24,1,4,1,3,1
176,24,1,-3,1,-27,1,-10,1,25,1,-15,1,18,1,50,1,31,1,23,1,6,1,4,1
177,24,1,-1,1,-25,1,-11,1,24,1,-13,1,18,1,51,1,30,1,23,1,6,1,4,1
178,26,1,2,1,-24,1,-14,1,25,1,-11,1,20,1,53,1,32,1,24,1,6,1,4,1
179,27,1,0,1,-27,1,-13,1,27,1,-13,1,21,1,56,1,34,1,27,1,8,1,6,1
180,28,1,2,1,-26,1,-15,1,27,1,-12,1,23,1,58,1,36,1,29,1,10,1,7,1
181,28,1,6,1,-22,1,-17,1,25,1,-8,1,20,1,59,1,37,1,29,1,10,1,6,1
182,28,1,7,1,-21,1,-17,1,25,1,-7,1,19,1,59,1,38,1,29,1,10,1,6,1
183,27,1,6,1,-21,1,-16,1,24,1,-7,1,21,1,63,1,42,1,32,1,14,1,9,1
184,28,1,8,1,-20,1,-18,1,24,1,-6,1,22,1,65,1,45,1,35,1,15,1,10,1
185,28,1,9,1,-19,1,-18,1,24,1,-5,1,21,1,65,1,46,1,35,1,16,1,10,1
186,30,1,12,1,-18,1,-21,1,24,1,-3,1,21,1,65,1,47,1,36,1,16,1,10,1
187,31,1,13,1,-18,1,-22,1,25,1,-2,1,21,1,67,1,47,1,37,1,17,1,10,1
188,30,1,15,1,-15,1,-22,1,23,1,0,1,20,1,69,1,49,1,38,1,19,1,11,1
189,32,1,19,1,-13,1,-25,1,23,1,3,1,20,1,68,1,50,1,40,1,20,1,12,1
190,33,1,19,1,-14,1,-26,1,24,1,3,1,20,1,68,1,50,1,40,1,21,1,12,1
191,34,1,23,1,-11,1,-28,1,23,1,6,1,18,1,69,1,51,1,42,1,22,1,13,1
192,35,1,25,1,-10,1,-30,1,23,1,8,1,16,1,69,1,52,1,41,1,22,1,13,1
193,38,1,28,1,-10,1,-33,1,24,1,9,1,16,1,70,1,54,1,43,1,23,1,15,1
194,36,1,31,1,-5,1,-33,1,21,1,13,1,16,1,71,1,56,1,45,1,25,1,16,1
195,37,1,33,1,-4,1,-35,1,21,1,15,1,17,1,72,1,56,1,45,1,26,1,16,1
196,37,1,35,1,-2,1,-36,1,20,1,17,1,17,1,72,1,58,1,46,1,27,1,17,1
197,37,1,34,1,-3,1,-35,1,20,1,16,1,17,1,71,1,57,1,45,1,27,1,17,1
198,36,1,35,1,-1,1,-35,1,19,1,17,1,16,1,72,1,57,1,46,1,28,1,18,1
199,38,1,37,1,-1,1,-37,1,20,1,18,1,15,1,71,1,56,1,47,1,28,1,19,1
200,40,1,41,1,1,1,-40,1,20,1,21,1,13,1,69,1,55,1,46,1,27,1,19,1
201,39,1,42,1,3,1,-40,1,18,1,23,1,13,1,69,1,55,1,48,1,29,1,21,1
202,38,1,41,1,3,1,-39,1,18,1,22,1,12,1,68,1,55,1,47,1,28,1,21,1
203,38,1,43,1,5,1,-40,1,17,1,24,1,11,1,67,1,56,1,46,1,27,1,20,1
204,37,1,42,1,5,1,-39,1,16,1,24,1,9,1,65,1,54,1,46,1,27,1,20,1
205,37,1,43,1,6,1,-40,1,16,1,25,1,9,1,65,1,55,1,48,1,29,1,21,1
206,38,1,46,1,8,1,-42,1,15,1,27,1,8,1,64,1,54,1,47,1,31,1,24,1
207,38,1,47,1,9,1,-42,1,15,1,28,1,6,1,61,1,52,1,46,1,29,1,22,1
208,39,1,49,1,10,1,-44,1,15,1,30,1,4,1,60,1,51,1,45,1,27,1,21,1
209,40,1,50,1,10,1,-45,1,15,1,30,1,4,1,60,1,52,1,45,1,30,1,22,1
210,41,1,49,1,8,1,-45,1,17,1,29,1,4,1,60,1,51,1,45,1,30,1,22,1
211,42,1,51,1,9,1,-46,1,17,1,30,1,3,1,59,1,50,1,46,1,30,1,22,1
212,41,1,53,1,12,1,-47,1,15,1,33,1,4,1,58,1,50,1,47,1,30,1,22,1
213,41,1,53,1,12,1,-47,1,15,1,33,1,4,1,58,1,50,1,46,1,30,1,23,1
214,40,1,54,1,14,1,-47,1,13,1,34,1,2,1,56,1,49,1,44,1,28,1,22,1
215,37,1,54,1,17,1,-45,1,10,1,36,1,1,1,54,1,48,1,44,1,28,1,22,1
216,38,1,54,1,16,1,-46,1,11,1,35,1,1,1,53,1,47,1,43,1,27,1,22,1
217,40,1,55,1,15,1,-47,1,13,1,35,1,-1,1,50,1,45,1,40,1,25,1,20,1
218,37,1,54,1,17,1,-45,1,10,1,36,1,-1,1,48,1,43,1,38,1,24,1,19,1
219,38,1,54,1,16,1,-46,1,11,1,35,1,-2,1,47,1,41,1,38,1,24,1,19,1
220,37,1,56,1,19,1,-46,1,9,1,38,1,-1,1,46,1,39,1,37,1,23,1,17,1
221,34,1,57,1,23,1,-45,1,6,1,40,1,-2,1,42,1,36,1,33,1,21,1,15,1
222,32,1,55,1,23,1,-43,1,5,1,39,1,-3,1,39,1,34,1,32,1,20,1,15,1
223,31,1,55,1,24,1,-43,1,4,1,40,1,-3,1,38,1,32,1,30,1,18,1,15,1
224,28,1,56,1,28,1,-42,1,0,1,42,1,-3,1,36,1,31,1,27,1,16,1,13,1
225,27,1,58,1,31,1,-42,1,-2,1,45,1,-5,1,32,1,28,1,25,1,15,1,13,1
226,23,1,57,1,34,1,-40,1,-5,1,46,1,-6,1,29,1,27,1,23,1,14,1,12,1
227,17,1,55,1,38,1,-36,1,-10,1,47,1,-4,1,29,1,26,1,22,1,13,1,12,1
228,14,1,54,1,40,1,-34,1,-13,1,47,1,-3,1,27,1,24,1,21,1,13,1,11,1
229,12,1,53,1,41,1,-32,1,-14,1,47,1,-4,1,24,1,20,1,19,1,10,1,10,1
230,10,1,52,1,42,1,-31,1,-16,1,47,1,-5,1,22,1,17,1,17,1,8,1,7,1
231,10,1,52,1,42,1,-31,1,-16,1,47,1,-6,1,19,1,14,1,14,1,6,1,5,1
232,8,1,54,1,46,1,-31,1,-19,1,50,1,-9,1,15,1,11,1,10,1,3,1,2,1
233,4,1,54,1,50,1,-29,1,-23,1,52,1,-9,1,13,1,8,1,7,1,0,1,0,1
234,1,1,54,1,53,1,-27,1,-26,1,54,1,-11,1,10,1,5,1,4,1,-2,1,-3,1
235,0,1,56,1,56,1,-28,1,-28,1,56,1,-14,1,7,1,2,1,1,1,-4,1,-5,1
236,-2,1,58,1,60,1,-28,1,-31,1,59,1,-16,1,4,1,-1,1,-1,1,-7,1,-8,1
237,-3,1,61,1,64,1,-29,1,-33,1,62,1,-19,1,0,1,-5,1,-4,1,-10,1,-9,1
238,-4,1,64,1,68,1,-30,1,-36,1,66,1,-20,1,-2,1,-8,1,-8,1,-13,1,-12,1
239,-8,1,68,1,76,1,-30,1,-42,1,72,1,-20,1,-6,1,-12,1,-11,1,-16,1,-15,1
240,-8,1,72,1,80,1,-32,1,-44,1,76,1,-23,1,-10,1,-15,1,-14,1,-18,1,-18,1
241,-8,1,72,1,80,1,-32,1,-44,1,76,1,-24,1,-12,1,-17,1,-16,1,-20,1,-19,1
242,-11,1,71,1,82,1,-30,1,-46,1,76,1,-26,1,-15,1,-20,1,-20,1,-22,1,-21,1
243,-9,1,75,1,84,1,-33,1,-46,1,79,1,-27,1,-17,1,-22,1,-22,1,-24,1,-23,1
244,-9,1,76,1,85,1,-33,1,-47,1,80,1,-29,1,-19,1,-25,1,-24,1,-25,1,-24,1
245,-9,1,75,1,84,1,-33,1,-46,1,79,1,-31,1,-23,1,-28,1,-26,1,-28,1,-26,1
246,-10,1,74,1,84,1,-32,1,-47,1,79,1,-31,1,-24,1,-30,1,-28,1,-30,1,-28,1
247,-9,1,76,1,85,1,-33,1,-47,1,80,1,-31,1,-24,1,-30,1,-28,1,-31,1,-28,1
248,-11,1,76,1,87,1,-32,1,-49,1,81,1,-31,1,-24,1,-31,1,-28,1,-30,1,-28,1
249,-11,1,76,1,87,1,-32,1,-49,1,81,1,-31,1,-25,1,-31,1,-28,1,-29,1,-28,1
250,-11,1,75,1,86,1,-32,1,-48,1,80,1,-30,1,-24,1,-31,1,-28,1,-30,1,-28,1
251,-11,1,77,1,88,1,-33,1,-49,1,82,1,-31,1,-25,1,-31,1,-30,1,-31,1,-30,1
252,-9,1,81,1,90,1,-36,1,-49,1,85,1,-32,1,-25,1,-32,1,-30,1,-30,1,-29,1
253,-8,1,82,1,90,1,-37,1,-49,1,86,1,-32,1,-25,1,-32,1,-30,1,-29,1,-28,1
254,-7,1,78,1,85,1,-35,1,-46,1,81,1,-31,1,-25,1,-33,1,-30,1,-30,1,-28,1
255,-5,1,81,1,86,1,-38,1,-45,1,83,1,-31,1,-25,1,-33,1,-32,1,-31,1,-28,1
256,-7,1,84,1,91,1,-38,1,-49,1,87,1,-32,1,-26,1,-35,1,-33,1,-31,1,-29,1
257,-9,1,82,1,91,1,-36,1,-50,1,86,1,-32,1,-26,1,-35,1,-32,1,-31,1,-30,1
258,-8,1,79,1,87,1,-35,1,-47,1,83,1,-31,1,-26,1,-35,1,-32,1,-31,1,-30,1
259,-8,1,80,1,88,1,-36,1,-48,1,84,1,-32,1,-27,1,-34,1,-31,1,-30,1,-30,1
260,-7,1,81,1,88,1,-37,1,-47,1,84,1,-33,1,-27,1,-34,1,-31,1,-30,1,-30,1
261,-7,1,82,1,89,1,-37,1,-48,1,85,1,-32,1,-26,1,-34,1,-32,1,-31,1,-30,1
262,-8,1,79,1,87,1,-35,1,-47,1,83,1,-30,1,-25,1,-34,1,-32,1,-31,1,-29,1
263,-8,1,78,1,86,1,-35,1,-47,1,82,1,-30,1,-25,1,-32,1,-32,1,-30,1,-30,1
264,-6,1,79,1,85,1,-36,1,-45,1,82,1,-30,1,-26,1,-33,1,-32,1,-30,1,-30,1
265,-5,1,78,1,83,1,-36,1,-44,1,80,1,-30,1,-27,1,-32,1,-32,1,-29,1,-30,1
266,-5,1,79,1,84,1,-37,1,-44,1,81,1,-30,1,-26,1,-32,1,-32,1,-29,1,-30,1
267,-8,1,76,1,84,1,-34,1,-46,1,80,1,-29,1,-26,1,-32,1,-30,1,-28,1,-30,1
268,-7,1,77,1,84,1,-35,1,-45,1,80,1,-27,1,-25,1,-31,1,-29,1,-27,1,-28,1
269,-8,1,75,1,83,1,-33,1,-45,1,79,1,-28,1,-25,1,-32,1,-29,1,-27,1,-27,1
270,-8,1,74,1,82,1,-33,1,-45,1,78,1,-28,1,-25,1,-32,1,-30,1,-28,1,-27,1
271,-6,1,75,1,81,1,-34,1,-43,1,78,1,-29,1,-24,1,-32,1,-30,1,-29,1,-28,1
272,-5,1,75,1,80,1,-35,1,-42,1,77,1,-26,1,-23,1,-29,1,-28,1,-28,1,-26,1
273,-7,1,73,1,80,1,-33,1,-43,1,76,1,-26,1,-22,1,-29,1,-28,1,-27,1,-26,1
274,-9,1,69,1,78,1,-30,1,-43,1,73,1,-27,1,-23,1,-30,1,-29,1,-29,1,-27,1
275,-7,1,68,1,75,1,-30,1,-41,1,71,1,-26,1,-24,1,-30,1,-30,1,-30,1,-29,1
276,-9,1,66,1,75,1,-28,1,-42,1,70,1,-25,1,-23,1,-31,1,-30,1,-30,1,-29,1
277,-8,1,66,1,74,1,-29,1,-41,1,70,1,-26,1,-24,1,-31,1,-30,1,-32,1,-30,1
278,-6,1,66,1,72,1,-30,1,-39,1,69,1,-25,1,-24,1,-31,1,-30,1,-31,1,-28,1
279,-6,1,65,1,71,1,-29,1,-38,1,68,1,-24,1,-22,1,-30,1,-30,1,-30,1,-27,1
280,-6,1,62,1,68,1,-28,1,-37,1,65,1,-22,1,-23,1,-31,1,-30,1,-31,1,-28,1
281,-6,1,60,1,66,1,-27,1,-36,1,63,1,-20,1,-22,1,-30,1,-30,1,-30,1,-27,1
282,-5,1,59,1,64,1,-27,1,-34,1,61,1,-22,1,-22,1,-30,1,-30,1,-30,1,-27,1
283,-4,1,59,1,63,1,-27,1,-33,1,61,1,-22,1,-22,1,-30,1,-29,1,-30,1,-26,1
284,-4,1,58,1,62,1,-27,1,-33,1,60,1,-21,1,-21,1,-30,1,-29,1,-30,1,-26,1
285,-5,1,57,1,62,1,-26,1,-33,1,59,1,-21,1,-21,1,-30,1,-29,1,-31,1,-26,1
286,-4,1,56,1,60,1,-26,1,-32,1,58,1,-21,1,-21,1,-30,1,-30,1,-31,1,-26,1
287,-3,1,55,1,58,1,-26,1,-30,1,56,1,-21,1,-21,1,-31,1,-30,1,-32,1,-26,1
288,-6,1,53,1,59,1,-23,1,-32,1,56,1,-23,1,-23,1,-32,1,-30,1,-32,1,-27,1
289,-5,1,52,1,57,1,-23,1,-31,1,54,1,-23,1,-24,1,-32,1,-30,1,-32,1,-27,1
290,-3,1,53,1,56,1,-25,1,-29,1,54,1,-21,1,-24,1,-32,1,-30,1,-32,1,-27,1
291,-3,1,50,1,53,1,-23,1,-28,1,51,1,-22,1,-24,1,-32,1,-30,1,-31,1,-27,1
292,-3,1,49,1,52,1,-23,1,-27,1,50,1,-23,1,-25,1,-32,1,-30,1,-30,1,-27,1
293,-2,1,49,1,51,1,-23,1,-26,1,50,1,-24,1,-24,1,-32,1,-30,1,-31,1,-27,1
294,-2,1,47,1,49,1,-22,1,-25,1,48,1,-23,1,-25,1,-33,1,-31,1,-32,1,-27,1
295,-1,1,44,1,45,1,-21,1,-23,1,44,1,-21,1,-24,1,-33,1,-30,1,-31,1,-27,1
296,0,1,45,1,45,1,-22,1,-22,1,45,1,-21,1,-24,1,-33,1,-29,1,-31,1,-26,1
297,-3,1,43,1,46,1,-20,1,-24,1,44,1,-21,1,-25,1,-33,1,-30,1,-30,1,-26,1
298,-4,1,43,1,47,1,-19,1,-25,1,45,1,-20,1,-24,1,-32,1,-28,1,-29,1,-26,1
299,-2,1,43,1,45,1,-20,1,-23,1,44,1,-19,1,-24,1,-32,1,-28,1,-28,1,-26,1
300,-2,1,41,1,43,1,-19,1,-22,1,42,1,-21,1,-24,1,-32,1,-30,1,-30,1,-27,1
301,-2,1,39,1,41,1,-18,1,-21,1,40,1,-20,1,-24,1,-32,1,-30,1,-30,1,-27,1
302,0,1,41,1,41,1,-20,1,-20,1,41,1,-22,1,-26,1,-33,1,-30,1,-31,1,-27,1
303,1,1,40,1,39,1,-20,1,-19,1,40,1,-21,1,-25,1,-33,1,-31,1,-31,1,-27,1
304,1,1,41,1,40,1,-21,1,-19,1,41,1,-21,1,-24,1,-33,1,-31,1,-30,1,-27,1
305,1,1,41,1,40,1,-21,1,-19,1,41,1,-21,1,-27,1,-34,1,-32,1,-31,1,-28,1
306,0,1,42,1,42,1,-21,1,-21,1,42,1,-23,1,-26,1,-35,1,-32,1,-30,1,-28,1
307,-2,1,41,1,43,1,-19,1,-22,1,42,1,-23,1,-27,1,-36,1,-33,1,-31,1,-28,1
308,0,1,40,1,40,1,-20,1,-20,1,40,1,-23,1,-27,1,-36,1,-31,1,-30,1,-28,1
309,0,1,38,1,38,1,-19,1,-19,1,38,1,-24,1,-28,1,-36,1,-32,1,-31,1,-28,1
310,2,1,37,1,35,1,-19,1,-16,1,36,1,-23,1,-29,1,-37,1,-33,1,-33,1,-30,1
311,2,1,38,1,36,1,-20,1,-17,1,37,1,-23,1,-29,1,-36,1,-32,1,-33,1,-29,1
312,3,1,39,1,36,1,-21,1,-16,1,38,1,-24,1,-29,1,-37,1,-32,1,-33,1,-29,1
313,4,1,39,1,35,1,-21,1,-15,1,37,1,-23,1,-29,1,-36,1,-32,1,-32,1,-29,1
314,3,1,35,1,32,1,-19,1,-14,1,34,1,-23,1,-28,1,-36,1,-32,1,-31,1,-29,1
315,3,1,35,1,32,1,-19,1,-14,1,34,1,-23,1,-28,1,-36,1,-31,1,-31,1,-29,1
316,3,1,34,1,31,1,-18,1,-14,1,33,1,-24,1,-29,1,-38,1,-32,1,-33,1,-30,1
317,4,1,34,1,30,1,-19,1,-13,1,32,1,-23,1,-29,1,-38,1,-33,1,-34,1,-30,1
318,3,1,34,1,31,1,-18,1,-14,1,33,1,-22,1,-28,1,-37,1,-33,1,-33,1,-30,1
319,3,1,36,1,33,1,-19,1,-15,1,35,1,-24,1,-30,1,-38,1,-33,1,-34,1,-31,1
320,1,1,34,1,33,1,-17,1,-16,1,34,1,-24,1,-31,1,-40,1,-32,1,-33,1,-30,1
321,1,1,32,1,31,1,-16,1,-15,1,32,1,-24,1,-31,1,-39,1,-32,1,-32,1,-30,1
322,3,1,33,1,30,1,-18,1,-13,1,32,1,-24,1,-31,1,-39,1,-31,1,-31,1,-30,1
323,4,1,35,1,31,1,-19,1,-13,1,33,1,-24,1,-29,1,-37,1,-30,1,-30,1,-30,1
324,6,1,34,1,28,1,-20,1,-11,1,31,1,-23,1,-30,1,-37,1,-31,1,-30,1,-30,1
325,2,1,27,1,25,1,-14,1,-11,1,26,1,-20,1,-29,1,-36,1,-31,1,-30,1,-28,1
326,0,1,22,1,22,1,-11,1,-11,1,22,1,-18,1,-26,1,-36,1,-30,1,-28,1,-28,1
327,1,1,20,1,19,1,-10,1,-9,1,20,1,-18,1,-27,1,-36,1,-30,1,-30,1,-28,1
328,2,1,20,1,18,1,-11,1,-8,1,19,1,-18,1,-25,1,-35,1,-30,1,-29,1,-28,1
329,3,1,18,1,15,1,-10,1,-6,1,17,1,-17,1,-24,1,-35,1,-30,1,-29,1,-28,1
330,3,1,16,1,13,1,-9,1,-5,1,15,1,-18,1,-25,1,-36,1,-30,1,-28,1,-29,1
331,3,1,17,1,14,1,-10,1,-5,1,16,1,-18,1,-25,1,-34,1,-29,1,-28,1,-27,1
332,3,1,15,1,12,1,-9,1,-4,1,14,1,-18,1,-25,1,-34,1,-28,1,-28,1,-27,1
333,3,1,13,1,10,1,-8,1,-3,1,12,1,-17,1,-25,1,-34,1,-28,1,-28,1,-26,1
334,2,1,12,1,10,1,-7,1,-4,1,11,1,-19,1,-27,1,-35,1,-28,1,-27,1,-27,1
335,1,1,12,1,11,1,-6,1,-5,1,12,1,-18,1,-28,1,-36,1,-29,1,-27,1,-27,1
336,2,1,12,1,10,1,-7,1,-4,1,11,1,-17,1,-28,1,-36,1,-28,1,-26,1,-26,1
337,3,1,12,1,9,1,-7,1,-3,1,11,1,-17,1,-26,1,-35,1,-28,1,-25,1,-26,1
338,3,1,10,1,7,1,-6,1,-2,1,9,1,-15,1,-24,1,-33,1,-28,1,-25,1,-25,1
339,1,1,10,1,9,1,-5,1,-4,1,10,1,-15,1,-24,1,-33,1,-28,1,-24,1,-25,1
340,3,1,10,1,7,1,-6,1,-2,1,9,1,-15,1,-26,1,-34,1,-29,1,-26,1,-26,1
341,3,1,6,1,3,1,-4,1,0,1,5,1,-15,1,-25,1,-34,1,-29,1,-26,1,-26,1
342,3,1,6,1,3,1,-4,1,0,1,5,1,-14,1,-25,1,-34,1,-29,1,-26,1,-27,1
343,3,1,5,1,2,1,-4,1,1,1,4,1,-14,1,-24,1,-34,1,-27,1,-26,1,-26,1
344,0,1,3,1,3,1,-1,1,-1,1,3,1,-13,1,-23,1,-33,1,-26,1,-24,1,-24,1
345,0,1,2,1,2,1,-1,1,-1,1,2,1,-13,1,-24,1,-33,1,-26,1,-24,1,-24,1
346,2,1,1,1,-1,1,-1,1,2,1,0,1,-14,1,-24,1,-34,1,-27,1,-24,1,-25,1
347,2,1,0,1,-2,1,-1,1,2,1,-1,1,-12,1,-24,1,-33,1,-26,1,-23,1,-24,1
348,1,1,1,1,0,1,-1,1,1,1,1,1,-14,1,-26,1,-33,1,-27,1,-24,1,-25,1
349,3,1,2,1,-1,1,-2,1,2,1,1,1,-12,1,-24,1,-32,1,-25,1,-22,1,-24,1
350,3,1,2,1,-1,1,-2,1,2,1,1,1,-11,1,-24,1,-32,1,-24,1,-21,1,-22,1
351,2,1,1,1,-1,1,-1,1,2,1,0,1,-10,1,-24,1,-31,1,-24,1,-21,1,-22,1
352,3,1,2,1,-1,1,-2,1,2,1,1,1,-10,1,-24,1,-31,1,-24,1,-22,1,-22,1
353,4,1,4,1,0,1,-4,1,2,1,2,1,-9,1,-22,1,-30,1,-24,1,-21,1,-22,1
354,3,1,3,1,0,1,-3,1,2,1,2,1,-10,1,-22,1,-31,1,-24,1,-20,1,-22,1
355,3,1,5,1,2,1,-4,1,1,1,4,1,-10,1,-22,1,-31,1,-24,1,-20,1,-22,1
356,3,1,8,1,5,1,-5,1,-1,1,7,1,-10,1,-23,1,-31,1,-22,1,-19,1,-21,1
357,3,1,7,1,4,1,-5,1,0,1,6,1,-8,1,-21,1,-29,1,-21,1,-17,1,-19,1
358,3,1,7,1,4,1,-5,1,0,1,6,1,-5,1,-19,1,-27,1,-19,1,-15,1,-18,1
359,2,1,7,1,5,1,-4,1,-1,1,6,1,-2,1,-18,1,-25,1,-17,1,-14,1,-17,1
360,5,1,8,1,3,1,-6,1,1,1,6,1,-1,1,-17,1,-24,1,-16,1,-14,1,-16,1
361,6,1,8,1,2,1,-7,1,2,1,5,1,-1,1,-17,1,-25,1,-17,1,-13,1,-16,1
362,4,1,6,1,2,1,-5,1,1,1,4,1,-3,1,-18,1,-26,1,-19,1,-14,1,-17,1
363,4,1,4,1,0,1,-4,1,2,1,2,1,-4,1,-18,1,-26,1,-19,1,-15,1,-17,1
364,6,1,3,1,-3,1,-4,1,5,1,0,1,-3,1,-18,1,-26,1,-19,1,-15,1,-17,1
365,7,1,1,1,-6,1,-4,1,7,1,-2,1,-4,1,-17,1,-25,1,-19,1,-14,1,-16,1
366,6,1,2,1,-4,1,-4,1,5,1,-1,1,-5,1,-18,1,-25,1,-19,1,-14,1,-17,1
367,9,1,6,1,-3,1,-7,1,6,1,2,1,-5,1,-18,1,-25,1,-19,1,-13,1,-15,1
368,9,1,8,1,-1,1,-8,1,5,1,4,1,-6,1,-17,1,-23,1,-18,1,-13,1,-15,1
369,10,1,7,1,-3,1,-8,1,7,1,2,1,-5,1,-16,1,-21,1,-16,1,-12,1,-14,1
370,11,1,6,1,-5,1,-8,1,8,1,1,1,-4,1,-14,1,-19,1,-12,1,-9,1,-11,1
371,13,1,5,1,-8,1,-9,1,11,1,-1,1,-4,1,-12,1,-18,1,-11,1,-7,1,-10,1
372,14,1,5,1,-9,1,-9,1,12,1,-2,1,-9,1,-14,1,-18,1,-11,1,-8,1,-11,1
373,15,1,8,1,-7,1,-11,1,11,1,1,1,-11,1,-16,1,-21,1,-14,1,-9,1,-11,1
374,15,1,7,1,-8,1,-11,1,12,1,0,1,-13,1,-17,1,-22,1,-16,1,-11,1,-13,1
375,15,1,5,1,-10,1,-10,1,13,1,-2,1,-15,1,-20,1,-25,1,-18,1,-14,1,-16,1
376,14,1,3,1,-11,1,-8,1,13,1,-4,1,-14,1,-20,1,-25,1,-18,1,-14,1,-16,1
377,15,1,0,1,-15,1,-7,1,15,1,-7,1,-13,1,-18,1,-26,1,-18,1,-15,1,-15,1
378,15,1,0,1,-15,1,-7,1,15,1,-7,1,-12,1,-17,1,-24,1,-18,1,-13,1,-14,1
379,15,1,1,1,-14,1,-8,1,15,1,-6,1,-12,1,-17,1,-24,1,-18,1,-13,1,-14,1
380,14,1,1,1,-13,1,-7,1,14,1,-6,1,-12,1,-16,1,-24,1,-17,1,-10,1,-13,1
381,17,1,4,1,-13,1,-10,1,15,1,-4,1,-12,1,-16,1,-22,1,-15,1,-9,1,-13,1
382,19,1,3,1,-16,1,-11,1,18,1,-6,1,-12,1,-16,1,-21,1,-15,1,-9,1,-12,1
383,17,1,0,1,-17,1,-8,1,17,1,-8,1,-12,1,-16,1,-22,1,-15,1,-9,1,-12,1
384,10,1,0,1,-10,1,-5,1,10,1,-5,1,-12,1,-16,1,-21,1,-14,1,-8,1,-10,1
385,11,1,-1,1,-12,1,-5,1,11,1,-6,1,-12,1,-16,1,-21,1,-14,1,-8,1,-11,1
386,11,1,-1,1,-12,1,-5,1,11,1,-6,1,-12,1,-15,1,-22,1,-15,1,-9,1,-11,1
387,10,1,-2,1,-12,1,-4,1,11,1,-7,1,-11,1,-16,1,-23,1,-15,1,-9,1,-12,1
388,9,1,0,1,-9,1,-4,1,9,1,-4,1,-10,1,-15,1,-22,1,-15,1,-8,1,-12,1
389,9,1,1,1,-8,1,-5,1,9,1,-3,1,-9,1,-15,1,-20,1,-14,1,-8,1,-13,1
390,10,1,0,1,-10,1,-5,1,10,1,-5,1,-8,1,-12,1,-19,1,-14,1,-9,1,-13,1
391,8,1,-3,1,-11,1,-2,1,9,1,-7,1,-9,1,-14,1,-22,1,-16,1,-10,1,-15,1
392,6,1,-4,1,-10,1,-1,1,8,1,-7,1,-9,1,-13,1,-22,1,-17,1,-11,1,-16,1
393,3,1,-4,1,-7,1,0,1,5,1,-5,1,-9,1,-13,1,-21,1,-17,1,-12,1,-17,1
394,1,1,-5,1,-6,1,2,1,3,1,-5,1,-7,1,-14,1,-22,1,-18,1,-13,1,-18,1
395,-1,1,-7,1,-6,1,4,1,2,1,-7,1,-5,1,-14,1,-22,1,-18,1,-13,1,-17,1
396,-4,1,-10,1,-6,1,7,1,1,1,-8,1,-5,1,-15,1,-24,1,-19,1,-13,1,-18,1
397,-8,1,-13,1,-5,1,10,1,-2,1,-9,1,-6,1,-18,1,-27,1,-21,1,-16,1,-21,1
398,-6,1,-12,1,-6,1,9,1,0,1,-9,1,-7,1,-20,1,-29,1,-23,1,-16,1,-21,1
399,-2,1,-13,1,-11,1,7,1,4,1,-12,1,-11,1,-24,1,-32,1,-27,1,-19,1,-23,1
400,-5,1,-12,1,-7,1,8,1,1,1,-10,1,-11,1,-26,1,-34,1,-28,1,-20,1,-24,1
401,-12,1,-12,1,0,1,12,1,-6,1,-6,1,-9,1,-24,1,-33,1,-28,1,-20,1,-23,1
402,-9,1,-14,1,-5,1,11,1,-2,1,-10,1,-10,1,-24,1,-33,1,-28,1,-20,1,-24,1
403,-7,1,-13,1,-6,1,10,1,-1,1,-10,1,-11,1,-25,1,-34,1,-29,1,-21,1,-25,1
404,-11,1,-12,1,-1,1,11,1,-5,1,-7,1,-10,1,-24,1,-35,1,-30,1,-20,1,-25,1
405,-9,1,-12,1,-3,1,10,1,-3,1,-8,1,-11,1,-25,1,-35,1,-31,1,-22,1,-26,1
406,-10,1,-10,1,0,1,10,1,-5,1,-5,1,-10,1,-25,1,-35,1,-31,1,-22,1,-26,1
407,-9,1,-10,1,-1,1,9,1,-4,1,-6,1,-9,1,-24,1,-34,1,-30,1,-20,1,-26,1
408,-7,1,-14,1,-7,1,10,1,0,1,-11,1,-9,1,-24,1,-33,1,-29,1,-21,1,-26,1
409,-8,1,-13,1,-5,1,10,1,-2,1,-9,1,-8,1,-22,1,-32,1,-28,1,-21,1,-26,1
410,-9,1,-16,1,-7,1,12,1,-1,1,-12,1,-7,1,-22,1,-32,1,-28,1,-20,1,-25,1
411,-7,1,-15,1,-8,1,11,1,0,1,-12,1,-8,1,-23,1,-32,1,-28,1,-20,1,-24,1
412,-6,1,-14,1,-8,1,10,1,1,1,-11,1,-9,1,-24,1,-34,1,-29,1,-20,1,-25,1
413,-7,1,-15,1,-8,1,11,1,0,1,-12,1,-9,1,-25,1,-34,1,-29,1,-20,1,-24,1
414,-4,1,-14,1,-10,1,9,1,3,1,-12,1,-9,1,-25,1,-34,1,-29,1,-20,1,-23,1
415,-5,1,-14,1,-9,1,9,1,2,1,-12,1,-10,1,-24,1,-34,1,-29,1,-19,1,-23,1
416,-7,1,-16,1,-9,1,11,1,1,1,-13,1,-11,1,-25,1,-34,1,-29,1,-19,1,-24,1
417,-4,1,-16,1,-12,1,10,1,4,1,-14,1,-10,1,-26,1,-35,1,-30,1,-19,1,-24,1
418,-3,1,-16,1,-13,1,9,1,5,1,-15,1,-10,1,-26,1,-35,1,-30,1,-20,1,-25,1
419,-2,1,-15,1,-13,1,8,1,5,1,-14,1,-11,1,-25,1,-34,1,-30,1,-19,1,-25,1
420,0,1,-15,1,-15,1,7,1,7,1,-15,1,-12,1,-27,1,-34,1,-30,1,-20,1,-26,1
421,2,1,-15,1,-17,1,6,1,9,1,-16,1,-14,1,-28,1,-36,1,-31,1,-22,1,-27,1
422,0,1,-15,1,-15,1,7,1,7,1,-15,1,-13,1,-29,1,-38,1,-32,1,-23,1,-28,1
423,-2,1,-14,1,-12,1,8,1,5,1,-13,1,-10,1,-26,1,-36,1,-32,1,-22,1,-27,1
424,-3,1,-12,1,-9,1,7,1,3,1,-11,1,-2,1,-20,1,-32,1,-30,1,-21,1,-27,1
425,-3,1,-12,1,-9,1,7,1,3,1,-11,1,5,1,-12,1,-27,1,-29,1,-21,1,-27,1
426,-1,1,-9,1,-8,1,5,1,3,1,-9,1,10,1,-6,1,-24,1,-27,1,-20,1,-27,1
427,4,1,-6,1,-10,1,1,1,7,1,-8,1,15,1,4,1,-13,1,-19,1,-14,1,-23,1
428,10,1,-4,1,-14,1,-3,1,12,1,-9,1,19,1,17,1,-2,1,-11,1,-9,1,-19,1
429,18,1,-3,1,-21,1,-7,1,19,1,-12,1,28,1,39,1,14,1,0,1,-2,1,-14,1
430,27,1,-1,1,-28,1,-13,1,27,1,-14,1,42,1,65,1,36,1,18,1,10,1,-5,1
431,36,1,6,1,-30,1,-21,1,33,1,-12,1,52,1,90,1,63,1,40,1,28,1,9,1
432,46,1,15,1,-31,1,-30,1,39,1,-8,1,62,1,116,1,94,1,69,1,50,1,25,1
433,59,1,25,1,-34,1,-42,1,47,1,-4,1,64,1,138,1,126,1,98,1,72,1,44,1
434,77,1,41,1,-36,1,-59,1,57,1,3,1,48,1,148,1,156,1,128,1,97,1,65,1
435,96,1,58,1,-38,1,-77,1,67,1,10,1,21,1,145,1,181,1,158,1,123,1,88,1
436,108,1,75,1,-33,1,-91,1,71,1,21,1,-12,1,128,1,194,1,179,1,145,1,110,1
437,121,1,98,1,-23,1,-109,1,72,1,38,1,-58,1,91,1,192,1,192,1,164,1,131,1
438,130,1,119,1,-11,1,-124,1,71,1,54,1,-104,1,49,1,184,1,199,1,179,1,148,1
439,135,1,125,1,-10,1,-130,1,73,1,58,1,-131,1,17,1,176,1,199,1,182,1,154,1
440,126,1,119,1,-7,1,-122,1,67,1,56,1,-143,1,-9,1,162,1,190,1,174,1,148,1
441,112,1,97,1,-15,1,-104,1,64,1,41,1,-145,1,-31,1,137,1,161,1,146,1,125,1
442,92,1,70,1,-22,1,-81,1,57,1,24,1,-151,1,-67,1,84,1,109,1,102,1,91,1
443,66,1,54,1,-12,1,-60,1,39,1,21,1,-154,1,-115,1,20,1,49,1,58,1,57,1
444,41,1,31,1,-10,1,-36,1,26,1,11,1,-158,1,-159,1,-44,1,-8,1,14,1,22,1
445,18,1,11,1,-7,1,-14,1,13,1,2,1,-161,1,-206,1,-107,1,-60,1,-25,1,-7,1
446,2,1,-5,1,-7,1,1,1,4,1,-6,1,-171,1,-246,1,-160,1,-101,1,-53,1,-29,1
447,-13,1,-21,1,-8,1,17,1,-3,1,-15,1,-180,1,-272,1,-199,1,-132,1,-75,1,-48,1
448,-27,1,-35,1,-8,1,31,1,-10,1,-22,1,-181,1,-278,1,-216,1,-148,1,-89,1,-61,1
449,-31,1,-42,1,-11,1,36,1,-10,1,-27,1,-181,1,-271,1,-217,1,-153,1,-95,1,-68,1
450,-34,1,-41,1,-7,1,37,1,-14,1,-24,1,-175,1,-261,1,-211,1,-151,1,-96,1,-71,1
451,-36,1,-41,1,-5,1,38,1,-16,1,-23,1,-170,1,-249,1,-203,1,-147,1,-96,1,-73,1
452,-38,1,-44,1,-6,1,41,1,-16,1,-25,1,-161,1,-233,1,-194,1,-144,1,-98,1,-75,1
453,-41,1,-44,1,-3,1,42,1,-19,1,-24,1,-149,1,-212,1,-182,1,-136,1,-96,1,-76,1
454,-39,1,-37,1,2,1,38,1,-21,1,-18,1,-134,1,-190,1,-163,1,-123,1,-88,1,-72,1
455,-33,1,-28,1,5,1,30,1,-19,1,-12,1,-114,1,-164,1,-141,1,-107,1,-75,1,-63,1
456,-26,1,-22,1,4,1,24,1,-15,1,-9,1,-94,1,-139,1,-118,1,-90,1,-62,1,-53,1
457,-21,1,-13,1,8,1,17,1,-15,1,-3,1,-75,1,-115,1,-98,1,-75,1,-51,1,-44,1
458,-11,1,-6,1,5,1,8,1,-8,1,-1,1,-58,1,-91,1,-79,1,-60,1,-40,1,-36,1
459,-6,1,-5,1,1,1,5,1,-4,1,-2,1,-43,1,-72,1,-64,1,-50,1,-33,1,-31,1
460,0,1,-6,1,-6,1,3,1,3,1,-6,1,-30,1,-57,1,-52,1,-41,1,-27,1,-27,1
461,2,1,-7,1,-9,1,2,1,5,1,-8,1,-22,1,-46,1,-43,1,-33,1,-23,1,-24,1
462,3,1,-11,1,-14,1,4,1,8,1,-12,1,-15,1,-37,1,-36,1,-30,1,-21,1,-24,1
463,7,1,-16,1,-23,1,4,1,15,1,-19,1,-10,1,-29,1,-32,1,-27,1,-19,1,-24,1
464,9,1,-17,1,-26,1,4,1,17,1,-21,1,-8,1,-25,1,-30,1,-27,1,-19,1,-24,1
465,9,1,-19,1,-28,1,5,1,18,1,-23,1,-7,1,-23,1,-30,1,-27,1,-20,1,-24,1
466,8,1,-18,1,-26,1,5,1,17,1,-22,1,-6,1,-22,1,-29,1,-26,1,-19,1,-24,1
467,7,1,-18,1,-25,1,5,1,16,1,-21,1,-6,1,-21,1,-30,1,-27,1,-20,1,-24,1
468,11,1,-15,1,-26,1,2,1,18,1,-20,1,-6,1,-20,1,-28,1,-26,1,-21,1,-24,1
469,12,1,-15,1,-27,1,1,1,19,1,-21,1,-3,1,-16,1,-26,1,-25,1,-18,1,-22,1
470,9,1,-15,1,-24,1,3,1,16,1,-19,1,-2,1,-14,1,-24,1,-24,1,-17,1,-21,1
471,9,1,-15,1,-24,1,3,1,16,1,-19,1,-1,1,-13,1,-24,1,-24,1,-18,1,-21,1
472,10,1,-15,1,-25,1,2,1,17,1,-20,1,-1,1,-13,1,-24,1,-24,1,-17,1,-21,1
473,12,1,-13,1,-25,1,0,1,18,1,-19,1,-1,1,-12,1,-23,1,-22,1,-17,1,-21,1
474,12,1,-14,1,-26,1,1,1,19,1,-20,1,-1,1,-11,1,-21,1,-21,1,-17,1,-20,1
475,14,1,-13,1,-27,1,0,1,20,1,-20,1,-2,1,-8,1,-20,1,-21,1,-17,1,-21,1
476,13,1,-14,1,-27,1,0,1,20,1,-20,1,-1,1,-8,1,-20,1,-20,1,-17,1,-20,1
477,11,1,-14,1,-25,1,1,1,18,1,-19,1,1,1,-7,1,-18,1,-19,1,-16,1,-19,1
478,12,1,-13,1,-25,1,0,1,18,1,-19,1,0,1,-7,1,-17,1,-19,1,-15,1,-19,1
479,13,1,-10,1,-23,1,-1,1,18,1,-16,1,2,1,-5,1,-17,1,-18,1,-15,1,-19,1
480,13,1,-10,1,-23,1,-1,1,18,1,-16,1,2,1,-5,1,-17,1,-18,1,-15,1,-18,1
481,15,1,-9,1,-24,1,-3,1,19,1,-16,1,1,1,-5,1,-17,1,-19,1,-16,1,-18,1
482,16,1,-9,1,-25,1,-3,1,20,1,-17,1,3,1,-4,1,-15,1,-17,1,-14,1,-17,1
483,19,1,-10,1,-29,1,-4,1,24,1,-19,1,3,1,-3,1,-14,1,-17,1,-14,1,-16,1
484,20,1,-10,1,-30,1,-5,1,25,1,-20,1,3,1,-3,1,-14,1,-16,1,-15,1,-16,1
485,19,1,-9,1,-28,1,-5,1,23,1,-18,1,4,1,0,1,-12,1,-16,1,-14,1,-16,1
486,19,1,-11,1,-30,1,-4,1,24,1,-20,1,5,1,0,1,-12,1,-14,1,-13,1,-16,1
487,17,1,-11,1,-28,1,-3,1,22,1,-19,1,6,1,1,1,-11,1,-14,1,-12,1,-15,1
488,16,1,-11,1,-27,1,-2,1,21,1,-19,1,8,1,3,1,-9,1,-11,1,-10,1,-12,1
489,18,1,-11,1,-29,1,-3,1,23,1,-20,1,10,1,5,1,-7,1,-11,1,-9,1,-12,1
490,19,1,-10,1,-29,1,-4,1,24,1,-19,1,9,1,5,1,-8,1,-11,1,-10,1,-13,1
491,20,1,-9,1,-29,1,-5,1,24,1,-19,1,9,1,5,1,-7,1,-11,1,-10,1,-13,1
492,18,1,-11,1,-29,1,-3,1,23,1,-20,1,10,1,7,1,-5,1,-9,1,-9,1,-11,1
493,19,1,-11,1,-30,1,-4,1,24,1,-20,1,11,1,7,1,-6,1,-9,1,-9,1,-11,1
494,19,1,-11,1,-30,1,-4,1,24,1,-20,1,10,1,7,1,-5,1,-9,1,-9,1,-11,1
495,20,1,-11,1,-31,1,-4,1,25,1,-21,1,9,1,7,1,-5,1,-9,1,-9,1,-11,1
496,18,1,-9,1,-27,1,-4,1,22,1,-18,1,9,1,8,1,-4,1,-9,1,-8,1,-9,1
497,21,1,-8,1,-29,1,-6,1,25,1,-18,1,10,1,9,1,-3,1,-8,1,-7,1,-9,1
498,21,1,-7,1,-28,1,-7,1,24,1,-17,1,9,1,10,1,-3,1,-7,1,-7,1,-10,1
499,20,1,-7,1,-27,1,-6,1,23,1,-17,1,11,1,10,1,-1,1,-6,1,-6,1,-9,1
500,21,1,-8,1,-29,1,-6,1,25,1,-18,1,12,1,11,1,-1,1,-6,1,-6,1,-9,1
501,21,1,-8,1,-29,1,-6,1,25,1,-18,1,13,1,12,1,0,1,-4,1,-5,1,-8,1
502,20,1,-7,1,-27,1,-6,1,23,1,-17,1,13,1,14,1,0,1,-3,1,-4,1,-8,1
503,23,1,-6,1,-29,1,-8,1,26,1,-17,1,13,1,16,1,2,1,-2,1,-4,1,-8,1
504,24,1,-5,1,-29,1,-9,1,26,1,-17,1,13,1,16,1,3,1,-2,1,-3,1,-7,1
505,24,1,-3,1,-27,1,-10,1,25,1,-15,1,13,1,18,1,5,1,-1,1,-1,1,-6,1
506,23,1,-2,1,-25,1,-10,1,24,1,-13,1,13,1,18,1,5,1,-2,1,-1,1,-6,1
507,22,1,-4,1,-26,1,-9,1,24,1,-15,1,14,1,20,1,8,1,0,1,0,1,-3,1
508,23,1,-3,1,-26,1,-10,1,24,1,-14,1,15,1,21,1,8,1,1,1,1,1,-3,1
509,23,1,-4,1,-27,1,-9,1,25,1,-15,1,16,1,22,1,10,1,2,1,1,1,-3,1
510,23,1,-4,1,-27,1,-9,1,25,1,-15,1,17,1,25,1,12,1,3,1,2,1,-2,1
511,23,1,-3,1,-26,1,-10,1,24,1,-14,1,18,1,25,1,13,1,4,1,3,1,-2,1
512,23,1,-1,1,-24,1,-11,1,23,1,-12,1,18,1,26,1,16,1,6,1,5,1,0,1
513,24,1,-1,1,-25,1,-11,1,24,1,-13,1,18,1,28,1,18,1,8,1,8,1,0,1
514,24,1,-2,1,-26,1,-11,1,25,1,-14,1,19,1,29,1,19,1,9,1,10,1,2,1
515,24,1,-2,1,-26,1,-11,1,25,1,-14,1,21,1,31,1,21,1,11,1,12,1,2,1
516,18,1,-1,1,-19,1,-8,1,18,1,-10,1,21,1,33,1,23,1,12,1,12,1,3,1
517,17,1,3,1,-14,1,-10,1,16,1,-5,1,23,1,36,1,25,1,15,1,14,1,5,1
518,13,1,4,1,-9,1,-8,1,11,1,-2,1,24,1,38,1,27,1,17,1,15,1,6,1
519,12,1,4,1,-8,1,-8,1,10,1,-2,1,25,1,40,1,29,1,18,1,16,1,6,1
520,16,1,6,1,-10,1,-11,1,13,1,-2,1,27,1,42,1,32,1,20,1,17,1,8,1
521,16,1,5,1,-11,1,-10,1,14,1,-3,1,28,1,43,1,34,1,21,1,18,1,11,1
522,17,1,7,1,-10,1,-12,1,14,1,-1,1,28,1,45,1,35,1,23,1,20,1,12,1
523,17,1,7,1,-10,1,-12,1,14,1,-1,1,30,1,47,1,37,1,24,1,22,1,13,1
524,14,1,7,1,-7,1,-10,1,11,1,0,1,29,1,48,1,38,1,26,1,22,1,13,1
525,15,1,7,1,-8,1,-11,1,12,1,0,1,29,1,48,1,38,1,26,1,21,1,13,1
526,15,1,6,1,-9,1,-10,1,12,1,-1,1,30,1,51,1,40,1,28,1,23,1,15,1
527,19,1,9,1,-10,1,-14,1,15,1,0,1,31,1,54,1,43,1,31,1,25,1,17,1
528,22,1,11,1,-11,1,-16,1,17,1,0,1,32,1,57,1,44,1,32,1,26,1,18,1
529,22,1,13,1,-9,1,-17,1,16,1,2,1,32,1,58,1,46,1,33,1,27,1,18,1
530,22,1,13,1,-9,1,-17,1,16,1,2,1,33,1,59,1,49,1,36,1,27,1,20,1
531,24,1,15,1,-9,1,-19,1,17,1,3,1,34,1,60,1,51,1,38,1,28,1,21,1
532,23,1,16,1,-7,1,-19,1,15,1,5,1,35,1,64,1,53,1,40,1,31,1,24,1
533,21,1,16,1,-5,1,-18,1,13,1,6,1,36,1,65,1,54,1,41,1,33,1,25,1
534,22,1,17,1,-5,1,-19,1,14,1,6,1,36,1,66,1,55,1,43,1,34,1,26,1
535,24,1,20,1,-4,1,-22,1,14,1,8,1,36,1,67,1,57,1,45,1,36,1,28,1
536,22,1,21,1,-1,1,-21,1,12,1,10,1,37,1,69,1,59,1,47,1,38,1,30,1
537,23,1,22,1,-1,1,-22,1,12,1,11,1,37,1,71,1,60,1,49,1,40,1,31,1
538,26,1,23,1,-3,1,-24,1,15,1,10,1,36,1,71,1,60,1,49,1,41,1,32,1
539,26,1,24,1,-2,1,-25,1,14,1,11,1,35,1,72,1,62,1,51,1,42,1,34,1
540,25,1,26,1,1,1,-25,1,12,1,14,1,35,1,73,1,64,1,51,1,43,1,35,1
541,25,1,29,1,4,1,-27,1,11,1,17,1,36,1,74,1,66,1,54,1,44,1,35,1
542,26,1,31,1,5,1,-28,1,11,1,18,1,36,1,75,1,66,1,53,1,43,1,35,1
543,26,1,32,1,6,1,-29,1,10,1,19,1,36,1,74,1,66,1,53,1,43,1,35,1
544,26,1,33,1,7,1,-29,1,10,1,20,1,36,1,75,1,67,1,54,1,44,1,37,1
545,27,1,31,1,4,1,-29,1,12,1,18,1,36,1,76,1,67,1,55,1,45,1,37,1
546,28,1,32,1,4,1,-30,1,12,1,18,1,37,1,76,1,68,1,56,1,47,1,37,1
547,29,1,31,1,2,1,-30,1,14,1,17,1,37,1,77,1,69,1,57,1,48,1,38,1
548,31,1,33,1,2,1,-32,1,15,1,18,1,35,1,77,1,69,1,58,1,49,1,39,1
549,33,1,38,1,5,1,-35,1,14,1,22,1,33,1,74,1,67,1,56,1,47,1,38,1
550,31,1,39,1,8,1,-35,1,12,1,24,1,31,1,73,1,67,1,56,1,47,1,36,1
551,31,1,38,1,7,1,-34,1,12,1,23,1,31,1,72,1,67,1,56,1,48,1,36,1
552,30,1,39,1,9,1,-34,1,11,1,24,1,32,1,73,1,67,1,56,1,48,1,37,1
553,28,1,39,1,11,1,-33,1,9,1,25,1,33,1,72,1,65,1,55,1,48,1,37,1
554,27,1,39,1,12,1,-33,1,8,1,26,1,32,1,70,1,64,1,54,1,48,1,37,1
555,26,1,38,1,12,1,-32,1,7,1,25,1,33,1,69,1,63,1,54,1,48,1,39,1
556,25,1,39,1,14,1,-32,1,6,1,27,1,31,1,67,1,62,1,54,1,48,1,40,1
557,25,1,39,1,14,1,-32,1,6,1,27,1,31,1,68,1,62,1,54,1,49,1,40,1
558,28,1,39,1,11,1,-33,1,9,1,25,1,33,1,69,1,65,1,57,1,51,1,42,1
559,28,1,35,1,7,1,-31,1,11,1,21,1,34,1,70,1,67,1,58,1,51,1,43,1
560,27,1,32,1,5,1,-29,1,11,1,19,1,34,1,69,1,66,1,57,1,50,1,43,1
561,25,1,30,1,5,1,-27,1,10,1,18,1,32,1,68,1,66,1,57,1,49,1,42,1
562,25,1,32,1,7,1,-28,1,9,1,20,1,31,1,67,1,66,1,57,1,49,1,42,1
563,25,1,31,1,6,1,-28,1,10,1,19,1,31,1,67,1,65,1,57,1,49,1,43,1
564,24,1,28,1,4,1,-26,1,10,1,16,1,31,1,65,1,65,1,57,1,50,1,43,1
565,26,1,29,1,3,1,-27,1,12,1,16,1,32,1,65,1,66,1,58,1,50,1,44,1
566,24,1,26,1,2,1,-25,1,11,1,14,1,32,1,64,1,65,1,58,1,50,1,44,1
567,23,1,25,1,2,1,-24,1,11,1,14,1,32,1,62,1,64,1,58,1,50,1,45,1
568,23,1,25,1,2,1,-24,1,11,1,14,1,30,1,60,1,62,1,56,1,48,1,44,1
569,22,1,25,1,3,1,-23,1,10,1,14,1,30,1,59,1,60,1,55,1,48,1,43,1
570,23,1,26,1,3,1,-24,1,10,1,15,1,29,1,57,1,58,1,53,1,46,1,41,1
571,23,1,25,1,2,1,-24,1,11,1,14,1,29,1,53,1,54,1,50,1,45,1,39,1
572,22,1,25,1,3,1,-23,1,10,1,14,1,30,1,52,1,54,1,50,1,44,1,39,1
573,18,1,24,1,6,1,-21,1,6,1,15,1,29,1,50,1,52,1,47,1,42,1,36,1
574,15,1,22,1,7,1,-18,1,4,1,15,1,29,1,47,1,48,1,44,1,39,1,35,1
575,13,1,20,1,7,1,-16,1,3,1,14,1,29,1,45,1,46,1,42,1,38,1,34,1
576,12,1,20,1,8,1,-16,1,2,1,14,1,27,1,41,1,42,1,39,1,35,1,32,1
577,11,1,19,1,8,1,-15,1,2,1,14,1,27,1,37,1,39,1,35,1,32,1,29,1
578,8,1,17,1,9,1,-12,1,0,1,13,1,27,1,35,1,36,1,33,1,30,1,27,1
579,7,1,15,1,8,1,-11,1,0,1,12,1,26,1,31,1,33,1,30,1,27,1,25,1
580,6,1,15,1,9,1,-10,1,-1,1,12,1,24,1,29,1,30,1,27,1,24,1,23,1
581,4,1,13,1,9,1,-8,1,-2,1,11,1,23,1,26,1,27,1,24,1,22,1,21,1
582,0,1,10,1,10,1,-5,1,-5,1,10,1,23,1,23,1,24,1,22,1,21,1,20,1
583,-1,1,9,1,10,1,-4,1,-5,1,9,1,22,1,21,1,22,1,20,1,19,1,18,1
584,0,1,9,1,9,1,-4,1,-4,1,9,1,19,1,16,1,18,1,16,1,15,1,14,1
585,-1,1,8,1,9,1,-3,1,-5,1,8,1,19,1,15,1,16,1,14,1,14,1,13,1
586,-3,1,7,1,10,1,-2,1,-6,1,8,1,19,1,12,1,14,1,12,1,12,1,12,1
587,-3,1,5,1,8,1,-1,1,-5,1,6,1,17,1,7,1,9,1,8,1,9,1,8,1
588,-5,1,4,1,9,1,0,1,-7,1,6,1,14,1,4,1,7,1,5,1,6,1,6,1
589,-8,1,3,1,11,1,2,1,-9,1,7,1,13,1,4,1,5,1,4,1,5,1,6,1
590,-8,1,1,1,9,1,3,1,-8,1,5,1,13,1,2,1,4,1,3,1,4,1,5,1
591,-9,1,2,1,11,1,3,1,-10,1,6,1,12,1,-1,1,1,1,0,1,2,1,3,1
592,-9,1,1,1,10,1,4,1,-9,1,5,1,12,1,-3,1,0,1,-1,1,2,1,1,1
593,-10,1,-1,1,9,1,5,1,-10,1,4,1,11,1,-5,1,-2,1,-3,1,0,1,0,1
594,-11,1,-2,1,9,1,6,1,-10,1,3,1,11,1,-5,1,-4,1,-4,1,-1,1,-1,1
595,-12,1,-3,1,9,1,7,1,-11,1,3,1,9,1,-7,1,-5,1,-5,1,-3,1,-2,1
596,-12,1,-2,1,10,1,7,1,-11,1,4,1,9,1,-9,1,-8,1,-7,1,-6,1,-3,1
597,-12,1,-3,1,9,1,7,1,-11,1,3,1,9,1,-10,1,-8,1,-9,1,-6,1,-4,1
598,-13,1,-4,1,9,1,8,1,-11,1,2,1,9,1,-9,1,-8,1,-9,1,-6,1,-4,1
599,-15,1,-4,1,11,1,9,1,-13,1,3,1,10,1,-8,1,-8,1,-8,1,-5,1,-4,1
600,-13,1,-3,1,10,1,8,1,-12,1,3,1,9,1,-10,1,-9,1,-9,1,-4,1,-4,1
601,-13,1,-1,1,12,1,7,1,-13,1,5,1,8,1,-11,1,-9,1,-8,1,-5,1,-5,1
602,-15,1,-1,1,14,1,8,1,-15,1,6,1,6,1,-14,1,-11,1,-11,1,-7,1,-7,1
603,-15,1,-6,1,9,1,10,1,-12,1,1,1,8,1,-12,1,-9,1,-8,1,-5,1,-5,1
604,-15,1,-5,1,10,1,10,1,-13,1,2,1,7,1,-12,1,-9,1,-9,1,-5,1,-6,1
605,-14,1,-4,1,10,1,9,1,-12,1,3,1,7,1,-13,1,-9,1,-10,1,-7,1,-7,1
606,-14,1,-5,1,9,1,9,1,-12,1,2,1,7,1,-15,1,-10,1,-10,1,-6,1,-6,1
607,-14,1,-6,1,8,1,10,1,-11,1,1,1,7,1,-15,1,-10,1,-10,1,-6,1,-6,1
608,-16,1,-7,1,9,1,11,1,-13,1,1,1,7,1,-15,1,-10,1,-9,1,-7,1,-7,1
609,-15,1,-8,1,7,1,11,1,-11,1,-1,1,6,1,-15,1,-12,1,-11,1,-8,1,-8,1
610,-15,1,-9,1,6,1,12,1,-11,1,-2,1,6,1,-15,1,-13,1,-11,1,-8,1,-8,1
611,-15,1,-9,1,6,1,12,1,-11,1,-2,1,7,1,-14,1,-10,1,-10,1,-8,1,-6,1
612,-14,1,-9,1,5,1,11,1,-10,1,-2,1,8,1,-14,1,-10,1,-10,1,-8,1,-6,1
613,-13,1,-9,1,4,1,11,1,-9,1,-3,1,6,1,-15,1,-10,1,-11,1,-9,1,-7,1
614,-14,1,-7,1,7,1,10,1,-11,1,0,1,6,1,-16,1,-11,1,-10,1,-9,1,-7,1
615,-14,1,-7,1,7,1,10,1,-11,1,0,1,6,1,-16,1,-11,1,-10,1,-9,1,-8,1
616,-13,1,-7,1,6,1,10,1,-10,1,-1,1,6,1,-15,1,-12,1,-10,1,-11,1,-9,1
617,-13,1,-7,1,6,1,10,1,-10,1,-1,1,7,1,-16,1,-12,1,-11,1,-11,1,-10,1
618,-13,1,-6,1,7,1,9,1,-10,1,0,1,5,1,-16,1,-12,1,-11,1,-10,1,-9,1
619,-10,1,-6,1,4,1,8,1,-7,1,-1,1,5,1,-16,1,-12,1,-11,1,-9,1,-9,1
620,-12,1,-7,1,5,1,9,1,-9,1,-1,1,6,1,-16,1,-12,1,-11,1,-9,1,-9,1
621,-12,1,-7,1,5,1,9,1,-9,1,-1,1,6,1,-15,1,-13,1,-10,1,-9,1,-9,1
622,-13,1,-5,1,8,1,9,1,-11,1,1,1,6,1,-15,1,-13,1,-10,1,-10,1,-9,1
623,-14,1,-5,1,9,1,9,1,-12,1,2,1,6,1,-16,1,-12,1,-11,1,-10,1,-8,1
624,-14,1,-8,1,6,1,11,1,-10,1,-1,1,8,1,-16,1,-13,1,-10,1,-10,1,-8,1
625,-14,1,-6,1,8,1,10,1,-11,1,1,1,7,1,-16,1,-13,1,-11,1,-10,1,-8,1
626,-13,1,-6,1,7,1,9,1,-10,1,0,1,7,1,-15,1,-12,1,-11,1,-10,1,-8,1
627,-12,1,-7,1,5,1,9,1,-9,1,-1,1,6,1,-15,1,-13,1,-11,1,-10,1,-8,1
628,-11,1,-6,1,5,1,8,1,-8,1,-1,1,5,1,-17,1,-15,1,-13,1,-11,1,-9,1
629,-12,1,-6,1,6,1,9,1,-9,1,0,1,5,1,-17,1,-15,1,-13,1,-11,1,-9,1
630,-12,1,-7,1,5,1,9,1,-9,1,-1,1,5,1,-18,1,-15,1,-13,1,-11,1,-9,1
631,-16,1,-11,1,5,1,13,1,-11,1,-3,1,3,1,-19,1,-17,1,-16,1,-13,1,-10,1
632,-22,1,-19,1,3,1,20,1,-13,1,-8,1,2,1,-21,1,-18,1,-16,1,-14,1,-12,1
633,-25,1,-21,1,4,1,23,1,-15,1,-9,1,0,1,-22,1,-20,1,-17,1,-16,1,-13,1
634,-24,1,-21,1,3,1,22,1,-14,1,-9,1,-1,1,-23,1,-20,1,-18,1,-18,1,-14,1
635,-24,1,-23,1,1,1,23,1,-13,1,-11,1,-1,1,-23,1,-21,1,-19,1,-17,1,-14,1
636,-26,1,-21,1,5,1,23,1,-16,1,-8,1,-2,1,-24,1,-22,1,-19,1,-18,1,-15,1
637,-24,1,-18,1,6,1,21,1,-15,1,-6,1,-1,1,-24,1,-22,1,-20,1,-17,1,-15,1
638,-22,1,-18,1,4,1,20,1,-13,1,-7,1,-1,1,-23,1,-22,1,-19,1,-17,1,-14,1
639,-21,1,-18,1,3,1,19,1,-12,1,-8,1,-1,1,-23,1,-22,1,-20,1,-17,1,-15,1
640,-23,1,-18,1,5,1,20,1,-14,1,-7,1,-1,1,-23,1,-22,1,-20,1,-17,1,-14,1
641,-24,1,-18,1,6,1,21,1,-15,1,-6,1,-1,1,-23,1,-21,1,-19,1,-17,1,-14,1
642,-23,1,-17,1,6,1,20,1,-15,1,-6,1,0,1,-23,1,-21,1,-19,1,-18,1,-15,1
643,-21,1,-17,1,4,1,19,1,-13,1,-7,1,0,1,-23,1,-22,1,-19,1,-17,1,-15,1
644,-20,1,-17,1,3,1,18,1,-12,1,-7,1,-2,1,-25,1,-23,1,-20,1,-18,1,-16,1
645,-20,1,-16,1,4,1,18,1,-12,1,-6,1,-2,1,-24,1,-22,1,-19,1,-17,1,-15,1
646,-20,1,-19,1,1,1,19,1,-11,1,-9,1,-1,1,-24,1,-22,1,-20,1,-16,1,-15,1
647,-21,1,-17,1,4,1,19,1,-13,1,-7,1,-2,1,-23,1,-22,1,-20,1,-15,1,-15,1
648,-19,1,-15,1,4,1,17,1,-12,1,-6,1,-2,1,-24,1,-23,1,-20,1,-15,1,-15,1
649,-19,1,-17,1,2,1,18,1,-11,1,-8,1,-2,1,-23,1,-24,1,-20,1,-15,1,-15,1
650,-19,1,-16,1,3,1,17,1,-11,1,-7,1,-3,1,-24,1,-24,1,-20,1,-15,1,-15,1
651,-18,1,-13,1,5,1,15,1,-12,1,-4,1,-3,1,-25,1,-25,1,-21,1,-15,1,-15,1
652,-18,1,-14,1,4,1,16,1,-11,1,-5,1,-3,1,-27,1,-26,1,-23,1,-17,1,-16,1
653,-18,1,-14,1,4,1,16,1,-11,1,-5,1,-3,1,-27,1,-26,1,-24,1,-17,1,-16,1
654,-18,1,-13,1,5,1,15,1,-12,1,-4,1,-3,1,-27,1,-26,1,-24,1,-18,1,-16,1
655,-18,1,-11,1,7,1,14,1,-13,1,-2,1,-4,1,-28,1,-26,1,-24,1,-18,1,-17,1
656,-16,1,-11,1,5,1,13,1,-11,1,-3,1,-4,1,-27,1,-25,1,-23,1,-17,1,-16,1
657,-17,1,-10,1,7,1,13,1,-12,1,-2,1,-6,1,-28,1,-27,1,-24,1,-20,1,-18,1
658,-16,1,-12,1,4,1,14,1,-10,1,-4,1,-5,1,-27,1,-26,1,-24,1,-20,1,-18,1
659,-16,1,-12,1,4,1,14,1,-10,1,-4,1,-5,1,-28,1,-26,1,-25,1,-20,1,-18,1
660,-17,1,-13,1,4,1,15,1,-11,1,-5,1,-3,1,-26,1,-25,1,-24,1,-19,1,-17,1
661,-18,1,-14,1,4,1,16,1,-11,1,-5,1,-1,1,-25,1,-24,1,-25,1,-20,1,-18,1
662,-17,1,-14,1,3,1,15,1,-10,1,-6,1,-2,1,-26,1,-26,1,-25,1,-20,1,-18,1
663,-17,1,-17,1,0,1,17,1,-9,1,-9,1,-2,1,-26,1,-25,1,-24,1,-20,1,-17,1
664,-18,1,-17,1,1,1,17,1,-10,1,-8,1,-1,1,-26,1,-25,1,-24,1,-20,1,-16,1
665,-19,1,-17,1,2,1,18,1,-11,1,-8,1,-1,1,-26,1,-26,1,-24,1,-20,1,-16,1
666,-19,1,-18,1,1,1,18,1,-10,1,-9,1,-2,1,-28,1,-26,1,-24,1,-20,1,-17,1
667,-19,1,-16,1,3,1,17,1,-11,1,-7,1,-3,1,-28,1,-26,1,-22,1,-19,1,-16,1
668,-16,1,-15,1,1,1,15,1,-9,1,-7,1,-2,1,-27,1,-25,1,-22,1,-19,1,-16,1
669,-16,1,-17,1,-1,1,16,1,-8,1,-9,1,-1,1,-29,1,-26,1,-23,1,-19,1,-17,1
670,-18,1,-18,1,0,1,18,1,-9,1,-9,1,-1,1,-28,1,-27,1,-23,1,-20,1,-18,1
671,-18,1,-19,1,-1,1,18,1,-9,1,-10,1,-1,1,-27,1,-27,1,-22,1,-19,1,-17,1
672,-16,1,-20,1,-4,1,18,1,-6,1,-12,1,-1,1,-27,1,-26,1,-22,1,-18,1,-15,1
673,-15,1,-19,1,-4,1,17,1,-6,1,-12,1,-1,1,-27,1,-26,1,-22,1,-19,1,-15,1
674,-15,1,-19,1,-4,1,17,1,-6,1,-12,1,-2,1,-27,1,-25,1,-22,1,-19,1,-14,1
675,-16,1,-20,1,-4,1,18,1,-6,1,-12,1,-3,1,-30,1,-27,1,-23,1,-20,1,-16,1
676,-15,1,-18,1,-3,1,16,1,-6,1,-11,1,-4,1,-30,1,-27,1,-23,1,-19,1,-15,1
677,-16,1,-18,1,-2,1,17,1,-7,1,-10,1,-4,1,-30,1,-27,1,-23,1,-20,1,-15,1
678,-16,1,-19,1,-3,1,17,1,-7,1,-11,1,-2,1,-30,1,-28,1,-23,1,-19,1,-14,1
679,-16,1,-19,1,-3,1,17,1,-7,1,-11,1,-2,1,-30,1,-27,1,-23,1,-20,1,-15,1
680,-14,1,-18,1,-4,1,16,1,-5,1,-11,1,-3,1,-30,1,-27,1,-23,1,-20,1,-15,1
681,-15,1,-17,1,-2,1,16,1,-7,1,-10,1,-3,1,-30,1,-28,1,-23,1,-20,1,-15,1
682,-15,1,-15,1,0,1,15,1,-8,1,-8,1,-3,1,-31,1,-29,1,-24,1,-21,1,-16,1
683,-15,1,-16,1,-1,1,15,1,-7,1,-9,1,-3,1,-31,1,-29,1,-24,1,-22,1,-16,1
684,-17,1,-18,1,-1,1,17,1,-8,1,-10,1,-3,1,-30,1,-29,1,-24,1,-21,1,-16,1
685,-16,1,-19,1,-3,1,17,1,-7,1,-11,1,-3,1,-30,1,-29,1,-23,1,-21,1,-16,1
686,-15,1,-20,1,-5,1,17,1,-5,1,-13,1,-2,1,-29,1,-28,1,-24,1,-22,1,-17,1
687,-15,1,-21,1,-6,1,18,1,-5,1,-14,1,-2,1,-29,1,-28,1,-23,1,-22,1,-16,1
688,-16,1,-21,1,-5,1,18,1,-6,1,-13,1,-3,1,-30,1,-28,1,-23,1,-22,1,-16,1
689,-15,1,-21,1,-6,1,18,1,-5,1,-14,1,-3,1,-31,1,-28,1,-23,1,-21,1,-16,1
690,-16,1,-22,1,-6,1,19,1,-5,1,-14,1,-3,1,-30,1,-28,1,-23,1,-22,1,-16,1
691,-17,1,-23,1,-6,1,20,1,-6,1,-15,1,-2,1,-31,1,-29,1,-23,1,-22,1,-17,1
692,-17,1,-22,1,-5,1,19,1,-6,1,-14,1,-3,1,-32,1,-30,1,-24,1,-22,1,-17,1
693,-16,1,-22,1,-6,1,19,1,-5,1,-14,1,-4,1,-32,1,-30,1,-24,1,-22,1,-17,1
694,-16,1,-21,1,-5,1,18,1,-6,1,-13,1,-5,1,-33,1,-30,1,-25,1,-24,1,-19,1
695,-18,1,-21,1,-3,1,19,1,-8,1,-12,1,-3,1,-32,1,-29,1,-24,1,-22,1,-17,1
696,-14,1,-19,1,-5,1,16,1,-5,1,-12,1,-3,1,-32,1,-29,1,-23,1,-21,1,-15,1
697,-15,1,-17,1,-2,1,16,1,-7,1,-10,1,-3,1,-33,1,-29,1,-23,1,-21,1,-14,1
698,-14,1,-17,1,-3,1,15,1,-6,1,-10,1,-3,1,-33,1,-29,1,-22,1,-20,1,-13,1
699,-14,1,-19,1,-5,1,16,1,-5,1,-12,1,-4,1,-34,1,-29,1,-22,1,-21,1,-15,1
700,-12,1,-16,1,-4,1,14,1,-4,1,-10,1,-4,1,-35,1,-31,1,-22,1,-20,1,-15,1
701,-11,1,-14,1,-3,1,12,1,-4,1,-9,1,-1,1,-32,1,-29,1,-21,1,-20,1,-15,1
702,-13,1,-14,1,-1,1,13,1,-6,1,-8,1,-2,1,-32,1,-28,1,-22,1,-20,1,-15,1
703,-13,1,-11,1,2,1,12,1,-8,1,-5,1,0,1,-31,1,-26,1,-21,1,-17,1,-14,1
704,-11,1,-10,1,1,1,10,1,-6,1,-5,1,2,1,-31,1,-26,1,-22,1,-18,1,-15,1
705,-10,1,-8,1,2,1,9,1,-6,1,-3,1,2,1,-30,1,-25,1,-20,1,-17,1,-14,1
706,-10,1,-7,1,3,1,8,1,-7,1,-2,1,1,1,-31,1,-25,1,-20,1,-17,1,-13,1
707,-10,1,-5,1,5,1,7,1,-8,1,0,1,1,1,-31,1,-25,1,-20,1,-16,1,-13,1
708,-11,1,-5,1,6,1,8,1,-9,1,0,1,0,1,-31,1,-27,1,-21,1,-16,1,-13,1
709,-10,1,-7,1,3,1,8,1,-7,1,-2,1,1,1,-30,1,-26,1,-20,1,-16,1,-14,1
710,-7,1,-6,1,1,1,6,1,-4,1,-3,1,0,1,-30,1,-26,1,-20,1,-17,1,-14,1
711,-5,1,-5,1,0,1,5,1,-3,1,-3,1,-1,1,-30,1,-25,1,-20,1,-17,1,-14,1
712,-5,1,-7,1,-2,1,6,1,-2,1,-5,1,-2,1,-31,1,-25,1,-21,1,-19,1,-15,1
713,-3,1,-5,1,-2,1,4,1,-1,1,-4,1,0,1,-32,1,-23,1,-19,1,-17,1,-12,1
714,-3,1,-4,1,-1,1,3,1,-1,1,-3,1,-1,1,-31,1,-22,1,-17,1,-16,1,-12,1
715,-1,1,-1,1,0,1,1,1,-1,1,-1,1,-2,1,-31,1,-21,1,-15,1,-14,1,-10,1
716,1,1,0,1,-1,1,0,1,1,1,0,1,-4,1,-29,1,-21,1,-14,1,-13,1,-9,1
717,2,1,-1,1,-3,1,0,1,2,1,-2,1,-4,1,-29,1,-20,1,-14,1,-13,1,-9,1
718,1,1,-3,1,-4,1,1,1,2,1,-3,1,-6,1,-31,1,-21,1,-15,1,-13,1,-10,1
719,3,1,-3,1,-6,1,0,1,4,1,-4,1,-8,1,-31,1,-21,1,-15,1,-13,1,-9,1
720,3,1,-3,1,-6,1,0,1,4,1,-4,1,-10,1,-33,1,-23,1,-17,1,-15,1,-11,1
721,1,1,-3,1,-4,1,1,1,2,1,-3,1,-11,1,-35,1,-25,1,-18,1,-17,1,-12,1
722,1,1,-5,1,-6,1,2,1,3,1,-5,1,-9,1,-33,1,-24,1,-17,1,-17,1,-11,1
723,2,1,-8,1,-10,1,3,1,6,1,-9,1,-8,1,-32,1,-24,1,-17,1,-16,1,-11,1
724,2,1,-9,1,-11,1,3,1,6,1,-10,1,-8,1,-31,1,-23,1,-17,1,-16,1,-11,1
725,2,1,-9,1,-11,1,3,1,6,1,-10,1,-7,1,-31,1,-22,1,-18,1,-17,1,-12,1
726,2,1,-7,1,-9,1,2,1,5,1,-8,1,-7,1,-30,1,-21,1,-17,1,-16,1,-11,1
727,3,1,-6,1,-9,1,1,1,6,1,-7,1,-6,1,-28,1,-20,1,-15,1,-15,1,-9,1
728,2,1,-6,1,-8,1,2,1,5,1,-7,1,-7,1,-29,1,-21,1,-15,1,-15,1,-9,1
729,1,1,-9,1,-10,1,4,1,5,1,-9,1,-6,1,-31,1,-22,1,-17,1,-16,1,-10,1
730,2,1,-11,1,-13,1,4,1,7,1,-12,1,-7,1,-31,1,-23,1,-18,1,-16,1,-11,1
731,1,1,-12,1,-13,1,5,1,7,1,-12,1,-8,1,-32,1,-24,1,-18,1,-16,1,-11,1
732,2,1,-11,1,-13,1,4,1,7,1,-12,1,-8,1,-33,1,-24,1,-19,1,-16,1,-11,1
733,3,1,-11,1,-14,1,4,1,8,1,-12,1,-8,1,-31,1,-23,1,-17,1,-17,1,-11,1
734,1,1,-12,1,-13,1,5,1,7,1,-12,1,-8,1,-30,1,-22,1,-17,1,-16,1,-10,1
735,0,1,-12,1,-12,1,6,1,6,1,-12,1,-7,1,-30,1,-22,1,-16,1,-16,1,-10,1
736,-1,1,-14,1,-13,1,7,1,6,1,-14,1,-6,1,-30,1,-22,1,-16,1,-16,1,-11,1
737,-3,1,-16,1,-13,1,9,1,5,1,-15,1,-6,1,-31,1,-23,1,-17,1,-17,1,-11,1
738,-5,1,-18,1,-13,1,11,1,4,1,-16,1,-6,1,-32,1,-24,1,-19,1,-19,1,-13,1
739,-7,1,-18,1,-11,1,12,1,2,1,-15,1,-5,1,-32,1,-24,1,-19,1,-19,1,-15,1
740,-9,1,-18,1,-9,1,13,1,0,1,-14,1,-5,1,-30,1,-24,1,-20,1,-19,1,-15,1
741,-11,1,-19,1,-8,1,15,1,-2,1,-14,1,-3,1,-30,1,-24,1,-20,1,-20,1,-16,1
742,-13,1,-22,1,-9,1,17,1,-2,1,-16,1,-4,1,-32,1,-27,1,-23,1,-23,1,-19,1
743,-14,1,-24,1,-10,1,19,1,-2,1,-17,1,-3,1,-33,1,-29,1,-23,1,-24,1,-19,1
744,-15,1,-25,1,-10,1,20,1,-3,1,-18,1,-4,1,-35,1,-30,1,-23,1,-25,1,-19,1
745,-15,1,-24,1,-9,1,19,1,-3,1,-17,1,-5,1,-38,1,-31,1,-26,1,-27,1,-21,1
746,-15,1,-24,1,-9,1,19,1,-3,1,-17,1,-5,1,-39,1,-33,1,-28,1,-29,1,-22,1
747,-15,1,-23,1,-8,1,19,1,-4,1,-16,1,-6,1,-39,1,-33,1,-27,1,-27,1,-21,1
748,-16,1,-25,1,-9,1,20,1,-4,1,-17,1,-7,1,-40,1,-33,1,-26,1,-26,1,-21,1
749,-17,1,-26,1,-9,1,21,1,-4,1,-18,1,-5,1,-39,1,-33,1,-26,1,-26,1,-21,1
750,-17,1,-25,1,-8,1,21,1,-5,1,-17,1,-5,1,-37,1,-33,1,-26,1,-25,1,-21,1
751,-14,1,-25,1,-11,1,19,1,-2,1,-18,1,-6,1,-35,1,-33,1,-27,1,-27,1,-22,1
752,-13,1,-25,1,-12,1,19,1,-1,1,-19,1,-7,1,-32,1,-34,1,-28,1,-27,1,-23,1
753,-15,1,-24,1,-9,1,19,1,-3,1,-17,1,-6,1,-30,1,-33,1,-27,1,-27,1,-22,1
754,-16,1,-24,1,-8,1,20,1,-4,1,-16,1,-6,1,-28,1,-33,1,-26,1,-26,1,-21,1
755,-16,1,-26,1,-10,1,21,1,-3,1,-18,1,-6,1,-27,1,-34,1,-27,1,-26,1,-21,1
756,-17,1,-27,1,-10,1,22,1,-4,1,-19,1,-7,1,-28,1,-34,1,-27,1,-26,1,-21,1
757,-18,1,-25,1,-7,1,21,1,-6,1,-16,1,-7,1,-28,1,-35,1,-28,1,-28,1,-22,1
758,-17,1,-25,1,-8,1,21,1,-5,1,-17,1,-7,1,-27,1,-34,1,-28,1,-28,1,-22,1
759,-15,1,-23,1,-8,1,19,1,-4,1,-16,1,-8,1,-26,1,-33,1,-26,1,-27,1,-22,1
760,-15,1,-22,1,-7,1,18,1,-4,1,-15,1,-8,1,-26,1,-33,1,-26,1,-27,1,-22,1
761,-15,1,-24,1,-9,1,19,1,-3,1,-17,1,-8,1,-25,1,-34,1,-27,1,-27,1,-21,1
762,-17,1,-26,1,-9,1,21,1,-4,1,-18,1,-10,1,-26,1,-36,1,-29,1,-29,1,-23,1
763,-17,1,-24,1,-7,1,20,1,-5,1,-16,1,-8,1,-26,1,-36,1,-29,1,-29,1,-23,1
764,-17,1,-23,1,-6,1,20,1,-6,1,-15,1,-7,1,-25,1,-35,1,-28,1,-29,1,-23,1
765,-16,1,-23,1,-7,1,19,1,-5,1,-15,1,-6,1,-23,1,-34,1,-27,1,-27,1,-21,1
766,-17,1,-23,1,-6,1,20,1,-6,1,-15,1,-6,1,-21,1,-33,1,-27,1,-27,1,-21,1
767,-18,1,-23,1,-5,1,20,1,-7,1,-14,1,-5,1,-21,1,-33,1,-27,1,-27,1,-21,1
768,-19,1,-24,1,-5,1,21,1,-7,1,-15,1,-5,1,-23,1,-35,1,-28,1,-29,1,-23,1
769,-19,1,-23,1,-4,1,21,1,-8,1,-14,1,-3,1,-21,1,-34,1,-28,1,-30,1,-23,1
770,-20,1,-21,1,-1,1,20,1,-10,1,-11,1,3,1,-14,1,-29,1,-26,1,-28,1,-23,1
771,-22,1,-21,1,1,1,21,1,-12,1,-10,1,12,1,-4,1,-25,1,-25,1,-29,1,-26,1
772,-21,1,-20,1,1,1,20,1,-11,1,-10,1,18,1,5,1,-19,1,-22,1,-27,1,-25,1
773,-17,1,-17,1,0,1,17,1,-9,1,-9,1,24,1,16,1,-9,1,-14,1,-22,1,-21,1
774,-13,1,-17,1,-4,1,15,1,-5,1,-11,1,29,1,30,1,1,1,-6,1,-16,1,-16,1
775,-6,1,-17,1,-11,1,11,1,2,1,-14,1,36,1,48,1,15,1,4,1,-9,1,-13,1
776,3,1,-14,1,-17,1,5,1,10,1,-15,1,46,1,74,1,37,1,21,1,2,1,-3,1
777,14,1,-7,1,-21,1,-3,1,17,1,-14,1,58,1,102,1,64,1,43,1,18,1,11,1
778,27,1,3,1,-24,1,-15,1,26,1,-10,1,69,1,133,1,99,1,72,1,40,1,29,1
779,39,1,12,1,-27,1,-25,1,33,1,-7,1,74,1,159,1,130,1,99,1,62,1,45,1
780,58,1,27,1,-31,1,-42,1,45,1,-2,1,62,1,172,1,159,1,129,1,86,1,65,1
781,79,1,43,1,-36,1,-61,1,58,1,4,1,41,1,174,1,186,1,158,1,111,1,87,1
782,93,1,62,1,-31,1,-77,1,62,1,16,1,12,1,164,1,203,1,182,1,133,1,108,1
783,108,1,84,1,-24,1,-96,1,66,1,30,1,-31,1,134,1,207,1,198,1,154,1,130,1
784,122,1,107,1,-15,1,-114,1,69,1,46,1,-79,1,90,1,199,1,207,1,170,1,149,1
785,126,1,114,1,-12,1,-120,1,69,1,51,1,-112,1,55,1,190,1,209,1,174,1,157,1
786,119,1,105,1,-14,1,-112,1,67,1,46,1,-128,1,27,1,176,1,199,1,166,1,151,1
787,102,1,79,1,-23,1,-90,1,63,1,28,1,-129,1,4,1,145,1,166,1,135,1,125,1
788,80,1,51,1,-29,1,-65,1,55,1,11,1,-130,1,-30,1,94,1,115,1,93,1,92,1
789,54,1,35,1,-19,1,-44,1,37,1,8,1,-136,1,-80,1,29,1,57,1,49,1,59,1
790,25,1,16,1,-9,1,-20,1,17,1,4,1,-137,1,-132,1,-39,1,-2,1,5,1,23,1
791,1,1,-4,1,-5,1,1,1,3,1,-4,1,-143,1,-184,1,-105,1,-56,1,-34,1,-9,1
792,-20,1,-16,1,4,1,18,1,-12,1,-6,1,-151,1,-231,1,-160,1,-99,1,-63,1,-32,1
793,-35,1,-27,1,8,1,31,1,-22,1,-10,1,-161,1,-257,1,-195,1,-128,1,-84,1,-51,1
794,-48,1,-37,1,11,1,42,1,-30,1,-13,1,-168,1,-267,1,-212,1,-143,1,-97,1,-62,1
795,-53,1,-42,1,11,1,47,1,-32,1,-16,1,-169,1,-261,1,-214,1,-147,1,-102,1,-68,1
796,-56,1,-42,1,14,1,49,1,-35,1,-14,1,-166,1,-248,1,-205,1,-144,1,-102,1,-70,1
797,-61,1,-37,1,24,1,49,1,-43,1,-7,1,-159,1,-235,1,-195,1,-138,1,-98,1,-69,1
798,-63,1,-39,1,24,1,51,1,-44,1,-8,1,-153,1,-220,1,-186,1,-134,1,-98,1,-69,1
799,-63,1,-40,1,23,1,51,1,-43,1,-9,1,-144,1,-203,1,-178,1,-131,1,-100,1,-71,1
800,-64,1,-39,1,25,1,51,1,-45,1,-7,1,-132,1,-183,1,-164,1,-123,1,-96,1,-71,1
801,-57,1,-30,1,27,1,43,1,-42,1,-2,1,-121,1,-163,1,-148,1,-111,1,-87,1,-65,1
802,-49,1,-23,1,26,1,36,1,-38,1,1,1,-105,1,-139,1,-127,1,-95,1,-75,1,-54,1
803,-44,1,-24,1,20,1,34,1,-32,1,-2,1,-85,1,-114,1,-107,1,-80,1,-65,1,-47,1
804,-35,1,-16,1,19,1,25,1,-27,1,1,1,-66,1,-89,1,-87,1,-65,1,-54,1,-39,1
805,-28,1,-9,1,19,1,18,1,-24,1,5,1,-49,1,-66,1,-68,1,-50,1,-44,1,-31,1
806,-22,1,-8,1,14,1,15,1,-18,1,3,1,-36,1,-49,1,-54,1,-40,1,-35,1,-25,1
807,-20,1,-6,1,14,1,13,1,-17,1,4,1,-26,1,-37,1,-45,1,-33,1,-31,1,-21,1
808,-17,1,-7,1,10,1,12,1,-14,1,1,1,-19,1,-28,1,-38,1,-28,1,-28,1,-21,1
809,-14,1,-9,1,5,1,11,1,-10,1,-2,1,-12,1,-19,1,-32,1,-25,1,-25,1,-18,1
810,-10,1,-11,1,-1,1,10,1,-5,1,-6,1,-6,1,-11,1,-27,1,-22,1,-24,1,-17,1
811,-10,1,-11,1,-1,1,10,1,-5,1,-6,1,-5,1,-7,1,-25,1,-22,1,-26,1,-19,1
812,-9,1,-13,1,-4,1,11,1,-3,1,-9,1,-4,1,-6,1,-24,1,-20,1,-24,1,-19,1
813,-9,1,-15,1,-6,1,12,1,-2,1,-11,1,-2,1,-4,1,-22,1,-18,1,-23,1,-18,1
814,-8,1,-14,1,-6,1,11,1,-1,1,-10,1,-2,1,-1,1,-21,1,-18,1,-23,1,-18,1
815,-7,1,-16,1,-9,1,11,1,1,1,-13,1,-2,1,0,1,-21,1,-18,1,-24,1,-19,1
816,-6,1,-16,1,-10,1,11,1,2,1,-13,1,-1,1,1,1,-20,1,-17,1,-23,1,-17,1
817,-6,1,-17,1,-11,1,11,1,2,1,-14,1,1,1,3,1,-17,1,-15,1,-22,1,-17,1
818,-5,1,-15,1,-10,1,10,1,2,1,-13,1,1,1,3,1,-17,1,-15,1,-22,1,-16,1
819,-5,1,-14,1,-9,1,9,1,2,1,-12,1,0,1,3,1,-16,1,-15,1,-22,1,-16,1
820,-6,1,-14,1,-8,1,10,1,1,1,-11,1,0,1,4,1,-15,1,-14,1,-23,1,-17,1
821,-6,1,-12,1,-6,1,9,1,0,1,-9,1,1,1,5,1,-16,1,-14,1,-21,1,-16,1
822,-6,1,-13,1,-7,1,9,1,0,1,-10,1,1,1,6,1,-15,1,-14,1,-21,1,-16,1
823,-4,1,-12,1,-8,1,8,1,2,1,-10,1,1,1,6,1,-14,1,-13,1,-21,1,-15,1
824,-5,1,-11,1,-6,1,8,1,0,1,-9,1,2,1,7,1,-13,1,-11,1,-20,1,-15,1
825,-5,1,-11,1,-6,1,8,1,0,1,-9,1,2,1,8,1,-12,1,-11,1,-20,1,-15,1
826,-4,1,-12,1,-8,1,8,1,2,1,-10,1,4,1,8,1,-11,1,-11,1,-20,1,-15,1
827,-5,1,-13,1,-8,1,9,1,1,1,-11,1,4,1,9,1,-11,1,-11,1,-19,1,-15,1
828,-3,1,-15,1,-12,1,9,1,4,1,-14,1,4,1,12,1,-8,1,-7,1,-17,1,-13,1
829,-3,1,-14,1,-11,1,8,1,4,1,-13,1,5,1,12,1,-9,1,-8,1,-17,1,-14,1
830,-2,1,-12,1,-10,1,7,1,4,1,-11,1,5,1,12,1,-9,1,-8,1,-17,1,-13,1
831,0,1,-8,1,-8,1,4,1,4,1,-8,1,4,1,11,1,-8,1,-8,1,-17,1,-12,1
832,0,1,-9,1,-9,1,4,1,4,1,-9,1,5,1,12,1,-6,1,-8,1,-17,1,-11,1
833,0,1,-9,1,-9,1,4,1,4,1,-9,1,5,1,13,1,-5,1,-6,1,-15,1,-11,1
834,0,1,-10,1,-10,1,5,1,5,1,-10,1,6,1,14,1,-5,1,-6,1,-16,1,-12,1
835,0,1,-10,1,-10,1,5,1,5,1,-10,1,7,1,14,1,-4,1,-5,1,-16,1,-11,1
836,0,1,-9,1,-9,1,4,1,4,1,-9,1,7,1,14,1,-3,1,-4,1,-15,1,-11,1
837,0,1,-8,1,-8,1,4,1,4,1,-8,1,7,1,16,1,-3,1,-4,1,-15,1,-11,1
838,0,1,-7,1,-7,1,3,1,3,1,-7,1,7,1,15,1,-3,1,-4,1,-15,1,-12,1
839,1,1,-8,1,-9,1,3,1,5,1,-8,1,8,1,16,1,-3,1,-3,1,-15,1,-11,1
840,2,1,-10,1,-12,1,4,1,7,1,-11,1,8,1,17,1,-1,1,-3,1,-14,1,-11,1
841,1,1,-8,1,-9,1,3,1,5,1,-8,1,7,1,17,1,0,1,-2,1,-14,1,-10,1
842,3,1,-9,1,-12,1,3,1,7,1,-10,1,7,1,21,1,1,1,-1,1,-14,1,-9,1
843,1,1,-10,1,-11,1,4,1,6,1,-10,1,8,1,22,1,2,1,0,1,-12,1,-7,1
844,1,1,-11,1,-12,1,5,1,6,1,-11,1,9,1,23,1,3,1,0,1,-12,1,-8,1
845,2,1,-8,1,-10,1,3,1,6,1,-9,1,9,1,25,1,3,1,1,1,-11,1,-7,1
846,1,1,-5,1,-6,1,2,1,3,1,-5,1,9,1,25,1,4,1,1,1,-11,1,-7,1
847,3,1,-6,1,-9,1,1,1,6,1,-7,1,10,1,26,1,7,1,3,1,-9,1,-6,1
848,4,1,-6,1,-10,1,1,1,7,1,-8,1,11,1,28,1,7,1,4,1,-9,1,-6,1
849,7,1,-7,1,-14,1,0,1,10,1,-10,1,10,1,29,1,8,1,4,1,-9,1,-5,1
850,8,1,-5,1,-13,1,-1,1,10,1,-9,1,11,1,31,1,10,1,6,1,-8,1,-5,1
851,8,1,-5,1,-13,1,-1,1,10,1,-9,1,12,1,31,1,10,1,8,1,-8,1,-5,1
852,7,1,-7,1,-14,1,0,1,10,1,-10,1,12,1,33,1,11,1,8,1,-8,1,-5,1
853,7,1,-5,1,-12,1,-1,1,9,1,-8,1,12,1,34,1,12,1,9,1,-7,1,-5,1
854,8,1,-5,1,-13,1,-1,1,10,1,-9,1,12,1,33,1,14,1,10,1,-5,1,-4,1
855,9,1,-6,1,-15,1,-1,1,12,1,-10,1,13,1,34,1,15,1,10,1,-4,1,-3,1
856,8,1,-5,1,-13,1,-1,1,10,1,-9,1,13,1,36,1,16,1,11,1,-4,1,-3,1
857,9,1,-3,1,-12,1,-3,1,10,1,-7,1,13,1,37,1,16,1,11,1,-4,1,-3,1
858,10,1,-3,1,-13,1,-3,1,11,1,-8,1,13,1,37,1,17,1,12,1,-3,1,-3,1
859,12,1,-1,1,-13,1,-5,1,12,1,-7,1,12,1,37,1,17,1,12,1,-3,1,-2,1
860,12,1,-2,1,-14,1,-5,1,13,1,-8,1,13,1,40,1,19,1,14,1,-1,1,-1,1
861,11,1,-3,1,-14,1,-4,1,12,1,-8,1,15,1,41,1,21,1,14,1,-1,1,-1,1
862,14,1,-1,1,-15,1,-6,1,14,1,-8,1,15,1,43,1,23,1,16,1,0,1,0,1
863,14,1,-1,1,-15,1,-6,1,14,1,-8,1,17,1,46,1,25,1,18,1,1,1,2,1
864,11,1,-2,1,-13,1,-4,1,12,1,-7,1,17,1,46,1,26,1,17,1,2,1,2,1
865,12,1,0,1,-12,1,-6,1,12,1,-6,1,17,1,48,1,27,1,19,1,3,1,4,1
866,17,1,3,1,-14,1,-10,1,16,1,-5,1,16,1,50,1,28,1,19,1,4,1,4,1
867,19,1,3,1,-16,1,-11,1,18,1,-6,1,16,1,51,1,30,1,22,1,5,1,6,1
868,19,1,5,1,-14,1,-12,1,17,1,-4,1,17,1,53,1,31,1,23,1,6,1,8,1
869,18,1,6,1,-12,1,-12,1,15,1,-3,1,17,1,54,1,31,1,24,1,6,1,7,1
870,19,1,5,1,-14,1,-12,1,17,1,-4,1,17,1,56,1,33,1,25,1,7,1,8,1
871,20,1,7,1,-13,1,-13,1,17,1,-3,1,18,1,57,1,35,1,26,1,9,1,9,1
872,18,1,9,1,-9,1,-13,1,14,1,0,1,19,1,59,1,37,1,28,1,10,1,10,1
873,20,1,11,1,-9,1,-15,1,15,1,1,1,19,1,60,1,38,1,29,1,10,1,10,1
874,22,1,12,1,-10,1,-17,1,16,1,1,1,19,1,62,1,40,1,30,1,10,1,10,1
875,24,1,12,1,-12,1,-18,1,18,1,0,1,19,1,63,1,42,1,32,1,12,1,12,1
876,26,1,12,1,-14,1,-19,1,20,1,-1,1,19,1,65,1,43,1,34,1,13,1,12,1
877,27,1,12,1,-15,1,-19,1,21,1,-1,1,20,1,68,1,46,1,36,1,15,1,15,1
878,26,1,12,1,-14,1,-19,1,20,1,-1,1,20,1,69,1,48,1,37,1,15,1,15,1
879,26,1,15,1,-11,1,-20,1,19,1,2,1,21,1,71,1,49,1,38,1,15,1,16,1
880,27,1,17,1,-10,1,-22,1,19,1,4,1,22,1,73,1,52,1,39,1,17,1,17,1
881,28,1,16,1,-12,1,-22,1,20,1,2,1,23,1,75,1,53,1,39,1,19,1,18,1
882,31,1,18,1,-13,1,-24,1,22,1,3,1,23,1,77,1,54,1,41,1,20,1,19,1
883,32,1,19,1,-13,1,-25,1,23,1,3,1,22,1,77,1,55,1,41,1,20,1,19,1
884,31,1,21,1,-10,1,-26,1,21,1,6,1,23,1,79,1,57,1,43,1,22,1,21,1
885,30,1,20,1,-10,1,-25,1,20,1,5,1,23,1,80,1,58,1,45,1,23,1,22,1
886,32,1,23,1,-9,1,-27,1,21,1,7,1,21,1,82,1,60,1,46,1,25,1,23,1
887,36,1,25,1,-11,1,-30,1,24,1,7,1,20,1,82,1,60,1,46,1,25,1,24,1
888,36,1,26,1,-10,1,-31,1,23,1,8,1,21,1,84,1,61,1,48,1,27,1,26,1
889,38,1,28,1,-10,1,-33,1,24,1,9,1,20,1,83,1,60,1,46,1,26,1,25,1
890,39,1,30,1,-9,1,-34,1,24,1,11,1,20,1,83,1,61,1,49,1,27,1,27,1
891,39,1,29,1,-10,1,-34,1,25,1,10,1,21,1,83,1,63,1,50,1,30,1,28,1
892,39,1,30,1,-9,1,-34,1,24,1,11,1,21,1,84,1,64,1,50,1,30,1,28,1
893,39,1,30,1,-9,1,-34,1,24,1,11,1,21,1,84,1,64,1,51,1,30,1,28,1
894,38,1,31,1,-7,1,-34,1,23,1,12,1,20,1,84,1,63,1,50,1,30,1,28,1
895,37,1,32,1,-5,1,-34,1,21,1,14,1,20,1,83,1,63,1,50,1,30,1,28,1
896,39,1,30,1,-9,1,-34,1,24,1,11,1,21,1,85,1,65,1,53,1,32,1,31,1
897,40,1,30,1,-10,1,-35,1,25,1,10,1,20,1,84,1,63,1,51,1,31,1,30,1
898,44,1,32,1,-12,1,-38,1,28,1,10,1,18,1,81,1,62,1,49,1,29,1,29,1
899,41,1,31,1,-10,1,-36,1,26,1,11,1,20,1,81,1,62,1,50,1,30,1,30,1
900,41,1,32,1,-9,1,-36,1,25,1,12,1,19,1,80,1,61,1,50,1,30,1,30,1
901,41,1,32,1,-9,1,-36,1,25,1,12,1,18,1,80,1,62,1,51,1,31,1,30,1
902,41,1,32,1,-9,1,-36,1,25,1,12,1,19,1,81,1,62,1,52,1,34,1,32,1
903,38,1,31,1,-7,1,-34,1,23,1,12,1,20,1,81,1,62,1,52,1,34,1,32,1
904,37,1,30,1,-7,1,-33,1,22,1,12,1,18,1,80,1,62,1,52,1,33,1,32,1
905,37,1,32,1,-5,1,-34,1,21,1,14,1,17,1,77,1,60,1,50,1,32,1,32,1
906,36,1,31,1,-5,1,-33,1,21,1,13,1,16,1,78,1,60,1,50,1,32,1,31,1
907,37,1,32,1,-5,1,-34,1,21,1,14,1,16,1,76,1,59,1,50,1,33,1,32,1
908,36,1,31,1,-5,1,-33,1,21,1,13,1,16,1,75,1,59,1,50,1,33,1,33,1
909,38,1,31,1,-7,1,-34,1,23,1,12,1,16,1,74,1,59,1,51,1,33,1,33,1
910,36,1,30,1,-6,1,-33,1,21,1,12,1,17,1,74,1,58,1,50,1,32,1,32,1
911,35,1,29,1,-6,1,-32,1,21,1,12,1,17,1,72,1,57,1,50,1,32,1,32,1
912,36,1,29,1,-7,1,-32,1,22,1,11,1,17,1,71,1,57,1,50,1,33,1,33,1
913,33,1,29,1,-4,1,-31,1,19,1,13,1,16,1,71,1,55,1,48,1,31,1,32,1
914,32,1,28,1,-4,1,-30,1,18,1,12,1,16,1,69,1,54,1,46,1,29,1,31,1
915,30,1,26,1,-4,1,-28,1,17,1,11,1,16,1,67,1,53,1,45,1,28,1,30,1
916,30,1,28,1,-2,1,-29,1,16,1,13,1,16,1,64,1,50,1,44,1,26,1,28,1
917,28,1,26,1,-2,1,-27,1,15,1,12,1,16,1,61,1,48,1,42,1,25,1,27,1
918,26,1,24,1,-2,1,-25,1,14,1,11,1,17,1,60,1,46,1,39,1,24,1,27,1
919,25,1,24,1,-1,1,-24,1,13,1,12,1,16,1,58,1,46,1,38,1,23,1,26,1
920,23,1,24,1,1,1,-23,1,11,1,13,1,17,1,56,1,43,1,35,1,21,1,24,1
921,22,1,24,1,2,1,-23,1,10,1,13,1,17,1,53,1,40,1,32,1,19,1,22,1
922,23,1,23,1,0,1,-23,1,12,1,12,1,16,1,49,1,37,1,30,1,17,1,20,1
923,20,1,20,1,0,1,-20,1,10,1,10,1,16,1,47,1,34,1,27,1,14,1,18,1
924,17,1,18,1,1,1,-17,1,8,1,10,1,15,1,45,1,31,1,23,1,12,1,15,1
925,16,1,17,1,1,1,-16,1,8,1,9,1,14,1,42,1,29,1,23,1,10,1,13,1
926,12,1,15,1,3,1,-13,1,5,1,9,1,14,1,40,1,27,1,21,1,9,1,13,1
927,11,1,13,1,2,1,-12,1,5,1,8,1,14,1,38,1,25,1,20,1,8,1,12,1
928,9,1,12,1,3,1,-10,1,3,1,8,1,12,1,34,1,21,1,16,1,4,1,8,1
929,7,1,10,1,3,1,-8,1,2,1,7,1,12,1,32,1,19,1,14,1,2,1,8,1
930,8,1,11,1,3,1,-9,1,3,1,7,1,12,1,30,1,16,1,12,1,0,1,7,1
931,6,1,10,1,4,1,-8,1,1,1,7,1,12,1,27,1,13,1,8,1,-1,1,4,1
932,6,1,8,1,2,1,-7,1,2,1,5,1,9,1,24,1,9,1,5,1,-3,1,3,1
933,3,1,7,1,4,1,-5,1,0,1,6,1,8,1,20,1,7,1,4,1,-4,1,1,1
934,2,1,4,1,2,1,-3,1,0,1,3,1,9,1,18,1,4,1,1,1,-7,1,0,1
935,2,1,2,1,0,1,-2,1,1,1,1,1,7,1,17,1,3,1,-1,1,-9,1,-2,1
936,0,1,3,1,3,1,-1,1,-1,1,3,1,7,1,14,1,1,1,-3,1,-11,1,-3,1
937,-2,1,2,1,4,1,0,1,-3,1,3,1,6,1,13,1,0,1,-4,1,-12,1,-4,1
938,0,1,1,1,1,1,0,1,0,1,1,1,5,1,9,1,-3,1,-6,1,-15,1,-7,1
939,0,1,1,1,1,1,0,1,0,1,1,1,5,1,9,1,-4,1,-6,1,-15,1,-8,1
940,-2,1,0,1,2,1,1,1,-2,1,1,1,6,1,9,1,-4,1,-6,1,-15,1,-8,1
941,-3,1,0,1,3,1,1,1,-3,1,1,1,6,1,7,1,-6,1,-8,1,-16,1,-9,1
942,-2,1,0,1,2,1,1,1,-2,1,1,1,4,1,6,1,-7,1,-9,1,-17,1,-9,1
943,-4,1,-1,1,3,1,2,1,-4,1,1,1,4,1,6,1,-7,1,-9,1,-17,1,-9,1
944,-5,1,-3,1,2,1,4,1,-4,1,-1,1,3,1,4,1,-9,1,-11,1,-19,1,-11,1
945,-6,1,0,1,6,1,3,1,-6,1,3,1,2,1,3,1,-10,1,-12,1,-20,1,-12,1
946,-4,1,2,1,6,1,1,1,-5,1,4,1,1,1,3,1,-11,1,-13,1,-20,1,-12,1
947,-4,1,0,1,4,1,2,1,-4,1,2,1,2,1,3,1,-12,1,-12,1,-19,1,-11,1
948,-6,1,0,1,6,1,3,1,-6,1,3,1,2,1,3,1,-11,1,-13,1,-19,1,-12,1
949,-5,1,-1,1,4,1,3,1,-5,1,1,1,2,1,2,1,-12,1,-13,1,-20,1,-12,1
950,-5,1,-3,1,2,1,4,1,-4,1,-1,1,3,1,2,1,-12,1,-13,1,-20,1,-11,1
951,-4,1,-1,1,3,1,2,1,-4,1,1,1,2,1,1,1,-13,1,-14,1,-21,1,-13,1
952,-7,1,-3,1,4,1,5,1,-6,1,0,1,2,1,1,1,-13,1,-13,1,-20,1,-12,1
953,-6,1,-5,1,1,1,5,1,-4,1,-2,1,3,1,1,1,-13,1,-13,1,-20,1,-12,1
954,-8,1,-4,1,4,1,6,1,-6,1,0,1,3,1,1,1,-14,1,-14,1,-20,1,-11,1
955,-8,1,-5,1,3,1,6,1,-6,1,-1,1,3,1,1,1,-13,1,-14,1,-20,1,-11,1
956,-7,1,-4,1,3,1,5,1,-5,1,-1,1,3,1,1,1,-13,1,-14,1,-20,1,-13,1
957,-6,1,-3,1,3,1,4,1,-5,1,0,1,2,1,2,1,-13,1,-15,1,-21,1,-13,1
958,-6,1,-4,1,2,1,5,1,-4,1,-1,1,2,1,2,1,-13,1,-14,1,-21,1,-12,1
959,-6,1,-5,1,1,1,5,1,-4,1,-2,1,2,1,2,1,-13,1,-14,1,-22,1,-14,1
960,-6,1,-3,1,3,1,4,1,-5,1,0,1,2,1,0,1,-13,1,-15,1,-23,1,-14,1
961,-8,1,-3,1,5,1,5,1,-7,1,1,1,2,1,0,1,-14,1,-15,1,-23,1,-15,1
962,-7,1,-4,1,3,1,5,1,-5,1,-1,1,1,1,1,1,-14,1,-15,1,-24,1,-16,1
963,-7,1,-4,1,3,1,5,1,-5,1,-1,1,0,1,0,1,-13,1,-15,1,-25,1,-15,1
964,-6,1,-6,1,0,1,6,1,-3,1,-3,1,0,1,0,1,-13,1,-16,1,-25,1,-17,1
965,-5,1,-5,1,0,1,5,1,-3,1,-3,1,1,1,2,1,-12,1,-16,1,-27,1,-20,1
966,-5,1,-4,1,1,1,4,1,-3,1,-2,1,2,1,2,1,-12,1,-15,1,-28,1,-20,1
967,-5,1,-4,1,1,1,4,1,-3,1,-2,1,1,1,0,1,-13,1,-18,1,-26,1,-17,1
968,-7,1,-5,1,2,1,6,1,-5,1,-2,1,1,1,0,1,-14,1,-16,1,-27,1,-18,1
969,-7,1,-3,1,4,1,5,1,-6,1,0,1,0,1,-1,1,-15,1,-17,1,-25,1,-15,1
970,-6,1,-3,1,3,1,4,1,-5,1,0,1,0,1,-1,1,-14,1,-17,1,-25,1,-15,1
971,-7,1,-3,1,4,1,5,1,-6,1,0,1,0,1,-3,1,-16,1,-17,1,-24,1,-15,1
972,-7,1,-3,1,4,1,5,1,-6,1,0,1,0,1,-3,1,-16,1,-17,1,-24,1,-14,1
973,-4,1,-3,1,1,1,3,1,-3,1,-1,1,0,1,-3,1,-15,1,-17,1,-24,1,-14,1
974,-4,1,-1,1,3,1,2,1,-4,1,1,1,-1,1,-4,1,-16,1,-18,1,-24,1,-15,1
975,-4,1,0,1,4,1,2,1,-4,1,2,1,-1,1,-3,1,-16,1,-18,1,-24,1,-15,1
976,-6,1,-1,1,5,1,3,1,-6,1,2,1,-2,1,-3,1,-15,1,-17,1,-24,1,-14,1
977,-8,1,-5,1,3,1,6,1,-6,1,-1,1,0,1,-3,1,-14,1,-16,1,-23,1,-12,1
978,-8,1,-6,1,2,1,7,1,-5,1,-2,1,1,1,-4,1,-15,1,-17,1,-24,1,-14,1
979,-8,1,-7,1,1,1,7,1,-5,1,-3,1,3,1,-4,1,-14,1,-17,1,-23,1,-15,1
980,-8,1,-8,1,0,1,8,1,-4,1,-4,1,2,1,-4,1,-14,1,-16,1,-23,1,-15,1
981,-6,1,-5,1,1,1,5,1,-4,1,-2,1,2,1,-4,1,-14,1,-15,1,-23,1,-14,1
982,-6,1,-6,1,0,1,6,1,-3,1,-3,1,3,1,-2,1,-13,1,-14,1,-22,1,-14,1
983,-6,1,-7,1,-1,1,6,1,-3,1,-4,1,3,1,-3,1,-13,1,-14,1,-22,1,-13,1
984,-6,1,-8,1,-2,1,7,1,-2,1,-5,1,1,1,-3,1,-13,1,-15,1,-23,1,-13,1
985,-7,1,-7,1,0,1,7,1,-4,1,-4,1,1,1,-4,1,-13,1,-14,1,-23,1,-14,1
986,-8,1,-6,1,2,1,7,1,-5,1,-2,1,2,1,-4,1,-13,1,-14,1,-22,1,-14,1
987,-9,1,-7,1,2,1,8,1,-6,1,-3,1,2,1,-5,1,-13,1,-14,1,-22,1,-13,1
988,-9,1,-8,1,1,1,8,1,-5,1,-4,1,1,1,-6,1,-15,1,-16,1,-23,1,-14,1
989,-7,1,-8,1,-1,1,7,1,-3,1,-5,1,0,1,-8,1,-17,1,-17,1,-25,1,-15,1
990,-6,1,-7,1,-1,1,6,1,-3,1,-4,1,0,1,-7,1,-16,1,-16,1,-24,1,-15,1
991,-6,1,-7,1,-1,1,6,1,-3,1,-4,1,0,1,-8,1,-16,1,-16,1,-24,1,-15,1
992,-7,1,-8,1,-1,1,7,1,-3,1,-5,1,0,1,-8,1,-17,1,-18,1,-26,1,-16,1
993,-9,1,-7,1,2,1,8,1,-6,1,-3,1,0,1,-7,1,-17,1,-19,1,-26,1,-16,1
994,-10,1,-9,1,1,1,9,1,-6,1,-4,1,1,1,-7,1,-17,1,-18,1,-23,1,-15,1
995,-8,1,-9,1,-1,1,8,1,-4,1,-5,1,1,1,-7,1,-17,1,-17,1,-23,1,-15,1
996,-6,1,-6,1,0,1,6,1,-3,1,-3,1,-1,1,-9,1,-18,1,-19,1,-25,1,-17,1
997,-6,1,-5,1,1,1,5,1,-4,1,-2,1,-1,1,-10,1,-17,1,-20,1,-25,1,-17,1
998,-6,1,-5,1,1,1,5,1,-4,1,-2,1,-2,1,-9,1,-17,1,-20,1,-25,1,-16,1
999,-6,1,-6,1,0,1,6,1,-3,1,-3,1,-1,1,-10,1,-18,1,-20,1,-25,1,-17,1
1000,-6,1,-8,1,-2,1,7,1,-2,1,-5,1,-1,1,-9,1,-17,1,-18,1,-24,1,-15,1
1001,-6,1,-7,1,-1,1,6,1,-3,1,-4,1,-2,1,-10,1,-17,1,-18,1,-24,1,-15,1
1002,-6,1,-8,1,-2,1,7,1,-2,1,-5,1,-1,1,-11,1,-18,1,-18,1,-23,1,-15,1
1003,-7,1,-10,1,-3,1,8,1,-2,1,-7,1,0,1,-11,1,-17,1,-17,1,-22,1,-14,1
1004,-7,1,-9,1,-2,1,8,1,-3,1,-6,1,-1,1,-13,1,-18,1,-19,1,-24,1,-16,1
1005,-7,1,-10,1,-3,1,8,1,-2,1,-7,1,0,1,-13,1,-18,1,-19,1,-24,1,-16,1
1006,-8,1,-11,1,-3,1,9,1,-3,1,-7,1,-2,1,-12,1,-20,1,-21,1,-25,1,-17,1
1007,-7,1,-11,1,-4,1,9,1,-2,1,-8,1,-1,1,-12,1,-19,1,-20,1,-25,1,-17,1
1008,-7,1,-13,1,-6,1,10,1,-1,1,-10,1,-1,1,-12,1,-20,1,-21,1,-25,1,-16,1
1009,-7,1,-12,1,-5,1,9,1,-1,1,-9,1,-1,1,-13,1,-20,1,-22,1,-25,1,-16,1
1010,-8,1,-8,1,0,1,8,1,-4,1,-4,1,-1,1,-15,1,-21,1,-22,1,-26,1,-17,1
1011,-7,1,-9,1,-2,1,8,1,-3,1,-6,1,-2,1,-15,1,-21,1,-24,1,-25,1,-17,1
1012,-8,1,-12,1,-4,1,10,1,-2,1,-8,1,-2,1,-17,1,-21,1,-23,1,-25,1,-17,1
1013,-9,1,-12,1,-3,1,10,1,-3,1,-8,1,-2,1,-16,1,-21,1,-23,1,-25,1,-17,1
1014,-9,1,-10,1,-1,1,9,1,-4,1,-6,1,-1,1,-15,1,-21,1,-22,1,-24,1,-17,1
1015,-10,1,-13,1,-3,1,11,1,-4,1,-8,1,-1,1,-16,1,-21,1,-23,1,-23,1,-16,1
1016,-9,1,-15,1,-6,1,12,1,-2,1,-11,1,-2,1,-17,1,-21,1,-23,1,-24,1,-17,1
1017,-7,1,-13,1,-6,1,10,1,-1,1,-10,1,-4,1,-18,1,-21,1,-24,1,-25,1,-18,1
1018,-9,1,-13,1,-4,1,11,1,-3,1,-9,1,-2,1,-19,1,-21,1,-25,1,-24,1,-18,1
1019,-9,1,-15,1,-6,1,12,1,-2,1,-11,1,-2,1,-19,1,-22,1,-26,1,-24,1,-16,1
1020,-8,1,-15,1,-7,1,11,1,-1,1,-11,1,-3,1,-20,1,-23,1,-26,1,-25,1,-17,1
1021,-10,1,-14,1,-4,1,12,1,-3,1,-9,1,-4,1,-21,1,-24,1,-27,1,-26,1,-17,1
1022,-10,1,-14,1,-4,1,12,1,-3,1,-9,1,-3,1,-20,1,-24,1,-26,1,-26,1,-17,1
1023,-10,1,-15,1,-5,1,12,1,-3,1,-10,1,-3,1,-19,1,-23,1,-26,1,-26,1,-17,1
1024,-10,1,-14,1,-4,1,12,1,-3,1,-9,1,-4,1,-20,1,-23,1,-27,1,-26,1,-18,1
1025,-10,1,-14,1,-4,1,12,1,-3,1,-9,1,-5,1,-21,1,-23,1,-27,1,-26,1,-18,1
1026,-11,1,-15,1,-4,1,13,1,-4,1,-10,1,-3,1,-20,1,-22,1,-25,1,-24,1,-17,1
1027,-11,1,-16,1,-5,1,13,1,-3,1,-11,1,-3,1,-20,1,-23,1,-26,1,-24,1,-17,1
1028,-12,1,-16,1,-4,1,14,1,-4,1,-10,1,-3,1,-21,1,-24,1,-27,1,-26,1,-19,1
1029,-10,1,-15,1,-5,1,12,1,-3,1,-10,1,-3,1,-21,1,-25,1,-27,1,-26,1,-18,1
1030,-7,1,-16,1,-9,1,11,1,1,1,-13,1,-4,1,-22,1,-25,1,-27,1,-26,1,-18,1
1031,-10,1,-15,1,-5,1,12,1,-3,1,-10,1,-4,1,-21,1,-24,1,-27,1,-26,1,-17,1
1032,-10,1,-15,1,-5,1,12,1,-3,1,-10,1,-4,1,-21,1,-25,1,-28,1,-25,1,-18,1
1033,-10,1,-15,1,-5,1,12,1,-3,1,-10,1,-4,1,-21,1,-23,1,-27,1,-24,1,-17,1
1034,-11,1,-14,1,-3,1,12,1,-4,1,-9,1,-4,1,-22,1,-24,1,-27,1,-24,1,-16,1
1035,-10,1,-14,1,-4,1,12,1,-3,1,-9,1,-5,1,-22,1,-26,1,-30,1,-26,1,-19,1
1036,-11,1,-16,1,-5,1,13,1,-3,1,-11,1,-6,1,-24,1,-25,1,-30,1,-26,1,-18,1
1037,-11,1,-15,1,-4,1,13,1,-4,1,-10,1,-5,1,-22,1,-24,1,-29,1,-26,1,-17,1
1038,-9,1,-14,1,-5,1,11,1,-2,1,-10,1,-5,1,-22,1,-25,1,-30,1,-27,1,-19,1
1039,-10,1,-14,1,-4,1,12,1,-3,1,-9,1,-4,1,-23,1,-25,1,-28,1,-26,1,-19,1
1040,-9,1,-12,1,-3,1,10,1,-3,1,-8,1,-4,1,-22,1,-25,1,-27,1,-25,1,-18,1
1041,-9,1,-13,1,-4,1,11,1,-3,1,-9,1,-3,1,-21,1,-24,1,-26,1,-23,1,-17,1
1042,-9,1,-12,1,-3,1,10,1,-3,1,-8,1,-3,1,-20,1,-24,1,-27,1,-23,1,-17,1
1043,-8,1,-10,1,-2,1,9,1,-3,1,-6,1,-3,1,-20,1,-24,1,-27,1,-23,1,-17,1
1044,-7,1,-10,1,-3,1,8,1,-2,1,-7,1,-4,1,-20,1,-24,1,-26,1,-24,1,-17,1
1045,-7,1,-9,1,-2,1,8,1,-3,1,-6,1,-3,1,-19,1,-23,1,-26,1,-23,1,-16,1
1046,-7,1,-9,1,-2,1,8,1,-3,1,-6,1,-1,1,-18,1,-22,1,-25,1,-23,1,-15,1
1047,-7,1,-7,1,0,1,7,1,-4,1,-4,1,-1,1,-19,1,-23,1,-25,1,-23,1,-15,1
1048,-5,1,-6,1,-1,1,5,1,-2,1,-4,1,0,1,-17,1,-22,1,-23,1,-21,1,-14,1
1049,-5,1,-5,1,0,1,5,1,-3,1,-3,1,2,1,-15,1,-19,1,-22,1,-19,1,-12,1
1050,-4,1,-2,1,2,1,3,1,-3,1,0,1,3,1,-15,1,-19,1,-22,1,-19,1,-12,1
1051,-3,1,-2,1,1,1,2,1,-2,1,-1,1,2,1,-17,1,-20,1,-23,1,-19,1,-13,1
1052,-3,1,-1,1,2,1,2,1,-3,1,0,1,2,1,-17,1,-21,1,-24,1,-20,1,-12,1
1053,-4,1,-2,1,2,1,3,1,-3,1,0,1,2,1,-17,1,-22,1,-25,1,-21,1,-12,1
1054,-3,1,-5,1,-2,1,4,1,-1,1,-4,1,2,1,-16,1,-21,1,-25,1,-21,1,-11,1
1055,-2,1,-5,1,-3,1,3,1,0,1,-4,1,2,1,-16,1,-18,1,-24,1,-19,1,-10,1
1056,0,1,-5,1,-5,1,2,1,2,1,-5,1,1,1,-16,1,-18,1,-23,1,-19,1,-9,1
1057,0,1,-6,1,-6,1,3,1,3,1,-6,1,1,1,-17,1,-18,1,-22,1,-19,1,-10,1
1058,1,1,-3,1,-4,1,1,1,2,1,-3,1,0,1,-17,1,-19,1,-22,1,-19,1,-9,1
1059,2,1,0,1,-2,1,-1,1,2,1,-1,1,0,1,-15,1,-17,1,-21,1,-17,1,-7,1
1060,4,1,3,1,-1,1,-3,1,3,1,1,1,0,1,-15,1,-16,1,-20,1,-16,1,-6,1
1061,7,1,5,1,-2,1,-6,1,5,1,2,1,-2,1,-15,1,-15,1,-20,1,-15,1,-6,1
1062,9,1,3,1,-6,1,-6,1,8,1,-1,1,-4,1,-15,1,-15,1,-20,1,-15,1,-5,1
1063,9,1,1,1,-8,1,-5,1,9,1,-3,1,-6,1,-17,1,-15,1,-20,1,-15,1,-4,1
1064,7,1,1,1,-6,1,-4,1,7,1,-2,1,-8,1,-18,1,-17,1,-20,1,-14,1,-4,1
1065,8,1,0,1,-8,1,-4,1,8,1,-4,1,-9,1,-18,1,-17,1,-21,1,-16,1,-5,1
1066,9,1,-1,1,-10,1,-4,1,9,1,-5,1,-10,1,-20,1,-18,1,-22,1,-18,1,-6,1
1067,8,1,-2,1,-10,1,-3,1,9,1,-6,1,-8,1,-20,1,-19,1,-22,1,-18,1,-6,1
1068,8,1,-2,1,-10,1,-3,1,9,1,-6,1,-7,1,-18,1,-18,1,-22,1,-19,1,-6,1
1069,10,1,-3,1,-13,1,-3,1,11,1,-8,1,-7,1,-15,1,-16,1,-20,1,-17,1,-6,1
1070,8,1,-2,1,-10,1,-3,1,9,1,-6,1,-8,1,-15,1,-17,1,-21,1,-17,1,-6,1
1071,8,1,0,1,-8,1,-4,1,8,1,-4,1,-7,1,-14,1,-18,1,-21,1,-16,1,-6,1
1072,11,1,0,1,-11,1,-5,1,11,1,-5,1,-9,1,-16,1,-19,1,-22,1,-16,1,-6,1
1073,10,1,0,1,-10,1,-5,1,10,1,-5,1,-9,1,-17,1,-19,1,-22,1,-15,1,-6,1
1074,9,1,-1,1,-10,1,-4,1,9,1,-5,1,-10,1,-18,1,-20,1,-22,1,-17,1,-7,1
1075,7,1,-4,1,-11,1,-1,1,9,1,-7,1,-10,1,-18,1,-20,1,-22,1,-17,1,-6,1
1076,7,1,-4,1,-11,1,-1,1,9,1,-7,1,-10,1,-18,1,-20,1,-21,1,-18,1,-5,1
1077,8,1,-6,1,-14,1,-1,1,11,1,-10,1,-11,1,-18,1,-20,1,-23,1,-20,1,-7,1
1078,7,1,-7,1,-14,1,0,1,10,1,-10,1,-10,1,-17,1,-20,1,-22,1,-20,1,-7,1
1079,6,1,-8,1,-14,1,1,1,10,1,-11,1,-8,1,-15,1,-18,1,-22,1,-18,1,-6,1
1080,5,1,-8,1,-13,1,1,1,9,1,-10,1,-6,1,-14,1,-18,1,-22,1,-17,1,-6,1
1081,4,1,-10,1,-14,1,3,1,9,1,-12,1,-6,1,-14,1,-19,1,-22,1,-18,1,-8,1
1082,2,1,-12,1,-14,1,5,1,8,1,-13,1,-7,1,-16,1,-21,1,-24,1,-20,1,-9,1
1083,-2,1,-14,1,-12,1,8,1,5,1,-13,1,-5,1,-15,1,-21,1,-25,1,-21,1,-10,1
1084,-3,1,-14,1,-11,1,8,1,4,1,-13,1,-4,1,-14,1,-20,1,-25,1,-20,1,-10,1
1085,-4,1,-13,1,-9,1,8,1,2,1,-11,1,-4,1,-14,1,-20,1,-24,1,-20,1,-10,1
1086,-7,1,-15,1,-8,1,11,1,0,1,-12,1,-4,1,-15,1,-23,1,-26,1,-23,1,-11,1
1087,-9,1,-18,1,-9,1,13,1,0,1,-14,1,-6,1,-18,1,-26,1,-30,1,-26,1,-14,1
1088,-10,1,-19,1,-9,1,14,1,-1,1,-14,1,-6,1,-21,1,-27,1,-32,1,-26,1,-15,1
1089,-11,1,-19,1,-8,1,15,1,-2,1,-14,1,-6,1,-21,1,-28,1,-32,1,-26,1,-15,1
1090,-11,1,-20,1,-9,1,15,1,-1,1,-15,1,-8,1,-24,1,-29,1,-33,1,-28,1,-16,1
1091,-14,1,-22,1,-8,1,18,1,-3,1,-15,1,-9,1,-23,1,-31,1,-35,1,-28,1,-19,1
1092,-13,1,-21,1,-8,1,17,1,-3,1,-15,1,-9,1,-23,1,-32,1,-35,1,-26,1,-18,1
1093,-12,1,-19,1,-7,1,15,1,-3,1,-13,1,-9,1,-23,1,-32,1,-35,1,-25,1,-18,1
1094,-11,1,-20,1,-9,1,15,1,-1,1,-15,1,-10,1,-23,1,-31,1,-35,1,-25,1,-19,1
1095,-14,1,-19,1,-5,1,16,1,-5,1,-12,1,-9,1,-23,1,-31,1,-34,1,-24,1,-19,1
1096,-14,1,-20,1,-6,1,17,1,-4,1,-13,1,-8,1,-24,1,-31,1,-35,1,-24,1,-19,1
1097,-13,1,-22,1,-9,1,17,1,-2,1,-16,1,-8,1,-24,1,-31,1,-35,1,-23,1,-18,1
1098,-14,1,-22,1,-8,1,18,1,-3,1,-15,1,-7,1,-23,1,-30,1,-35,1,-22,1,-17,1
1099,-14,1,-21,1,-7,1,17,1,-4,1,-14,1,-7,1,-24,1,-32,1,-35,1,-23,1,-17,1
1100,-14,1,-20,1,-6,1,17,1,-4,1,-13,1,-8,1,-24,1,-31,1,-35,1,-23,1,-18,1
1101,-15,1,-21,1,-6,1,18,1,-5,1,-14,1,-6,1,-23,1,-30,1,-34,1,-24,1,-17,1
1102,-15,1,-22,1,-7,1,18,1,-4,1,-15,1,-7,1,-23,1,-30,1,-34,1,-24,1,-17,1
1103,-15,1,-23,1,-8,1,19,1,-4,1,-16,1,-6,1,-23,1,-30,1,-32,1,-22,1,-16,1
1104,-15,1,-21,1,-6,1,18,1,-5,1,-14,1,-6,1,-24,1,-30,1,-32,1,-22,1,-16,1
1105,-14,1,-23,1,-9,1,18,1,-3,1,-16,1,-8,1,-24,1,-31,1,-33,1,-23,1,-17,1
1106,-15,1,-25,1,-10,1,20,1,-3,1,-18,1,-8,1,-24,1,-31,1,-33,1,-23,1,-17,1
1107,-16,1,-25,1,-9,1,20,1,-4,1,-17,1,-7,1,-23,1,-30,1,-33,1,-22,1,-16,1
1108,-16,1,-24,1,-8,1,20,1,-4,1,-16,1,-7,1,-23,1,-30,1,-32,1,-22,1,-16,1
1109,-15,1,-23,1,-8,1,19,1,-4,1,-16,1,-8,1,-25,1,-31,1,-33,1,-22,1,-17,1
1110,-14,1,-23,1,-9,1,18,1,-3,1,-16,1,-8,1,-24,1,-30,1,-33,1,-21,1,-16,1
1111,-15,1,-26,1,-11,1,20,1,-2,1,-19,1,-7,1,-23,1,-31,1,-33,1,-21,1,-17,1
1112,-16,1,-25,1,-9,1,20,1,-4,1,-17,1,-8,1,-23,1,-31,1,-33,1,-21,1,-17,1
1113,-15,1,-22,1,-7,1,18,1,-4,1,-15,1,-8,1,-24,1,-31,1,-33,1,-21,1,-18,1
1114,-16,1,-21,1,-5,1,18,1,-6,1,-13,1,-6,1,-23,1,-29,1,-33,1,-21,1,-17,1
1115,-20,1,-17,1,3,1,18,1,-12,1,-7,1,0,1,-16,1,-26,1,-31,1,-19,1,-17,1
1116,-22,1,-17,1,5,1,19,1,-14,1,-6,1,9,1,-9,1,-23,1,-29,1,-19,1,-17,1
1117,-20,1,-13,1,7,1,16,1,-14,1,-3,1,15,1,0,1,-18,1,-27,1,-18,1,-16,1
1118,-17,1,-11,1,6,1,14,1,-12,1,-3,1,21,1,9,1,-9,1,-20,1,-12,1,-11,1
1119,-13,1,-14,1,-1,1,13,1,-6,1,-8,1,28,1,22,1,1,1,-12,1,-7,1,-8,1
1120,-4,1,-14,1,-10,1,9,1,3,1,-12,1,34,1,42,1,15,1,-3,1,-1,1,-4,1
1121,6,1,-9,1,-15,1,1,1,10,1,-12,1,44,1,69,1,37,1,14,1,10,1,4,1
1122,16,1,-3,1,-19,1,-6,1,17,1,-11,1,57,1,97,1,63,1,36,1,27,1,17,1
1123,28,1,5,1,-23,1,-16,1,26,1,-9,1,67,1,128,1,95,1,64,1,47,1,33,1
1124,43,1,16,1,-27,1,-29,1,35,1,-5,1,73,1,155,1,129,1,90,1,68,1,50,1
1125,62,1,25,1,-37,1,-43,1,50,1,-6,1,61,1,173,1,160,1,120,1,91,1,70,1
1126,83,1,40,1,-43,1,-61,1,63,1,-1,1,38,1,177,1,188,1,150,1,114,1,92,1
1127,104,1,62,1,-42,1,-83,1,73,1,10,1,7,1,166,1,205,1,174,1,137,1,114,1
1128,124,1,86,1,-38,1,-105,1,81,1,24,1,-39,1,134,1,208,1,190,1,158,1,135,1
1129,138,1,103,1,-35,1,-120,1,87,1,34,1,-85,1,94,1,202,1,197,1,170,1,151,1
1130,142,1,108,1,-34,1,-125,1,88,1,37,1,-119,1,62,1,196,1,198,1,175,1,157,1
1131,134,1,99,1,-35,1,-116,1,85,1,32,1,-135,1,34,1,181,1,186,1,162,1,149,1
1132,114,1,70,1,-44,1,-92,1,79,1,13,1,-138,1,8,1,146,1,148,1,128,1,121,1
1133,90,1,46,1,-44,1,-68,1,67,1,1,1,-141,1,-35,1,86,1,93,1,85,1,87,1
1134,60,1,30,1,-30,1,-45,1,45,1,0,1,-146,1,-89,1,22,1,37,1,45,1,57,1
1135,28,1,12,1,-16,1,-20,1,22,1,-2,1,-147,1,-143,1,-43,1,-18,1,5,1,25,1
1136,5,1,-4,1,-9,1,0,1,7,1,-6,1,-156,1,-196,1,-104,1,-66,1,-27,1,-2,1
1137,-17,1,-16,1,1,1,16,1,-9,1,-8,1,-162,1,-244,1,-156,1,-105,1,-53,1,-23,1
1138,-31,1,-29,1,2,1,30,1,-17,1,-14,1,-172,1,-271,1,-190,1,-132,1,-72,1,-39,1
1139,-42,1,-35,1,7,1,38,1,-25,1,-14,1,-181,1,-283,1,-206,1,-146,1,-84,1,-50,1
1140,-52,1,-40,1,12,1,46,1,-32,1,-14,1,-180,1,-275,1,-206,1,-148,1,-88,1,-55,1
1141,-55,1,-38,1,17,1,46,1,-36,1,-11,1,-175,1,-261,1,-198,1,-144,1,-88,1,-57,1
1142,-60,1,-35,1,25,1,47,1,-43,1,-5,1,-166,1,-248,1,-189,1,-139,1,-84,1,-56,1
1143,-65,1,-39,1,26,1,52,1,-46,1,-7,1,-158,1,-233,1,-182,1,-136,1,-85,1,-58,1
1144,-67,1,-41,1,26,1,54,1,-47,1,-8,1,-149,1,-215,1,-172,1,-132,1,-86,1,-61,1
1145,-65,1,-39,1,26,1,52,1,-46,1,-7,1,-138,1,-194,1,-160,1,-125,1,-83,1,-61,1
1146,-59,1,-34,1,25,1,46,1,-42,1,-5,1,-123,1,-169,1,-142,1,-111,1,-74,1,-52,1
1147,-52,1,-30,1,22,1,41,1,-37,1,-4,1,-109,1,-146,1,-124,1,-98,1,-66,1,-45,1
1148,-45,1,-26,1,19,1,35,1,-32,1,-4,1,-92,1,-124,1,-107,1,-86,1,-56,1,-39,1
1149,-40,1,-19,1,21,1,29,1,-31,1,1,1,-74,1,-101,1,-88,1,-71,1,-46,1,-32,1
1150,-34,1,-15,1,19,1,24,1,-27,1,2,1,-56,1,-76,1,-69,1,-55,1,-35,1,-23,1
1151,-28,1,-12,1,16,1,20,1,-22,1,2,1,-42,1,-59,1,-55,1,-46,1,-28,1,-19,1
1152,-24,1,-8,1,16,1,16,1,-20,1,4,1,-31,1,-46,1,-45,1,-38,1,-23,1,-15,1
1153,-22,1,-9,1,13,1,15,1,-18,1,2,1,-22,1,-35,1,-37,1,-33,1,-19,1,-12,1
1154,-18,1,-12,1,6,1,15,1,-12,1,-3,1,-18,1,-26,1,-32,1,-29,1,-17,1,-12,1
1155,-15,1,-15,1,0,1,15,1,-8,1,-8,1,-13,1,-20,1,-28,1,-27,1,-17,1,-12,1
1156,-16,1,-20,1,-4,1,18,1,-6,1,-12,1,-10,1,-16,1,-26,1,-25,1,-17,1,-11,1
1157,-14,1,-22,1,-8,1,18,1,-3,1,-15,1,-9,1,-13,1,-25,1,-24,1,-17,1,-11,1
1158,-11,1,-21,1,-10,1,16,1,-1,1,-16,1,-8,1,-10,1,-22,1,-24,1,-16,1,-10,1
1159,-11,1,-21,1,-10,1,16,1,-1,1,-16,1,-8,1,-9,1,-22,1,-23,1,-16,1,-10,1
1160,-12,1,-21,1,-9,1,16,1,-2,1,-15,1,-7,1,-9,1,-22,1,-23,1,-15,1,-10,1
1161,-12,1,-20,1,-8,1,16,1,-2,1,-14,1,-6,1,-8,1,-20,1,-22,1,-14,1,-10,1
1162,-10,1,-19,1,-9,1,14,1,-1,1,-14,1,-7,1,-7,1,-21,1,-23,1,-15,1,-10,1
1163,-8,1,-17,1,-9,1,12,1,0,1,-13,1,-7,1,-7,1,-21,1,-22,1,-15,1,-11,1
1164,-10,1,-17,1,-7,1,13,1,-2,1,-12,1,-5,1,-5,1,-20,1,-21,1,-14,1,-10,1
1165,-10,1,-17,1,-7,1,13,1,-2,1,-12,1,-5,1,-4,1,-19,1,-20,1,-13,1,-10,1
1166,-9,1,-19,1,-10,1,14,1,0,1,-15,1,-4,1,-3,1,-17,1,-19,1,-12,1,-9,1
1167,-10,1,-18,1,-8,1,14,1,-1,1,-13,1,-2,1,-2,1,-16,1,-19,1,-13,1,-8,1
1168,-11,1,-18,1,-7,1,14,1,-2,1,-13,1,-1,1,0,1,-14,1,-17,1,-12,1,-6,1
1169,-9,1,-18,1,-9,1,13,1,0,1,-14,1,-3,1,-1,1,-15,1,-18,1,-12,1,-6,1
1170,-10,1,-18,1,-8,1,14,1,-1,1,-13,1,-2,1,0,1,-15,1,-18,1,-13,1,-7,1
1171,-10,1,-17,1,-7,1,13,1,-2,1,-12,1,-1,1,0,1,-14,1,-18,1,-13,1,-7,1
1172,-8,1,-17,1,-9,1,12,1,0,1,-13,1,0,1,1,1,-13,1,-16,1,-11,1,-7,1
1173,-9,1,-18,1,-9,1,13,1,0,1,-14,1,-1,1,1,1,-13,1,-16,1,-11,1,-7,1
1174,-8,1,-16,1,-8,1,12,1,0,1,-12,1,-1,1,0,1,-13,1,-16,1,-11,1,-8,1
1175,-7,1,-14,1,-7,1,10,1,0,1,-11,1,-2,1,-1,1,-13,1,-16,1,-11,1,-8,1
1176,-8,1,-16,1,-8,1,12,1,0,1,-12,1,-1,1,-1,1,-11,1,-15,1,-10,1,-7,1
1177,-6,1,-13,1,-7,1,9,1,0,1,-10,1,-1,1,-3,1,-11,1,-16,1,-11,1,-7,1
1178,-7,1,-16,1,-9,1,11,1,1,1,-13,1,0,1,-1,1,-9,1,-14,1,-9,1,-5,1
1179,-6,1,-16,1,-10,1,11,1,2,1,-13,1,0,1,-1,1,-8,1,-14,1,-8,1,-4,1
1180,-6,1,-13,1,-7,1,9,1,0,1,-10,1,0,1,-2,1,-8,1,-14,1,-8,1,-5,1
1181,-5,1,-15,1,-10,1,10,1,2,1,-13,1,0,1,-3,1,-8,1,-13,1,-8,1,-5,1
1182,-6,1,-15,1,-9,1,10,1,1,1,-12,1,2,1,-1,1,-7,1,-12,1,-7,1,-4,1
1183,-4,1,-13,1,-9,1,8,1,2,1,-11,1,1,1,-1,1,-6,1,-11,1,-7,1,-4,1
1184,-5,1,-14,1,-9,1,9,1,2,1,-12,1,0,1,-1,1,-6,1,-11,1,-7,1,-4,1
1185,-5,1,-14,1,-9,1,9,1,2,1,-12,1,0,1,-1,1,-5,1,-11,1,-7,1,-4,1
1186,-4,1,-13,1,-9,1,8,1,2,1,-11,1,0,1,0,1,-5,1,-10,1,-6,1,-4,1
1187,-3,1,-13,1,-10,1,8,1,3,1,-12,1,1,1,1,1,-3,1,-8,1,-5,1,-2,1
1188,-2,1,-12,1,-10,1,7,1,4,1,-11,1,2,1,3,1,-2,1,-8,1,-5,1,-1,1
1189,-1,1,-11,1,-10,1,6,1,4,1,-11,1,2,1,3,1,-2,1,-8,1,-3,1,0,1
1190,-1,1,-11,1,-10,1,6,1,4,1,-11,1,2,1,3,1,-1,1,-8,1,-3,1,0,1
1191,-2,1,-12,1,-10,1,7,1,4,1,-11,1,3,1,3,1,-2,1,-7,1,-4,1,0,1
1192,-3,1,-11,1,-8,1,7,1,2,1,-10,1,3,1,5,1,0,1,-6,1,-3,1,0,1
1193,-1,1,-11,1,-10,1,6,1,4,1,-11,1,2,1,6,1,0,1,-6,1,-2,1,0,1
1194,-1,1,-12,1,-11,1,6,1,5,1,-12,1,3,1,8,1,2,1,-4,1,0,1,0,1
1195,-1,1,-12,1,-11,1,6,1,5,1,-12,1,3,1,8,1,3,1,-4,1,0,1,0,1
1196,1,1,-10,1,-11,1,4,1,6,1,-10,1,3,1,9,1,3,1,-5,1,-1,1,0,1
1197,2,1,-12,1,-14,1,5,1,8,1,-13,1,4,1,10,1,4,1,-3,1,0,1,1,1
1198,1,1,-11,1,-12,1,5,1,6,1,-11,1,5,1,11,1,6,1,-2,1,2,1,2,1
1199,2,1,-11,1,-13,1,4,1,7,1,-12,1,5,1,12,1,8,1,-1,1,2,1,2,1
1200,1,1,-10,1,-11,1,4,1,6,1,-10,1,6,1,15,1,10,1,0,1,4,1,3,1
1201,1,1,-11,1,-12,1,5,1,6,1,-11,1,7,1,17,1,10,1,1,1,5,1,6,1
1202,4,1,-10,1,-14,1,3,1,9,1,-12,1,8,1,18,1,12,1,3,1,5,1,6,1
1203,4,1,-10,1,-14,1,3,1,9,1,-12,1,7,1,18,1,12,1,3,1,6,1,6,1
1204,5,1,-8,1,-13,1,1,1,9,1,-10,1,8,1,19,1,13,1,4,1,7,1,7,1
1205,5,1,-8,1,-13,1,1,1,9,1,-10,1,8,1,21,1,15,1,6,1,9,1,8,1
1206,3,1,-8,1,-11,1,2,1,7,1,-9,1,8,1,21,1,16,1,5,1,9,1,6,1
1207,6,1,-5,1,-11,1,0,1,8,1,-8,1,9,1,23,1,18,1,7,1,11,1,8,1
1208,7,1,-4,1,-11,1,-1,1,9,1,-7,1,8,1,25,1,20,1,8,1,12,1,10,1
1209,9,1,-3,1,-12,1,-3,1,10,1,-7,1,7,1,26,1,19,1,7,1,11,1,9,1
1210,10,1,-3,1,-13,1,-3,1,11,1,-8,1,6,1,26,1,21,1,8,1,10,1,9,1
1211,10,1,-4,1,-14,1,-3,1,12,1,-9,1,9,1,30,1,22,1,10,1,12,1,10,1
1212,11,1,-3,1,-14,1,-4,1,12,1,-8,1,10,1,32,1,24,1,12,1,14,1,12,1
1213,14,1,-1,1,-15,1,-6,1,14,1,-8,1,10,1,32,1,25,1,14,1,14,1,13,1
1214,11,1,-1,1,-12,1,-5,1,11,1,-6,1,11,1,35,1,28,1,16,1,17,1,15,1
1215,11,1,0,1,-11,1,-5,1,11,1,-5,1,11,1,36,1,28,1,16,1,16,1,15,1
1216,13,1,1,1,-12,1,-7,1,13,1,-5,1,10,1,37,1,29,1,17,1,17,1,16,1
1217,15,1,2,1,-13,1,-8,1,14,1,-5,1,10,1,40,1,32,1,20,1,19,1,18,1
1218,16,1,4,1,-12,1,-10,1,14,1,-4,1,11,1,41,1,33,1,21,1,20,1,18,1
1219,17,1,4,1,-13,1,-10,1,15,1,-4,1,11,1,43,1,34,1,22,1,22,1,18,1
1220,16,1,4,1,-12,1,-10,1,14,1,-4,1,13,1,45,1,36,1,23,1,22,1,18,1
1221,18,1,6,1,-12,1,-12,1,15,1,-3,1,13,1,48,1,38,1,24,1,23,1,20,1
1222,19,1,6,1,-13,1,-12,1,16,1,-3,1,15,1,50,1,40,1,27,1,25,1,22,1
1223,21,1,9,1,-12,1,-15,1,17,1,-1,1,14,1,50,1,42,1,28,1,25,1,22,1
1224,22,1,12,1,-10,1,-17,1,16,1,1,1,12,1,50,1,41,1,27,1,25,1,21,1
1225,22,1,11,1,-11,1,-16,1,17,1,0,1,14,1,54,1,45,1,31,1,28,1,24,1
1226,23,1,11,1,-12,1,-17,1,18,1,0,1,15,1,57,1,47,1,33,1,30,1,27,1
1227,23,1,12,1,-11,1,-17,1,17,1,1,1,14,1,57,1,47,1,34,1,31,1,27,1
1228,23,1,13,1,-10,1,-18,1,17,1,2,1,15,1,59,1,49,1,36,1,34,1,28,1
1229,24,1,15,1,-9,1,-19,1,17,1,3,1,16,1,60,1,51,1,36,1,35,1,29,1
1230,24,1,16,1,-8,1,-20,1,16,1,4,1,18,1,61,1,52,1,38,1,35,1,30,1
1231,27,1,17,1,-10,1,-22,1,19,1,4,1,17,1,62,1,53,1,38,1,36,1,30,1
1232,27,1,18,1,-9,1,-22,1,18,1,5,1,17,1,64,1,55,1,40,1,38,1,32,1
1233,27,1,18,1,-9,1,-22,1,18,1,5,1,17,1,65,1,56,1,41,1,39,1,33,1
1234,26,1,18,1,-8,1,-22,1,17,1,5,1,17,1,65,1,56,1,41,1,39,1,33,1
1235,26,1,19,1,-7,1,-22,1,17,1,6,1,17,1,66,1,58,1,42,1,40,1,34,1
1236,28,1,20,1,-8,1,-24,1,18,1,6,1,17,1,66,1,59,1,43,1,41,1,35,1
1237,29,1,19,1,-10,1,-24,1,20,1,5,1,16,1,66,1,60,1,44,1,41,1,36,1
1238,29,1,21,1,-8,1,-25,1,19,1,7,1,16,1,66,1,59,1,44,1,41,1,36,1
1239,31,1,23,1,-8,1,-27,1,20,1,8,1,15,1,65,1,59,1,44,1,41,1,35,1
1240,32,1,25,1,-7,1,-28,1,20,1,9,1,15,1,65,1,59,1,45,1,42,1,36,1
1241,30,1,24,1,-6,1,-27,1,18,1,9,1,15,1,64,1,59,1,45,1,43,1,37,1
1242,30,1,24,1,-6,1,-27,1,18,1,9,1,14,1,65,1,59,1,45,1,43,1,37,1
1243,33,1,26,1,-7,1,-29,1,20,1,10,1,14,1,64,1,58,1,45,1,42,1,37,1
1244,31,1,25,1,-6,1,-28,1,19,1,10,1,13,1,64,1,58,1,46,1,42,1,38,1
1245,30,1,26,1,-4,1,-28,1,17,1,11,1,13,1,63,1,58,1,46,1,43,1,39,1
1246,31,1,25,1,-6,1,-28,1,19,1,10,1,12,1,61,1,55,1,44,1,42,1,37,1
1247,30,1,27,1,-3,1,-28,1,17,1,12,1,12,1,62,1,56,1,45,1,42,1,38,1
1248,30,1,27,1,-3,1,-28,1,17,1,12,1,12,1,60,1,55,1,46,1,43,1,38,1
1249,28,1,25,1,-3,1,-26,1,16,1,11,1,11,1,58,1,55,1,45,1,43,1,38,1
1250,30,1,25,1,-5,1,-27,1,18,1,10,1,11,1,58,1,55,1,47,1,43,1,38,1
1251,31,1,26,1,-5,1,-28,1,18,1,11,1,9,1,58,1,55,1,45,1,43,1,37,1
1252,30,1,27,1,-3,1,-28,1,17,1,12,1,9,1,58,1,55,1,45,1,43,1,37,1
1253,30,1,28,1,-2,1,-29,1,16,1,13,1,8,1,57,1,54,1,45,1,44,1,37,1
1254,27,1,27,1,0,1,-27,1,14,1,14,1,8,1,55,1,52,1,43,1,42,1,36,1
1255,28,1,26,1,-2,1,-27,1,15,1,12,1,8,1,53,1,52,1,44,1,42,1,37,1
1256,30,1,27,1,-3,1,-28,1,17,1,12,1,7,1,53,1,51,1,44,1,42,1,38,1
1257,29,1,27,1,-2,1,-28,1,16,1,13,1,7,1,50,1,50,1,43,1,41,1,37,1
1258,30,1,28,1,-2,1,-29,1,16,1,13,1,7,1,48,1,49,1,42,1,41,1,37,1
1259,28,1,27,1,-1,1,-27,1,15,1,13,1,8,1,47,1,49,1,41,1,41,1,36,1
1260,27,1,25,1,-2,1,-26,1,15,1,12,1,6,1,47,1,47,1,39,1,38,1,36,1
1261,25,1,24,1,-1,1,-24,1,13,1,12,1,7,1,45,1,44,1,37,1,37,1,35,1
1262,23,1,22,1,-1,1,-22,1,12,1,11,1,9,1,42,1,43,1,36,1,37,1,34,1
1263,22,1,22,1,0,1,-22,1,11,1,11,1,8,1,39,1,40,1,33,1,35,1,31,1
1264,19,1,19,1,0,1,-19,1,10,1,10,1,7,1,36,1,37,1,30,1,33,1,28,1
1265,19,1,17,1,-2,1,-18,1,11,1,8,1,7,1,33,1,35,1,29,1,32,1,28,1
1266,18,1,15,1,-3,1,-16,1,11,1,6,1,8,1,31,1,33,1,26,1,29,1,26,1
1267,13,1,12,1,-1,1,-12,1,7,1,6,1,9,1,29,1,30,1,23,1,28,1,25,1
1268,10,1,12,1,2,1,-11,1,4,1,7,1,9,1,25,1,28,1,21,1,26,1,23,1
1269,8,1,11,1,3,1,-9,1,3,1,7,1,7,1,22,1,25,1,19,1,23,1,21,1
1270,8,1,8,1,0,1,-8,1,4,1,4,1,7,1,18,1,22,1,16,1,21,1,19,1
1271,5,1,5,1,0,1,-5,1,3,1,3,1,7,1,16,1,19,1,13,1,20,1,18,1
1272,4,1,6,1,2,1,-5,1,1,1,4,1,5,1,12,1,16,1,11,1,17,1,15,1
1273,2,1,5,1,3,1,-3,1,0,1,4,1,5,1,10,1,12,1,8,1,15,1,12,1
1274,0,1,3,1,3,1,-1,1,-1,1,3,1,5,1,8,1,10,1,6,1,14,1,12,1
1275,-2,1,2,1,4,1,0,1,-3,1,3,1,3,1,5,1,8,1,4,1,12,1,9,1
1276,-5,1,0,1,5,1,2,1,-5,1,2,1,2,1,1,1,6,1,1,1,10,1,8,1
1277,-6,1,-1,1,5,1,3,1,-6,1,2,1,2,1,-1,1,4,1,-1,1,8,1,6,1
1278,-7,1,-4,1,3,1,5,1,-5,1,-1,1,1,1,-4,1,1,1,-3,1,6,1,4,1
1279,-9,1,-5,1,4,1,7,1,-7,1,-1,1,1,1,-7,1,-2,1,-6,1,4,1,3,1
1280,-9,1,-6,1,3,1,7,1,-6,1,-2,1,0,1,-10,1,-5,1,-8,1,2,1,1,1
1281,-9,1,-7,1,2,1,8,1,-6,1,-3,1,-1,1,-13,1,-7,1,-10,1,-1,1,0,1
1282,-10,1,-8,1,2,1,9,1,-6,1,-3,1,-2,1,-15,1,-8,1,-11,1,-2,1,0,1
1283,-11,1,-8,1,3,1,9,1,-7,1,-3,1,-3,1,-17,1,-11,1,-14,1,-3,1,-2,1
1284,-11,1,-8,1,3,1,9,1,-7,1,-3,1,-6,1,-18,1,-13,1,-17,1,-5,1,-4,1
1285,-13,1,-11,1,2,1,12,1,-8,1,-5,1,-6,1,-18,1,-13,1,-17,1,-5,1,-4,1
1286,-11,1,-13,1,-2,1,12,1,-5,1,-8,1,-6,1,-19,1,-15,1,-19,1,-6,1,-5,1
1287,-12,1,-11,1,1,1,11,1,-7,1,-5,1,-6,1,-21,1,-17,1,-20,1,-8,1,-7,1
1288,-13,1,-9,1,4,1,11,1,-9,1,-3,1,-7,1,-24,1,-18,1,-22,1,-10,1,-9,1
1289,-15,1,-5,1,10,1,10,1,-13,1,2,1,-8,1,-26,1,-21,1,-24,1,-12,1,-10,1
1290,-16,1,-6,1,10,1,11,1,-13,1,2,1,-9,1,-27,1,-21,1,-25,1,-12,1,-10,1
1291,-17,1,-10,1,7,1,13,1,-12,1,-2,1,-9,1,-28,1,-22,1,-26,1,-12,1,-11,1
1292,-16,1,-9,1,7,1,12,1,-12,1,-1,1,-10,1,-29,1,-23,1,-26,1,-12,1,-11,1
1293,-16,1,-7,1,9,1,11,1,-13,1,1,1,-10,1,-29,1,-25,1,-27,1,-13,1,-12,1
1294,-16,1,-6,1,10,1,11,1,-13,1,2,1,-10,1,-29,1,-24,1,-27,1,-13,1,-11,1
1295,-15,1,-8,1,7,1,11,1,-11,1,-1,1,-11,1,-31,1,-26,1,-27,1,-13,1,-13,1
1296,-14,1,-7,1,7,1,10,1,-11,1,0,1,-11,1,-31,1,-25,1,-27,1,-14,1,-13,1
1297,-16,1,-6,1,10,1,11,1,-13,1,2,1,-11,1,-31,1,-25,1,-28,1,-14,1,-13,1
1298,-17,1,-7,1,10,1,12,1,-14,1,1,1,-11,1,-29,1,-26,1,-27,1,-14,1,-14,1
1299,-16,1,-10,1,6,1,13,1,-11,1,-2,1,-11,1,-31,1,-26,1,-26,1,-15,1,-14,1
1300,-17,1,-9,1,8,1,13,1,-13,1,-1,1,-10,1,-31,1,-27,1,-27,1,-15,1,-15,1
1301,-16,1,-9,1,7,1,12,1,-12,1,-1,1,-9,1,-29,1,-26,1,-26,1,-14,1,-14,1
1302,-16,1,-10,1,6,1,13,1,-11,1,-2,1,-11,1,-29,1,-26,1,-28,1,-15,1,-15,1
1303,-16,1,-10,1,6,1,13,1,-11,1,-2,1,-10,1,-28,1,-26,1,-26,1,-14,1,-13,1
1304,-15,1,-10,1,5,1,12,1,-10,1,-3,1,-10,1,-28,1,-25,1,-26,1,-14,1,-12,1
1305,-17,1,-11,1,6,1,14,1,-12,1,-3,1,-10,1,-28,1,-25,1,-25,1,-14,1,-12,1
1306,-18,1,-13,1,5,1,15,1,-12,1,-4,1,-10,1,-29,1,-26,1,-26,1,-15,1,-13,1
1307,-19,1,-13,1,6,1,16,1,-13,1,-4,1,-10,1,-28,1,-26,1,-25,1,-14,1,-14,1
1308,-19,1,-14,1,5,1,16,1,-12,1,-5,1,-9,1,-29,1,-26,1,-25,1,-15,1,-14,1
1309,-15,1,-12,1,3,1,13,1,-9,1,-5,1,-10,1,-30,1,-26,1,-26,1,-15,1,-14,1
1310,-16,1,-10,1,6,1,13,1,-11,1,-2,1,-10,1,-30,1,-27,1,-27,1,-16,1,-15,1
1311,-17,1,-13,1,4,1,15,1,-11,1,-5,1,-12,1,-30,1,-27,1,-27,1,-15,1,-15,1
1312,-19,1,-15,1,4,1,17,1,-12,1,-6,1,-12,1,-29,1,-27,1,-28,1,-16,1,-14,1
1313,-17,1,-14,1,3,1,15,1,-10,1,-6,1,-12,1,-28,1,-27,1,-27,1,-16,1,-14,1
1314,-17,1,-13,1,4,1,15,1,-11,1,-5,1,-12,1,-28,1,-27,1,-28,1,-16,1,-14,1
1315,-17,1,-13,1,4,1,15,1,-11,1,-5,1,-11,1,-29,1,-27,1,-27,1,-16,1,-14,1
1316,-18,1,-13,1,5,1,15,1,-12,1,-4,1,-12,1,-31,1,-28,1,-28,1,-15,1,-15,1
1317,-16,1,-15,1,1,1,15,1,-9,1,-7,1,-12,1,-30,1,-28,1,-28,1,-14,1,-15,1
1318,-19,1,-14,1,5,1,16,1,-12,1,-5,1,-12,1,-30,1,-28,1,-28,1,-14,1,-15,1
1319,-19,1,-13,1,6,1,16,1,-13,1,-4,1,-11,1,-29,1,-27,1,-27,1,-15,1,-15,1
1320,-17,1,-13,1,4,1,15,1,-11,1,-5,1,-12,1,-29,1,-28,1,-27,1,-15,1,-15,1
1321,-17,1,-16,1,1,1,16,1,-9,1,-8,1,-12,1,-29,1,-28,1,-29,1,-16,1,-16,1
1322,-16,1,-18,1,-2,1,17,1,-7,1,-10,1,-10,1,-29,1,-27,1,-28,1,-17,1,-15,1
1323,-17,1,-16,1,1,1,16,1,-9,1,-8,1,-11,1,-29,1,-28,1,-28,1,-17,1,-15,1
1324,-16,1,-15,1,1,1,15,1,-9,1,-7,1,-13,1,-31,1,-29,1,-29,1,-18,1,-16,1
1325,-19,1,-18,1,1,1,18,1,-10,1,-9,1,-12,1,-32,1,-30,1,-29,1,-17,1,-16,1
1326,-19,1,-18,1,1,1,18,1,-10,1,-9,1,-13,1,-32,1,-30,1,-30,1,-17,1,-16,1
1327,-20,1,-18,1,2,1,19,1,-11,1,-8,1,-10,1,-31,1,-28,1,-28,1,-16,1,-15,1
1328,-20,1,-16,1,4,1,18,1,-12,1,-6,1,-11,1,-30,1,-29,1,-28,1,-16,1,-16,1
1329,-19,1,-14,1,5,1,16,1,-12,1,-5,1,-12,1,-31,1,-29,1,-28,1,-17,1,-16,1
1330,-18,1,-16,1,2,1,17,1,-10,1,-7,1,-12,1,-33,1,-30,1,-29,1,-17,1,-16,1
1331,-18,1,-18,1,0,1,18,1,-9,1,-9,1,-13,1,-33,1,-31,1,-29,1,-17,1,-17,1
1332,-18,1,-18,1,0,1,18,1,-9,1,-9,1,-12,1,-33,1,-29,1,-27,1,-16,1,-15,1
1333,-18,1,-17,1,1,1,17,1,-10,1,-8,1,-12,1,-33,1,-29,1,-27,1,-16,1,-15,1
1334,-17,1,-17,1,0,1,17,1,-9,1,-9,1,-14,1,-34,1,-29,1,-28,1,-17,1,-16,1
1335,-18,1,-18,1,0,1,18,1,-9,1,-9,1,-15,1,-34,1,-30,1,-28,1,-18,1,-18,1
1336,-19,1,-19,1,0,1,19,1,-10,1,-10,1,-14,1,-34,1,-30,1,-28,1,-18,1,-18,1
1337,-20,1,-17,1,3,1,18,1,-12,1,-7,1,-12,1,-32,1,-29,1,-28,1,-17,1,-16,1
1338,-20,1,-18,1,2,1,19,1,-11,1,-8,1,-12,1,-33,1,-29,1,-28,1,-17,1,-15,1
1339,-20,1,-19,1,1,1,19,1,-11,1,-9,1,-12,1,-33,1,-29,1,-28,1,-17,1,-16,1
1340,-19,1,-19,1,0,1,19,1,-10,1,-10,1,-13,1,-34,1,-30,1,-29,1,-18,1,-18,1
1341,-18,1,-21,1,-3,1,19,1,-8,1,-12,1,-13,1,-35,1,-30,1,-29,1,-18,1,-16,1
1342,-19,1,-21,1,-2,1,20,1,-9,1,-12,1,-12,1,-34,1,-30,1,-27,1,-16,1,-15,1
1343,-19,1,-22,1,-3,1,20,1,-8,1,-13,1,-12,1,-34,1,-30,1,-27,1,-17,1,-16,1
1344,-18,1,-22,1,-4,1,20,1,-7,1,-13,1,-12,1,-34,1,-31,1,-28,1,-17,1,-16,1
1345,-17,1,-22,1,-5,1,19,1,-6,1,-14,1,-12,1,-34,1,-31,1,-28,1,-17,1,-16,1
1346,-18,1,-23,1,-5,1,20,1,-7,1,-14,1,-14,1,-34,1,-32,1,-28,1,-17,1,-17,1
1347,-19,1,-23,1,-4,1,21,1,-8,1,-14,1,-14,1,-36,1,-33,1,-30,1,-18,1,-16,1
1348,-18,1,-23,1,-5,1,20,1,-7,1,-14,1,-13,1,-35,1,-32,1,-29,1,-18,1,-17,1
1349,-18,1,-23,1,-5,1,20,1,-7,1,-14,1,-14,1,-37,1,-33,1,-29,1,-19,1,-18,1
1350,-17,1,-25,1,-8,1,21,1,-5,1,-17,1,-14,1,-37,1,-34,1,-30,1,-18,1,-18,1
1351,-17,1,-24,1,-7,1,20,1,-5,1,-16,1,-13,1,-37,1,-33,1,-29,1,-17,1,-18,1
1352,-19,1,-25,1,-6,1,22,1,-7,1,-16,1,-13,1,-37,1,-33,1,-29,1,-17,1,-17,1
1353,-19,1,-25,1,-6,1,22,1,-7,1,-16,1,-14,1,-38,1,-33,1,-29,1,-18,1,-18,1
1354,-19,1,-24,1,-5,1,21,1,-7,1,-15,1,-15,1,-39,1,-34,1,-31,1,-19,1,-20,1
1355,-18,1,-24,1,-6,1,21,1,-6,1,-15,1,-16,1,-39,1,-35,1,-30,1,-19,1,-19,1
1356,-19,1,-24,1,-5,1,21,1,-7,1,-15,1,-16,1,-40,1,-35,1,-31,1,-19,1,-19,1
1357,-19,1,-24,1,-5,1,21,1,-7,1,-15,1,-16,1,-39,1,-34,1,-31,1,-20,1,-19,1
1358,-20,1,-24,1,-4,1,22,1,-8,1,-14,1,-15,1,-40,1,-35,1,-31,1,-19,1,-20,1
1359,-20,1,-24,1,-4,1,22,1,-8,1,-14,1,-15,1,-40,1,-35,1,-33,1,-19,1,-20,1
1360,-21,1,-24,1,-3,1,22,1,-9,1,-14,1,-16,1,-41,1,-37,1,-33,1,-20,1,-20,1
1361,-20,1,-26,1,-6,1,23,1,-7,1,-16,1,-15,1,-40,1,-36,1,-33,1,-19,1,-20,1
1362,-19,1,-26,1,-7,1,22,1,-6,1,-17,1,-15,1,-39,1,-35,1,-33,1,-19,1,-19,1
1363,-20,1,-26,1,-6,1,23,1,-7,1,-16,1,-15,1,-40,1,-35,1,-33,1,-20,1,-20,1
1364,-21,1,-26,1,-5,1,23,1,-8,1,-16,1,-15,1,-39,1,-35,1,-33,1,-20,1,-20,1
1365,-20,1,-24,1,-4,1,22,1,-8,1,-14,1,-16,1,-41,1,-37,1,-35,1,-21,1,-22,1
1366,-21,1,-27,1,-6,1,24,1,-8,1,-17,1,-16,1,-42,1,-37,1,-34,1,-21,1,-20,1
1367,-19,1,-27,1,-8,1,23,1,-6,1,-18,1,-17,1,-43,1,-37,1,-34,1,-20,1,-21,1
1368,-20,1,-28,1,-8,1,24,1,-6,1,-18,1,-16,1,-41,1,-37,1,-33,1,-19,1,-20,1
1369,-21,1,-27,1,-6,1,24,1,-8,1,-17,1,-17,1,-41,1,-37,1,-33,1,-19,1,-21,1
1370,-21,1,-26,1,-5,1,23,1,-8,1,-16,1,-17,1,-41,1,-37,1,-33,1,-20,1,-21,1
1371,-20,1,-26,1,-6,1,23,1,-7,1,-16,1,-17,1,-42,1,-37,1,-34,1,-20,1,-21,1
1372,-19,1,-27,1,-8,1,23,1,-6,1,-18,1,-17,1,-42,1,-37,1,-34,1,-20,1,-20,1
1373,-21,1,-30,1,-9,1,25,1,-6,1,-20,1,-16,1,-41,1,-37,1,-33,1,-20,1,-21,1
1374,-19,1,-28,1,-9,1,23,1,-5,1,-19,1,-16,1,-43,1,-37,1,-34,1,-21,1,-21,1
1375,-18,1,-27,1,-9,1,22,1,-5,1,-18,1,-17,1,-43,1,-39,1,-36,1,-21,1,-21,1
1376,-19,1,-28,1,-9,1,23,1,-5,1,-19,1,-19,1,-44,1,-39,1,-36,1,-21,1,-22,1
1377,-18,1,-28,1,-10,1,23,1,-4,1,-19,1,-21,1,-45,1,-39,1,-37,1,-21,1,-23,1
1378,-22,1,-28,1,-6,1,25,1,-8,1,-17,1,-19,1,-44,1,-40,1,-36,1,-21,1,-23,1
1379,-23,1,-29,1,-6,1,26,1,-9,1,-18,1,-17,1,-43,1,-39,1,-36,1,-20,1,-21,1
1380,-23,1,-29,1,-6,1,26,1,-9,1,-18,1,-17,1,-43,1,-38,1,-35,1,-20,1,-21,1
1381,-21,1,-30,1,-9,1,25,1,-6,1,-20,1,-18,1,-44,1,-39,1,-36,1,-21,1,-22,1
1382,-20,1,-27,1,-7,1,23,1,-7,1,-17,1,-18,1,-43,1,-40,1,-38,1,-22,1,-24,1
1383,-21,1,-27,1,-6,1,24,1,-8,1,-17,1,-18,1,-43,1,-38,1,-35,1,-20,1,-23,1
1384,-19,1,-26,1,-7,1,22,1,-6,1,-17,1,-17,1,-43,1,-38,1,-35,1,-20,1,-22,1
1385,-18,1,-26,1,-8,1,22,1,-5,1,-17,1,-16,1,-42,1,-38,1,-34,1,-20,1,-22,1
1386,-18,1,-24,1,-6,1,21,1,-6,1,-15,1,-15,1,-40,1,-37,1,-34,1,-19,1,-22,1
1387,-19,1,-24,1,-5,1,21,1,-7,1,-15,1,-14,1,-39,1,-37,1,-33,1,-19,1,-22,1
1388,-19,1,-25,1,-6,1,22,1,-7,1,-16,1,-13,1,-39,1,-36,1,-33,1,-19,1,-21,1
1389,-19,1,-23,1,-4,1,21,1,-8,1,-14,1,-12,1,-39,1,-35,1,-33,1,-19,1,-19,1
1390,-18,1,-20,1,-2,1,19,1,-8,1,-11,1,-12,1,-38,1,-34,1,-31,1,-17,1,-18,1
1391,-16,1,-18,1,-2,1,17,1,-7,1,-10,1,-11,1,-37,1,-34,1,-30,1,-16,1,-17,1
1392,-15,1,-18,1,-3,1,16,1,-6,1,-11,1,-11,1,-38,1,-33,1,-30,1,-14,1,-17,1
1393,-17,1,-18,1,-1,1,17,1,-8,1,-10,1,-11,1,-37,1,-33,1,-30,1,-14,1,-17,1
1394,-14,1,-18,1,-4,1,16,1,-5,1,-11,1,-11,1,-37,1,-33,1,-31,1,-15,1,-18,1
1395,-13,1,-19,1,-6,1,16,1,-4,1,-13,1,-12,1,-36,1,-33,1,-31,1,-16,1,-19,1
1396,-12,1,-20,1,-8,1,16,1,-2,1,-14,1,-12,1,-35,1,-33,1,-30,1,-15,1,-18,1
1397,-11,1,-20,1,-9,1,15,1,-1,1,-15,1,-12,1,-35,1,-34,1,-30,1,-16,1,-17,1
1398,-12,1,-21,1,-9,1,16,1,-2,1,-15,1,-12,1,-35,1,-34,1,-29,1,-15,1,-16,1
1399,-10,1,-20,1,-10,1,15,1,0,1,-15,1,-13,1,-35,1,-34,1,-31,1,-15,1,-15,1
1400,-9,1,-17,1,-8,1,13,1,-1,1,-13,1,-12,1,-35,1,-32,1,-29,1,-13,1,-14,1
1401,-7,1,-14,1,-7,1,10,1,0,1,-11,1,-13,1,-35,1,-32,1,-29,1,-13,1,-13,1
1402,-4,1,-12,1,-8,1,8,1,2,1,-10,1,-13,1,-33,1,-29,1,-26,1,-11,1,-12,1
1403,-4,1,-13,1,-9,1,8,1,2,1,-11,1,-15,1,-32,1,-29,1,-26,1,-10,1,-12,1
1404,-2,1,-13,1,-11,1,7,1,4,1,-12,1,-19,1,-34,1,-31,1,-26,1,-12,1,-13,1
1405,-2,1,-15,1,-13,1,8,1,5,1,-14,1,-21,1,-36,1,-32,1,-27,1,-13,1,-13,1
1406,-3,1,-15,1,-12,1,9,1,4,1,-14,1,-22,1,-36,1,-33,1,-28,1,-13,1,-14,1
1407,-5,1,-18,1,-13,1,11,1,4,1,-16,1,-22,1,-37,1,-33,1,-28,1,-14,1,-15,1
1408,-5,1,-19,1,-14,1,12,1,4,1,-17,1,-21,1,-37,1,-33,1,-29,1,-14,1,-15,1
1409,-4,1,-18,1,-14,1,11,1,5,1,-16,1,-21,1,-38,1,-34,1,-30,1,-14,1,-15,1
1410,-3,1,-17,1,-14,1,10,1,5,1,-16,1,-21,1,-38,1,-35,1,-30,1,-15,1,-16,1
1411,-3,1,-19,1,-16,1,11,1,6,1,-18,1,-22,1,-37,1,-35,1,-30,1,-15,1,-17,1
1412,-2,1,-17,1,-15,1,9,1,6,1,-16,1,-23,1,-36,1,-34,1,-28,1,-13,1,-15,1
1413,-2,1,-16,1,-14,1,9,1,6,1,-15,1,-23,1,-36,1,-33,1,-27,1,-13,1,-15,1
1414,-1,1,-15,1,-14,1,8,1,6,1,-15,1,-24,1,-36,1,-33,1,-27,1,-13,1,-15,1
1415,-1,1,-19,1,-18,1,10,1,8,1,-19,1,-24,1,-38,1,-34,1,-28,1,-15,1,-17,1
1416,-2,1,-21,1,-19,1,11,1,8,1,-20,1,-25,1,-37,1,-36,1,-28,1,-15,1,-17,1
1417,-4,1,-22,1,-18,1,13,1,7,1,-20,1,-24,1,-37,1,-36,1,-29,1,-15,1,-17,1
1418,-3,1,-22,1,-19,1,12,1,8,1,-21,1,-26,1,-38,1,-37,1,-31,1,-17,1,-18,1
1419,-2,1,-22,1,-20,1,12,1,9,1,-21,1,-26,1,-38,1,-38,1,-33,1,-17,1,-19,1
1420,-5,1,-23,1,-18,1,14,1,6,1,-21,1,-25,1,-37,1,-37,1,-32,1,-17,1,-19,1
1421,-5,1,-22,1,-17,1,13,1,6,1,-20,1,-24,1,-37,1,-37,1,-32,1,-17,1,-19,1
1422,-8,1,-23,1,-15,1,15,1,3,1,-19,1,-23,1,-38,1,-37,1,-32,1,-17,1,-20,1
1423,-11,1,-27,1,-16,1,19,1,2,1,-22,1,-22,1,-37,1,-37,1,-33,1,-18,1,-20,1
1424,-12,1,-29,1,-17,1,20,1,2,1,-23,1,-21,1,-37,1,-37,1,-34,1,-20,1,-21,1
1425,-12,1,-26,1,-14,1,19,1,1,1,-20,1,-23,1,-38,1,-39,1,-35,1,-21,1,-24,1
1426,-15,1,-25,1,-10,1,20,1,-3,1,-18,1,-20,1,-37,1,-37,1,-34,1,-20,1,-23,1
1427,-20,1,-29,1,-9,1,24,1,-6,1,-19,1,-19,1,-37,1,-37,1,-35,1,-21,1,-23,1
1428,-24,1,-33,1,-9,1,28,1,-8,1,-21,1,-18,1,-37,1,-39,1,-37,1,-23,1,-25,1
1429,-23,1,-35,1,-12,1,29,1,-6,1,-24,1,-18,1,-39,1,-42,1,-39,1,-25,1,-26,1
1430,-22,1,-34,1,-12,1,28,1,-5,1,-23,1,-19,1,-41,1,-45,1,-40,1,-27,1,-27,1
1431,-24,1,-36,1,-12,1,30,1,-6,1,-24,1,-20,1,-44,1,-46,1,-41,1,-29,1,-29,1
1432,-23,1,-35,1,-12,1,29,1,-6,1,-24,1,-20,1,-44,1,-46,1,-42,1,-29,1,-30,1
1433,-23,1,-36,1,-13,1,29,1,-5,1,-25,1,-20,1,-44,1,-47,1,-43,1,-28,1,-29,1
1434,-24,1,-37,1,-13,1,30,1,-6,1,-25,1,-20,1,-45,1,-47,1,-43,1,-28,1,-30,1
1435,-25,1,-36,1,-11,1,30,1,-7,1,-24,1,-20,1,-46,1,-48,1,-44,1,-28,1,-29,1
1436,-27,1,-36,1,-9,1,31,1,-9,1,-23,1,-21,1,-46,1,-48,1,-44,1,-29,1,-29,1
1437,-26,1,-36,1,-10,1,31,1,-8,1,-23,1,-21,1,-46,1,-47,1,-43,1,-28,1,-29,1
1438,-27,1,-36,1,-9,1,31,1,-9,1,-23,1,-21,1,-45,1,-47,1,-43,1,-28,1,-29,1
1439,-27,1,-36,1,-9,1,31,1,-9,1,-23,1,-23,1,-47,1,-49,1,-44,1,-29,1,-30,1
1440,-27,1,-36,1,-9,1,31,1,-9,1,-23,1,-22,1,-47,1,-48,1,-44,1,-30,1,-30,1
1441,-28,1,-38,1,-10,1,33,1,-9,1,-24,1,-21,1,-47,1,-47,1,-44,1,-30,1,-30,1
1442,-26,1,-40,1,-14,1,33,1,-6,1,-27,1,-22,1,-48,1,-49,1,-45,1,-31,1,-31,1
1443,-24,1,-38,1,-14,1,31,1,-5,1,-26,1,-21,1,-47,1,-49,1,-44,1,-30,1,-31,1
1444,-24,1,-38,1,-14,1,31,1,-5,1,-26,1,-21,1,-46,1,-48,1,-44,1,-30,1,-32,1
1445,-25,1,-38,1,-13,1,31,1,-6,1,-26,1,-21,1,-46,1,-48,1,-44,1,-30,1,-31,1
1446,-25,1,-39,1,-14,1,32,1,-6,1,-27,1,-21,1,-46,1,-48,1,-45,1,-30,1,-31,1
1447,-25,1,-39,1,-14,1,32,1,-6,1,-27,1,-21,1,-47,1,-49,1,-45,1,-30,1,-32,1
1448,-24,1,-38,1,-14,1,31,1,-5,1,-26,1,-22,1,-47,1,-49,1,-45,1,-31,1,-32,1
1449,-22,1,-36,1,-14,1,29,1,-4,1,-25,1,-23,1,-48,1,-49,1,-46,1,-32,1,-33,1
1450,-23,1,-39,1,-16,1,31,1,-4,1,-28,1,-21,1,-47,1,-47,1,-44,1,-29,1,-31,1
1451,-24,1,-38,1,-14,1,31,1,-5,1,-26,1,-21,1,-47,1,-47,1,-44,1,-29,1,-32,1
1452,-22,1,-35,1,-13,1,28,1,-5,1,-24,1,-23,1,-46,1,-49,1,-44,1,-30,1,-32,1
1453,-22,1,-37,1,-15,1,29,1,-4,1,-26,1,-24,1,-47,1,-50,1,-45,1,-31,1,-33,1
1454,-23,1,-37,1,-14,1,30,1,-5,1,-26,1,-22,1,-46,1,-49,1,-43,1,-31,1,-32,1
1455,-23,1,-35,1,-12,1,29,1,-6,1,-24,1,-20,1,-43,1,-46,1,-41,1,-30,1,-32,1
1456,-26,1,-33,1,-7,1,29,1,-10,1,-20,1,-14,1,-40,1,-44,1,-41,1,-30,1,-32,1
1457,-30,1,-33,1,-3,1,31,1,-14,1,-18,1,-5,1,-34,1,-41,1,-40,1,-30,1,-32,1
1458,-28,1,-31,1,-3,1,29,1,-13,1,-17,1,1,1,-27,1,-38,1,-39,1,-27,1,-32,1
1459,-24,1,-28,1,-4,1,26,1,-10,1,-16,1,5,1,-18,1,-32,1,-34,1,-24,1,-29,1
1460,-21,1,-27,1,-6,1,24,1,-8,1,-17,1,11,1,-5,1,-21,1,-27,1,-19,1,-25,1
1461,-14,1,-28,1,-14,1,21,1,0,1,-21,1,18,1,12,1,-7,1,-17,1,-13,1,-22,1
1462,-4,1,-26,1,-22,1,15,1,9,1,-24,1,29,1,38,1,12,1,-3,1,-4,1,-14,1
1463,8,1,-20,1,-28,1,6,1,18,1,-24,1,42,1,65,1,36,1,17,1,9,1,-4,1
1464,21,1,-12,1,-33,1,-4,1,27,1,-22,1,51,1,96,1,66,1,42,1,27,1,10,1
1465,32,1,-3,1,-35,1,-14,1,33,1,-19,1,59,1,126,1,99,1,70,1,47,1,25,1
1466,52,1,8,1,-44,1,-30,1,48,1,-18,1,52,1,147,1,132,1,99,1,68,1,43,1
1467,75,1,23,1,-52,1,-49,1,64,1,-14,1,32,1,159,1,162,1,129,1,92,1,64,1
1468,95,1,41,1,-54,1,-68,1,75,1,-6,1,2,1,156,1,186,1,157,1,117,1,88,1
1469,114,1,64,1,-50,1,-89,1,82,1,7,1,-42,1,131,1,196,1,176,1,139,1,110,1
1470,132,1,84,1,-48,1,-108,1,90,1,18,1,-91,1,91,1,194,1,188,1,156,1,128,1
1471,141,1,91,1,-50,1,-116,1,96,1,21,1,-130,1,59,1,189,1,191,1,162,1,136,1
1472,137,1,84,1,-53,1,-110,1,95,1,16,1,-148,1,32,1,178,1,183,1,157,1,133,1
1473,120,1,61,1,-59,1,-90,1,90,1,1,1,-151,1,6,1,150,1,154,1,128,1,110,1
1474,97,1,35,1,-62,1,-66,1,80,1,-13,1,-155,1,-33,1,97,1,103,1,86,1,77,1
1475,70,1,19,1,-51,1,-44,1,61,1,-16,1,-163,1,-89,1,31,1,47,1,46,1,47,1
1476,39,1,4,1,-35,1,-21,1,37,1,-15,1,-165,1,-147,1,-35,1,-9,1,6,1,16,1
1477,14,1,-10,1,-24,1,-2,1,19,1,-17,1,-170,1,-200,1,-97,1,-58,1,-28,1,-11,1
1478,-9,1,-27,1,-18,1,18,1,4,1,-23,1,-177,1,-255,1,-154,1,-101,1,-54,1,-32,1
1479,-26,1,-37,1,-11,1,31,1,-8,1,-24,1,-188,1,-292,1,-195,1,-132,1,-76,1,-51,1
1480,-39,1,-45,1,-6,1,42,1,-17,1,-26,1,-200,1,-310,1,-219,1,-150,1,-90,1,-63,1
1481,-50,1,-52,1,-2,1,51,1,-24,1,-27,1,-199,1,-305,1,-221,1,-155,1,-96,1,-69,1
1482,-56,1,-53,1,3,1,54,1,-30,1,-25,1,-194,1,-291,1,-216,1,-153,1,-98,1,-73,1
1483,-59,1,-48,1,11,1,53,1,-35,1,-19,1,-187,1,-279,1,-209,1,-150,1,-97,1,-74,1
1484,-65,1,-51,1,14,1,58,1,-40,1,-19,1,-178,1,-263,1,-200,1,-146,1,-97,1,-76,1
1485,-67,1,-55,1,12,1,61,1,-40,1,-22,1,-169,1,-245,1,-192,1,-145,1,-98,1,-79,1
1486,-68,1,-52,1,16,1,60,1,-42,1,-18,1,-157,1,-225,1,-180,1,-138,1,-96,1,-79,1
1487,-66,1,-49,1,17,1,57,1,-42,1,-16,1,-141,1,-202,1,-164,1,-126,1,-88,1,-73,1
1488,-58,1,-41,1,17,1,49,1,-38,1,-12,1,-125,1,-177,1,-143,1,-111,1,-77,1,-66,1
1489,-52,1,-36,1,16,1,44,1,-34,1,-10,1,-106,1,-153,1,-126,1,-100,1,-68,1,-59,1
1490,-45,1,-29,1,16,1,37,1,-31,1,-7,1,-89,1,-130,1,-108,1,-87,1,-58,1,-53,1
1491,-39,1,-22,1,17,1,30,1,-28,1,-3,1,-71,1,-107,1,-91,1,-74,1,-48,1,-47,1
1492,-34,1,-21,1,13,1,27,1,-24,1,-4,1,-57,1,-89,1,-76,1,-63,1,-41,1,-41,1
1493,-28,1,-19,1,9,1,23,1,-19,1,-5,1,-46,1,-75,1,-65,1,-55,1,-35,1,-37,1
1494,-24,1,-19,1,5,1,21,1,-15,1,-7,1,-38,1,-63,1,-57,1,-49,1,-31,1,-33,1
1495,-19,1,-21,1,-2,1,20,1,-9,1,-12,1,-31,1,-53,1,-52,1,-45,1,-31,1,-33,1
1496,-16,1,-25,1,-9,1,20,1,-4,1,-17,1,-25,1,-46,1,-47,1,-42,1,-29,1,-32,1
1497,-16,1,-27,1,-11,1,21,1,-3,1,-19,1,-22,1,-41,1,-44,1,-40,1,-29,1,-32,1
1498,-17,1,-28,1,-11,1,22,1,-3,1,-20,1,-19,1,-39,1,-42,1,-39,1,-28,1,-32,1
1499,-14,1,-25,1,-11,1,19,1,-2,1,-18,1,-20,1,-39,1,-43,1,-41,1,-29,1,-33,1
1500,-14,1,-26,1,-12,1,20,1,-1,1,-19,1,-19,1,-37,1,-41,1,-39,1,-29,1,-32,1
1501,-15,1,-27,1,-12,1,21,1,-2,1,-20,1,-17,1,-35,1,-40,1,-38,1,-28,1,-31,1
1502,-14,1,-28,1,-14,1,21,1,0,1,-21,1,-16,1,-33,1,-38,1,-37,1,-27,1,-31,1
1503,-11,1,-27,1,-16,1,19,1,2,1,-22,1,-16,1,-32,1,-37,1,-36,1,-26,1,-30,1
1504,-12,1,-26,1,-14,1,19,1,1,1,-20,1,-16,1,-30,1,-36,1,-35,1,-26,1,-30,1
1505,-12,1,-27,1,-15,1,19,1,1,1,-21,1,-15,1,-29,1,-34,1,-34,1,-25,1,-29,1
1506,-12,1,-26,1,-14,1,19,1,1,1,-20,1,-14,1,-29,1,-32,1,-32,1,-24,1,-29,1
1507,-11,1,-25,1,-14,1,18,1,1,1,-20,1,-14,1,-28,1,-32,1,-32,1,-24,1,-29,1
1508,-10,1,-25,1,-15,1,17,1,2,1,-20,1,-12,1,-26,1,-30,1,-31,1,-23,1,-27,1
1509,-10,1,-26,1,-16,1,18,1,3,1,-21,1,-11,1,-26,1,-30,1,-31,1,-22,1,-28,1
1510,-11,1,-25,1,-14,1,18,1,1,1,-20,1,-12,1,-25,1,-31,1,-31,1,-23,1,-29,1
1511,-9,1,-24,1,-15,1,16,1,3,1,-20,1,-10,1,-23,1,-28,1,-28,1,-21,1,-27,1
1512,-8,1,-23,1,-15,1,15,1,3,1,-19,1,-11,1,-23,1,-28,1,-29,1,-22,1,-27,1
1513,-8,1,-23,1,-15,1,15,1,3,1,-19,1,-12,1,-23,1,-28,1,-29,1,-22,1,-28,1
1514,-7,1,-24,1,-17,1,15,1,5,1,-21,1,-12,1,-23,1,-27,1,-28,1,-22,1,-28,1
1515,-7,1,-24,1,-17,1,15,1,5,1,-21,1,-11,1,-21,1,-25,1,-26,1,-21,1,-26,1
1516,-7,1,-23,1,-16,1,15,1,4,1,-20,1,-9,1,-20,1,-26,1,-25,1,-19,1,-26,1
1517,-8,1,-23,1,-15,1,15,1,3,1,-19,1,-9,1,-19,1,-25,1,-25,1,-19,1,-25,1
1518,-6,1,-22,1,-16,1,14,1,5,1,-19,1,-8,1,-17,1,-23,1,-25,1,-18,1,-25,1
1519,-6,1,-23,1,-17,1,14,1,5,1,-20,1,-8,1,-17,1,-23,1,-24,1,-17,1,-25,1
1520,-6,1,-22,1,-16,1,14,1,5,1,-19,1,-9,1,-17,1,-24,1,-24,1,-17,1,-24,1
1521,-4,1,-20,1,-16,1,12,1,6,1,-18,1,-8,1,-16,1,-23,1,-24,1,-18,1,-24,1
1522,-3,1,-20,1,-17,1,11,1,7,1,-19,1,-7,1,-15,1,-22,1,-23,1,-17,1,-24,1
1523,-4,1,-20,1,-16,1,12,1,6,1,-18,1,-7,1,-15,1,-22,1,-22,1,-17,1,-24,1
1524,-4,1,-21,1,-17,1,12,1,6,1,-19,1,-7,1,-13,1,-22,1,-22,1,-17,1,-23,1
1525,-3,1,-19,1,-16,1,11,1,6,1,-18,1,-5,1,-12,1,-20,1,-20,1,-16,1,-24,1
1526,-3,1,-18,1,-15,1,10,1,6,1,-17,1,-6,1,-12,1,-20,1,-21,1,-15,1,-23,1
1527,-3,1,-18,1,-15,1,10,1,6,1,-17,1,-7,1,-12,1,-19,1,-21,1,-16,1,-24,1
1528,-1,1,-17,1,-16,1,9,1,7,1,-17,1,-6,1,-10,1,-18,1,-20,1,-16,1,-24,1
1529,0,1,-15,1,-15,1,7,1,7,1,-15,1,-6,1,-9,1,-17,1,-20,1,-14,1,-22,1
1530,0,1,-15,1,-15,1,7,1,7,1,-15,1,-7,1,-10,1,-18,1,-20,1,-14,1,-23,1
1531,-1,1,-19,1,-18,1,10,1,8,1,-19,1,-5,1,-8,1,-16,1,-18,1,-13,1,-21,1
1532,0,1,-16,1,-16,1,8,1,8,1,-16,1,-4,1,-4,1,-14,1,-16,1,-12,1,-20,1
1533,0,1,-15,1,-15,1,7,1,7,1,-15,1,-4,1,-4,1,-13,1,-15,1,-12,1,-20,1
1534,0,1,-14,1,-14,1,7,1,7,1,-14,1,-5,1,-4,1,-15,1,-18,1,-15,1,-22,1
1535,2,1,-13,1,-15,1,5,1,8,1,-14,1,-3,1,-1,1,-12,1,-16,1,-12,1,-20,1
1536,4,1,-12,1,-16,1,4,1,10,1,-14,1,-4,1,-1,1,-12,1,-15,1,-13,1,-20,1
1537,2,1,-12,1,-14,1,5,1,8,1,-13,1,-4,1,1,1,-10,1,-14,1,-12,1,-20,1
1538,2,1,-14,1,-16,1,6,1,9,1,-15,1,-2,1,2,1,-7,1,-12,1,-9,1,-17,1
1539,4,1,-14,1,-18,1,5,1,11,1,-16,1,-2,1,2,1,-8,1,-12,1,-9,1,-17,1
1540,4,1,-12,1,-16,1,4,1,10,1,-14,1,-2,1,4,1,-6,1,-11,1,-8,1,-17,1
1541,4,1,-11,1,-15,1,3,1,9,1,-13,1,-1,1,5,1,-6,1,-11,1,-8,1,-17,1
1542,5,1,-10,1,-15,1,2,1,10,1,-12,1,-2,1,6,1,-6,1,-11,1,-8,1,-17,1
1543,7,1,-9,1,-16,1,1,1,11,1,-12,1,-2,1,8,1,-3,1,-9,1,-6,1,-15,1
1544,7,1,-8,1,-15,1,0,1,11,1,-11,1,-2,1,9,1,-2,1,-9,1,-5,1,-15,1
1545,8,1,-8,1,-16,1,0,1,12,1,-12,1,-1,1,11,1,0,1,-7,1,-4,1,-14,1
1546,8,1,-7,1,-15,1,0,1,11,1,-11,1,-1,1,13,1,1,1,-6,1,-4,1,-14,1
1547,7,1,-6,1,-13,1,0,1,10,1,-9,1,0,1,14,1,2,1,-4,1,-3,1,-12,1
1548,6,1,-8,1,-14,1,1,1,10,1,-11,1,1,1,16,1,4,1,-3,1,-3,1,-11,1
1549,11,1,-6,1,-17,1,-2,1,14,1,-11,1,2,1,16,1,4,1,-1,1,-1,1,-10,1
1550,12,1,-5,1,-17,1,-3,1,14,1,-11,1,2,1,18,1,7,1,0,1,-1,1,-11,1
1551,12,1,-3,1,-15,1,-4,1,13,1,-9,1,1,1,19,1,7,1,0,1,0,1,-11,1
1552,11,1,0,1,-11,1,-5,1,11,1,-5,1,2,1,22,1,9,1,1,1,1,1,-9,1
1553,11,1,1,1,-10,1,-6,1,11,1,-4,1,3,1,25,1,12,1,3,1,3,1,-8,1
1554,15,1,1,1,-14,1,-8,1,15,1,-6,1,2,1,24,1,11,1,4,1,2,1,-9,1
1555,15,1,2,1,-13,1,-8,1,14,1,-5,1,2,1,26,1,14,1,6,1,3,1,-8,1
1556,13,1,1,1,-12,1,-7,1,13,1,-5,1,5,1,30,1,17,1,9,1,5,1,-5,1
1557,13,1,2,1,-11,1,-7,1,12,1,-4,1,5,1,32,1,19,1,11,1,7,1,-5,1
1558,15,1,5,1,-10,1,-10,1,13,1,-2,1,5,1,34,1,20,1,11,1,8,1,-4,1
1559,17,1,4,1,-13,1,-10,1,15,1,-4,1,6,1,35,1,21,1,12,1,9,1,-3,1
1560,17,1,4,1,-13,1,-10,1,15,1,-4,1,8,1,38,1,25,1,15,1,10,1,-2,1
1561,19,1,6,1,-13,1,-12,1,16,1,-3,1,8,1,39,1,25,1,16,1,11,1,-1,1
1562,20,1,7,1,-13,1,-13,1,17,1,-3,1,7,1,41,1,26,1,17,1,11,1,-1,1
1563,22,1,9,1,-13,1,-15,1,18,1,-2,1,8,1,42,1,29,1,19,1,12,1,0,1
1564,22,1,8,1,-14,1,-15,1,18,1,-3,1,10,1,45,1,31,1,21,1,14,1,2,1
1565,23,1,10,1,-13,1,-16,1,18,1,-1,1,9,1,47,1,33,1,22,1,16,1,2,1
1566,24,1,12,1,-12,1,-18,1,18,1,0,1,9,1,49,1,35,1,24,1,17,1,4,1
1567,24,1,12,1,-12,1,-18,1,18,1,0,1,10,1,50,1,36,1,24,1,18,1,5,1
1568,26,1,14,1,-12,1,-20,1,19,1,1,1,10,1,52,1,36,1,26,1,19,1,6,1
1569,27,1,17,1,-10,1,-22,1,19,1,4,1,11,1,53,1,37,1,28,1,21,1,8,1
1570,29,1,18,1,-11,1,-23,1,20,1,4,1,11,1,54,1,38,1,30,1,23,1,9,1
1571,30,1,19,1,-11,1,-24,1,21,1,4,1,11,1,57,1,42,1,31,1,25,1,10,1
1572,32,1,20,1,-12,1,-26,1,22,1,4,1,12,1,60,1,44,1,33,1,27,1,11,1
1573,32,1,22,1,-10,1,-27,1,21,1,6,1,11,1,60,1,46,1,35,1,27,1,13,1
1574,34,1,25,1,-9,1,-29,1,22,1,8,1,10,1,62,1,49,1,36,1,28,1,13,1
1575,35,1,25,1,-10,1,-30,1,23,1,8,1,12,1,62,1,48,1,35,1,28,1,13,1
1576,35,1,26,1,-9,1,-30,1,22,1,9,1,10,1,62,1,48,1,35,1,28,1,13,1
1577,36,1,26,1,-10,1,-31,1,23,1,8,1,11,1,64,1,49,1,37,1,30,1,15,1
1578,37,1,26,1,-11,1,-31,1,24,1,8,1,11,1,63,1,50,1,39,1,30,1,16,1
1579,38,1,28,1,-10,1,-33,1,24,1,9,1,11,1,62,1,50,1,40,1,32,1,17,1
1580,37,1,31,1,-6,1,-34,1,22,1,13,1,10,1,62,1,50,1,40,1,34,1,18,1
1581,37,1,32,1,-5,1,-34,1,21,1,14,1,8,1,62,1,50,1,39,1,34,1,19,1
1582,38,1,32,1,-6,1,-35,1,22,1,13,1,8,1,62,1,51,1,40,1,35,1,20,1
1583,40,1,31,1,-9,1,-35,1,25,1,11,1,8,1,61,1,51,1,39,1,35,1,20,1
1584,40,1,32,1,-8,1,-36,1,24,1,12,1,9,1,60,1,49,1,40,1,35,1,20,1
1585,39,1,35,1,-4,1,-37,1,22,1,16,1,8,1,60,1,49,1,40,1,34,1,19,1
1586,40,1,36,1,-4,1,-38,1,22,1,16,1,8,1,59,1,49,1,41,1,34,1,20,1
1587,39,1,34,1,-5,1,-36,1,22,1,15,1,8,1,58,1,49,1,42,1,34,1,21,1
1588,39,1,33,1,-6,1,-36,1,23,1,14,1,7,1,58,1,49,1,42,1,34,1,21,1
1589,41,1,34,1,-7,1,-37,1,24,1,14,1,6,1,56,1,48,1,41,1,33,1,20,1
1590,40,1,37,1,-3,1,-38,1,22,1,17,1,5,1,55,1,47,1,39,1,32,1,19,1
1591,36,1,37,1,1,1,-36,1,18,1,19,1,5,1,54,1,46,1,39,1,32,1,19,1
1592,36,1,35,1,-1,1,-35,1,19,1,17,1,7,1,56,1,47,1,41,1,34,1,21,1
1593,37,1,34,1,-3,1,-35,1,20,1,16,1,6,1,54,1,47,1,41,1,34,1,21,1
1594,38,1,35,1,-3,1,-36,1,21,1,16,1,4,1,52,1,46,1,39,1,33,1,19,1
1595,37,1,35,1,-2,1,-36,1,20,1,17,1,3,1,50,1,45,1,39,1,32,1,20,1
1596,37,1,37,1,0,1,-37,1,19,1,19,1,3,1,50,1,45,1,39,1,32,1,19,1
1597,37,1,37,1,0,1,-37,1,19,1,19,1,2,1,48,1,44,1,38,1,32,1,19,1
1598,35,1,37,1,2,1,-36,1,17,1,20,1,2,1,46,1,42,1,37,1,30,1,18,1
1599,35,1,36,1,1,1,-35,1,17,1,19,1,3,1,46,1,41,1,36,1,30,1,18,1
1600,34,1,34,1,0,1,-34,1,17,1,17,1,5,1,43,1,39,1,35,1,29,1,16,1
1601,32,1,35,1,3,1,-33,1,15,1,19,1,6,1,42,1,39,1,35,1,28,1,17,1
1602,31,1,35,1,4,1,-33,1,14,1,20,1,5,1,40,1,38,1,34,1,26,1,16,1
1603,31,1,35,1,4,1,-33,1,14,1,20,1,4,1,37,1,36,1,32,1,24,1,14,1
1604,29,1,33,1,4,1,-31,1,13,1,19,1,4,1,34,1,33,1,30,1,23,1,13,1
1605,27,1,31,1,4,1,-29,1,12,1,18,1,4,1,31,1,32,1,30,1,23,1,13,1
1606,23,1,29,1,6,1,-26,1,9,1,18,1,5,1,30,1,30,1,28,1,22,1,11,1
1607,22,1,30,1,8,1,-26,1,7,1,19,1,4,1,27,1,26,1,24,1,19,1,8,1
1608,23,1,28,1,5,1,-25,1,9,1,17,1,5,1,25,1,23,1,20,1,17,1,6,1
1609,23,1,25,1,2,1,-24,1,11,1,14,1,4,1,24,1,21,1,19,1,15,1,4,1
1610,19,1,25,1,6,1,-22,1,7,1,16,1,5,1,20,1,19,1,17,1,13,1,2,1
1611,17,1,23,1,6,1,-20,1,6,1,15,1,5,1,16,1,17,1,14,1,11,1,1,1
1612,17,1,20,1,3,1,-18,1,7,1,12,1,3,1,11,1,13,1,11,1,8,1,-2,1
1613,15,1,18,1,3,1,-16,1,6,1,11,1,2,1,8,1,9,1,8,1,4,1,-5,1
1614,11,1,15,1,4,1,-13,1,4,1,10,1,3,1,7,1,8,1,7,1,5,1,-5,1
1615,10,1,16,1,6,1,-13,1,2,1,11,1,1,1,2,1,5,1,5,1,3,1,-5,1
1616,9,1,15,1,6,1,-12,1,2,1,11,1,-1,1,0,1,2,1,3,1,2,1,-7,1
1617,9,1,14,1,5,1,-11,1,2,1,10,1,-1,1,-4,1,-2,1,-2,1,-2,1,-11,1
1618,4,1,15,1,11,1,-9,1,-3,1,13,1,-2,1,-7,1,-6,1,-5,1,-5,1,-13,1
1619,1,1,13,1,12,1,-7,1,-5,1,13,1,-2,1,-10,1,-8,1,-7,1,-7,1,-15,1
1620,2,1,8,1,6,1,-5,1,-2,1,7,1,-2,1,-12,1,-9,1,-9,1,-9,1,-16,1
1621,1,1,7,1,6,1,-4,1,-2,1,7,1,-3,1,-14,1,-11,1,-11,1,-11,1,-18,1
1622,0,1,7,1,7,1,-3,1,-3,1,7,1,-4,1,-16,1,-14,1,-13,1,-12,1,-19,1
1623,1,1,10,1,9,1,-5,1,-4,1,10,1,-7,1,-19,1,-16,1,-14,1,-13,1,-21,1
1624,1,1,13,1,12,1,-7,1,-5,1,13,1,-8,1,-22,1,-19,1,-16,1,-15,1,-23,1
1625,1,1,13,1,12,1,-7,1,-5,1,13,1,-11,1,-24,1,-21,1,-18,1,-17,1,-23,1
1626,1,1,14,1,13,1,-7,1,-6,1,14,1,-12,1,-26,1,-22,1,-20,1,-18,1,-24,1
1627,0,1,14,1,14,1,-7,1,-7,1,14,1,-12,1,-27,1,-23,1,-20,1,-19,1,-25,1
1628,-2,1,13,1,15,1,-5,1,-8,1,14,1,-11,1,-28,1,-24,1,-20,1,-19,1,-25,1
1629,-2,1,12,1,14,1,-5,1,-8,1,13,1,-12,1,-30,1,-25,1,-23,1,-21,1,-27,1
1630,-2,1,12,1,14,1,-5,1,-8,1,13,1,-13,1,-31,1,-26,1,-24,1,-21,1,-27,1
1631,-1,1,11,1,12,1,-5,1,-6,1,11,1,-13,1,-30,1,-27,1,-24,1,-21,1,-27,1
1632,-1,1,10,1,11,1,-4,1,-6,1,10,1,-12,1,-29,1,-27,1,-24,1,-21,1,-28,1
1633,-2,1,11,1,13,1,-4,1,-7,1,12,1,-13,1,-30,1,-27,1,-24,1,-22,1,-29,1
1634,-1,1,8,1,9,1,-3,1,-5,1,8,1,-12,1,-31,1,-28,1,-26,1,-23,1,-28,1
1635,-1,1,7,1,8,1,-3,1,-4,1,7,1,-12,1,-32,1,-28,1,-26,1,-23,1,-28,1
1636,-2,1,7,1,9,1,-2,1,-5,1,8,1,-13,1,-32,1,-28,1,-26,1,-23,1,-28,1
1637,-2,1,9,1,11,1,-3,1,-6,1,10,1,-15,1,-33,1,-29,1,-27,1,-23,1,-29,1
1638,-2,1,9,1,11,1,-3,1,-6,1,10,1,-15,1,-34,1,-30,1,-27,1,-24,1,-30,1
1639,-2,1,10,1,12,1,-4,1,-7,1,11,1,-15,1,-34,1,-32,1,-27,1,-24,1,-30,1
1640,-2,1,9,1,11,1,-3,1,-6,1,10,1,-14,1,-34,1,-31,1,-27,1,-24,1,-30,1
1641,-1,1,8,1,9,1,-3,1,-5,1,8,1,-15,1,-33,1,-31,1,-26,1,-24,1,-30,1
1642,-1,1,9,1,10,1,-4,1,-5,1,9,1,-15,1,-34,1,-31,1,-27,1,-24,1,-31,1
1643,-1,1,11,1,12,1,-5,1,-6,1,11,1,-16,1,-35,1,-32,1,-29,1,-24,1,-30,1
1644,-2,1,10,1,12,1,-4,1,-7,1,11,1,-16,1,-34,1,-32,1,-28,1,-23,1,-30,1
1645,-1,1,12,1,13,1,-5,1,-7,1,12,1,-18,1,-36,1,-33,1,-29,1,-24,1,-31,1
1646,0,1,12,1,12,1,-6,1,-6,1,12,1,-18,1,-36,1,-33,1,-28,1,-24,1,-32,1
1647,0,1,12,1,12,1,-6,1,-6,1,12,1,-17,1,-36,1,-32,1,-28,1,-24,1,-32,1
1648,-2,1,14,1,16,1,-6,1,-9,1,15,1,-16,1,-36,1,-32,1,-28,1,-25,1,-31,1
1649,-1,1,14,1,15,1,-6,1,-8,1,14,1,-16,1,-35,1,-32,1,-28,1,-26,1,-32,1
1650,-1,1,13,1,14,1,-6,1,-7,1,13,1,-16,1,-35,1,-32,1,-28,1,-26,1,-34,1
1651,-2,1,12,1,14,1,-5,1,-8,1,13,1,-14,1,-36,1,-33,1,-28,1,-27,1,-34,1
1652,-1,1,12,1,13,1,-5,1,-7,1,12,1,-14,1,-36,1,-33,1,-28,1,-27,1,-34,1
1653,-1,1,10,1,11,1,-4,1,-6,1,10,1,-14,1,-35,1,-33,1,-27,1,-25,1,-32,1
1654,-2,1,11,1,13,1,-4,1,-7,1,12,1,-13,1,-35,1,-32,1,-27,1,-25,1,-32,1
1655,-1,1,11,1,12,1,-5,1,-6,1,11,1,-12,1,-34,1,-32,1,-27,1,-25,1,-32,1
1656,-1,1,10,1,11,1,-4,1,-6,1,10,1,-12,1,-34,1,-32,1,-28,1,-25,1,-32,1
1657,-2,1,10,1,12,1,-4,1,-7,1,11,1,-13,1,-35,1,-32,1,-27,1,-25,1,-32,1
1658,0,1,12,1,12,1,-6,1,-6,1,12,1,-13,1,-34,1,-31,1,-26,1,-25,1,-32,1
1659,-1,1,11,1,12,1,-5,1,-6,1,11,1,-12,1,-33,1,-31,1,-26,1,-25,1,-32,1
1660,0,1,10,1,10,1,-5,1,-5,1,10,1,-13,1,-35,1,-31,1,-25,1,-24,1,-30,1
1661,0,1,9,1,9,1,-4,1,-4,1,9,1,-13,1,-34,1,-30,1,-25,1,-24,1,-30,1
1662,-2,1,9,1,11,1,-3,1,-6,1,10,1,-12,1,-34,1,-31,1,-25,1,-24,1,-31,1
1663,-4,1,9,1,13,1,-2,1,-8,1,11,1,-13,1,-35,1,-32,1,-25,1,-25,1,-31,1
1664,-2,1,10,1,12,1,-4,1,-7,1,11,1,-14,1,-35,1,-33,1,-28,1,-26,1,-32,1
1665,0,1,10,1,10,1,-5,1,-5,1,10,1,-15,1,-36,1,-33,1,-28,1,-26,1,-33,1
1666,-1,1,9,1,10,1,-4,1,-5,1,9,1,-15,1,-36,1,-33,1,-27,1,-25,1,-32,1
1667,-3,1,9,1,12,1,-3,1,-7,1,10,1,-14,1,-36,1,-32,1,-27,1,-25,1,-31,1
1668,-4,1,9,1,13,1,-2,1,-8,1,11,1,-14,1,-35,1,-32,1,-27,1,-25,1,-31,1
1669,-2,1,9,1,11,1,-3,1,-6,1,10,1,-12,1,-34,1,-32,1,-25,1,-23,1,-30,1
1670,0,1,10,1,10,1,-5,1,-5,1,10,1,-13,1,-34,1,-32,1,-25,1,-23,1,-30,1
1671,-1,1,11,1,12,1,-5,1,-6,1,11,1,-14,1,-33,1,-32,1,-27,1,-23,1,-30,1
1672,0,1,11,1,11,1,-5,1,-5,1,11,1,-13,1,-34,1,-32,1,-27,1,-23,1,-31,1
1673,1,1,13,1,12,1,-7,1,-5,1,13,1,-15,1,-36,1,-33,1,-28,1,-24,1,-32,1
1674,0,1,11,1,11,1,-5,1,-5,1,11,1,-14,1,-36,1,-32,1,-26,1,-22,1,-31,1
1675,-1,1,12,1,13,1,-5,1,-7,1,12,1,-14,1,-35,1,-31,1,-26,1,-22,1,-32,1
1676,0,1,13,1,13,1,-6,1,-6,1,13,1,-16,1,-37,1,-33,1,-28,1,-24,1,-32,1
1677,1,1,11,1,10,1,-6,1,-4,1,11,1,-15,1,-35,1,-31,1,-25,1,-23,1,-31,1
1678,0,1,11,1,11,1,-5,1,-5,1,11,1,-15,1,-35,1,-32,1,-26,1,-24,1,-31,1
1679,1,1,12,1,11,1,-6,1,-5,1,12,1,-15,1,-37,1,-34,1,-28,1,-26,1,-31,1
1680,1,1,12,1,11,1,-6,1,-5,1,12,1,-14,1,-37,1,-33,1,-27,1,-24,1,-30,1
1681,1,1,12,1,11,1,-6,1,-5,1,12,1,-13,1,-38,1,-33,1,-27,1,-24,1,-31,1
1682,0,1,12,1,12,1,-6,1,-6,1,12,1,-13,1,-37,1,-34,1,-27,1,-25,1,-31,1
1683,0,1,12,1,12,1,-6,1,-6,1,12,1,-13,1,-38,1,-33,1,-27,1,-24,1,-31,1
1684,1,1,14,1,13,1,-7,1,-6,1,14,1,-14,1,-38,1,-34,1,-28,1,-24,1,-31,1
1685,2,1,14,1,12,1,-8,1,-5,1,13,1,-16,1,-39,1,-34,1,-29,1,-25,1,-31,1
1686,-1,1,14,1,15,1,-6,1,-8,1,14,1,-16,1,-40,1,-35,1,-29,1,-26,1,-32,1
1687,-2,1,15,1,17,1,-6,1,-9,1,16,1,-14,1,-39,1,-33,1,-29,1,-25,1,-31,1
1688,0,1,13,1,13,1,-6,1,-6,1,13,1,-14,1,-39,1,-35,1,-29,1,-25,1,-31,1
1689,-1,1,12,1,13,1,-5,1,-7,1,12,1,-13,1,-39,1,-35,1,-29,1,-25,1,-31,1
1690,-1,1,12,1,13,1,-5,1,-7,1,12,1,-13,1,-39,1,-35,1,-28,1,-25,1,-31,1
1691,0,1,11,1,11,1,-5,1,-5,1,11,1,-15,1,-41,1,-35,1,-28,1,-26,1,-32,1
1692,2,1,9,1,7,1,-5,1,-2,1,8,1,-15,1,-41,1,-35,1,-28,1,-26,1,-33,1
1693,0,1,9,1,9,1,-4,1,-4,1,9,1,-14,1,-41,1,-34,1,-28,1,-25,1,-32,1
1694,-2,1,9,1,11,1,-3,1,-6,1,10,1,-14,1,-41,1,-34,1,-28,1,-25,1,-31,1
1695,-2,1,9,1,11,1,-3,1,-6,1,10,1,-14,1,-41,1,-35,1,-28,1,-25,1,-31,1
1696,0,1,9,1,9,1,-4,1,-4,1,9,1,-15,1,-41,1,-34,1,-28,1,-25,1,-30,1
1697,0,1,9,1,9,1,-4,1,-4,1,9,1,-15,1,-41,1,-35,1,-28,1,-25,1,-30,1
1698,0,1,8,1,8,1,-4,1,-4,1,8,1,-15,1,-40,1,-35,1,-28,1,-24,1,-30,1
1699,-1,1,9,1,10,1,-4,1,-5,1,9,1,-15,1,-40,1,-36,1,-29,1,-24,1,-31,1
1700,0,1,9,1,9,1,-4,1,-4,1,9,1,-13,1,-41,1,-36,1,-31,1,-25,1,-32,1
1701,-1,1,7,1,8,1,-3,1,-4,1,7,1,-12,1,-39,1,-35,1,-29,1,-24,1,-31,1
1702,-1,1,9,1,10,1,-4,1,-5,1,9,1,-13,1,-39,1,-35,1,-29,1,-24,1,-31,1
1703,1,1,11,1,10,1,-6,1,-4,1,11,1,-15,1,-42,1,-36,1,-29,1,-25,1,-33,1
1704,0,1,9,1,9,1,-4,1,-4,1,9,1,-15,1,-41,1,-36,1,-29,1,-24,1,-31,1
1705,0,1,10,1,10,1,-5,1,-5,1,10,1,-16,1,-40,1,-36,1,-29,1,-24,1,-31,1
1706,0,1,10,1,10,1,-5,1,-5,1,10,1,-16,1,-41,1,-36,1,-30,1,-25,1,-31,1
1707,-2,1,8,1,10,1,-3,1,-6,1,9,1,-13,1,-40,1,-35,1,-29,1,-23,1,-30,1
1708,-1,1,9,1,10,1,-4,1,-5,1,9,1,-13,1,-41,1,-38,1,-31,1,-25,1,-32,1
1709,-1,1,7,1,8,1,-3,1,-4,1,7,1,-13,1,-41,1,-38,1,-31,1,-25,1,-32,1
1710,-2,1,6,1,8,1,-2,1,-5,1,7,1,-13,1,-40,1,-36,1,-29,1,-24,1,-32,1
1711,-3,1,7,1,10,1,-2,1,-6,1,8,1,-14,1,-41,1,-36,1,-30,1,-23,1,-33,1
1712,-2,1,7,1,9,1,-2,1,-5,1,8,1,-14,1,-40,1,-35,1,-29,1,-22,1,-32,1
1713,-1,1,7,1,8,1,-3,1,-4,1,7,1,-15,1,-41,1,-37,1,-30,1,-24,1,-32,1
1714,-3,1,7,1,10,1,-2,1,-6,1,8,1,-14,1,-41,1,-36,1,-29,1,-23,1,-31,1
1715,0,1,8,1,8,1,-4,1,-4,1,8,1,-14,1,-41,1,-37,1,-29,1,-24,1,-31,1
1716,0,1,9,1,9,1,-4,1,-4,1,9,1,-14,1,-41,1,-37,1,-30,1,-24,1,-32,1
1717,0,1,10,1,10,1,-5,1,-5,1,10,1,-13,1,-39,1,-37,1,-29,1,-23,1,-31,1
1718,-2,1,9,1,11,1,-3,1,-6,1,10,1,-12,1,-38,1,-35,1,-29,1,-23,1,-30,1
1719,-1,1,9,1,10,1,-4,1,-5,1,9,1,-12,1,-39,1,-35,1,-28,1,-22,1,-30,1
1720,-2,1,11,1,13,1,-4,1,-7,1,12,1,-11,1,-37,1,-34,1,-28,1,-22,1,-28,1
1721,1,1,12,1,11,1,-6,1,-5,1,12,1,-10,1,-37,1,-35,1,-28,1,-22,1,-29,1
1722,1,1,11,1,10,1,-6,1,-4,1,11,1,-10,1,-39,1,-36,1,-29,1,-22,1,-29,1
1723,-1,1,9,1,10,1,-4,1,-5,1,9,1,-10,1,-38,1,-37,1,-29,1,-22,1,-29,1
1724,-1,1,11,1,12,1,-5,1,-6,1,11,1,-11,1,-38,1,-35,1,-28,1,-21,1,-27,1
1725,0,1,15,1,15,1,-7,1,-7,1,15,1,-11,1,-38,1,-34,1,-26,1,-18,1,-26,1
1726,0,1,18,1,18,1,-9,1,-9,1,18,1,-9,1,-38,1,-34,1,-26,1,-18,1,-26,1
1727,0,1,17,1,17,1,-8,1,-8,1,17,1,-8,1,-37,1,-34,1,-26,1,-17,1,-25,1
1728,1,1,19,1,18,1,-10,1,-8,1,19,1,-8,1,-35,1,-33,1,-25,1,-16,1,-25,1
1729,2,1,22,1,20,1,-12,1,-9,1,21,1,-8,1,-34,1,-31,1,-24,1,-15,1,-23,1
1730,1,1,22,1,21,1,-11,1,-10,1,22,1,-5,1,-31,1,-30,1,-22,1,-14,1,-22,1
1731,1,1,23,1,22,1,-12,1,-10,1,23,1,-6,1,-34,1,-31,1,-24,1,-17,1,-24,1
1732,2,1,21,1,19,1,-11,1,-8,1,20,1,-5,1,-34,1,-30,1,-24,1,-17,1,-22,1
1733,2,1,18,1,16,1,-10,1,-7,1,17,1,-3,1,-31,1,-29,1,-23,1,-15,1,-22,1
1734,3,1,20,1,17,1,-11,1,-7,1,19,1,-5,1,-30,1,-28,1,-22,1,-15,1,-21,1
1735,5,1,20,1,15,1,-12,1,-5,1,18,1,-5,1,-29,1,-27,1,-21,1,-15,1,-21,1
1736,6,1,19,1,13,1,-12,1,-3,1,16,1,-7,1,-32,1,-28,1,-20,1,-16,1,-21,1
1737,7,1,21,1,14,1,-14,1,-3,1,18,1,-7,1,-32,1,-27,1,-20,1,-15,1,-20,1
1738,9,1,23,1,14,1,-16,1,-2,1,19,1,-6,1,-30,1,-26,1,-19,1,-13,1,-20,1
1739,9,1,25,1,16,1,-17,1,-3,1,21,1,-7,1,-29,1,-24,1,-17,1,-11,1,-18,1
1740,10,1,25,1,15,1,-17,1,-2,1,20,1,-8,1,-27,1,-22,1,-15,1,-10,1,-17,1
1741,13,1,28,1,15,1,-20,1,-1,1,22,1,-10,1,-28,1,-23,1,-16,1,-11,1,-17,1
1742,13,1,28,1,15,1,-20,1,-1,1,22,1,-13,1,-31,1,-24,1,-17,1,-12,1,-17,1
1743,14,1,26,1,12,1,-20,1,1,1,19,1,-12,1,-30,1,-25,1,-17,1,-13,1,-16,1
1744,14,1,22,1,8,1,-18,1,3,1,15,1,-12,1,-31,1,-26,1,-19,1,-13,1,-17,1
1745,14,1,21,1,7,1,-17,1,4,1,14,1,-12,1,-30,1,-25,1,-18,1,-12,1,-17,1
1746,13,1,21,1,8,1,-17,1,3,1,15,1,-12,1,-29,1,-25,1,-18,1,-12,1,-17,1
1747,12,1,19,1,7,1,-15,1,3,1,13,1,-13,1,-29,1,-25,1,-19,1,-13,1,-19,1
1748,13,1,17,1,4,1,-15,1,5,1,11,1,-12,1,-29,1,-24,1,-19,1,-14,1,-19,1
1749,13,1,16,1,3,1,-14,1,5,1,10,1,-13,1,-29,1,-26,1,-19,1,-14,1,-20,1
1750,14,1,18,1,4,1,-16,1,5,1,11,1,-13,1,-28,1,-26,1,-18,1,-13,1,-18,1
