TS,I,If,II,IIf,III,IIIf,aVR,aVRf,aVL,aVLf,aVF,aVFf,V1,V1f,V2,V2f,V3,V3f,V4,V4f,V5,V5f,V6,V6f
1,-11,1,-1,1,10,1,6,1,-11,1,4,1,10,1,-9,1,-9,1,-24,1,-11,1,-14,1
2,-8,1,-1,1,7,1,4,1,-8,1,3,1,9,1,-10,1,-11,1,-24,1,-14,1,-16,1
3,-11,1,-1,1,10,1,6,1,-11,1,4,1,9,1,-8,1,-9,1,-22,1,-12,1,-16,1
4,-15,1,-1,1,14,1,8,1,-15,1,6,1,9,1,-6,1,-7,1,-20,1,-11,1,-14,1
5,-18,1,-1,1,17,1,9,1,-18,1,8,1,8,1,-4,1,-7,1,-18,1,-10,1,-13,1
6,-18,1,0,1,18,1,9,1,-18,1,9,1,8,1,-4,1,-7,1,-17,1,-10,1,-13,1
7,-20,1,0,1,20,1,10,1,-20,1,10,1,9,1,-5,1,-8,1,-17,1,-10,1,-13,1
8,-22,1,0,1,22,1,11,1,-22,1,11,1,10,1,-6,1,-9,1,-18,1,-10,1,-13,1
9,-24,1,-1,1,23,1,12,1,-24,1,11,1,11,1,-7,1,-11,1,-19,1,-10,1,-14,1
10,-20,1,1,1,21,1,9,1,-20,1,11,1,12,1,-7,1,-11,1,-19,1,-10,1,-13,1
11,-16,1,2,1,18,1,7,1,-17,1,10,1,11,1,-7,1,-11,1,-19,1,-11,1,-14,1
12,-13,1,2,1,15,1,5,1,-14,1,8,1,9,1,-7,1,-11,1,-19,1,-13,1,-15,1
13,-15,1,0,1,15,1,7,1,-15,1,7,1,8,1,-8,1,-12,1,-19,1,-14,1,-15,1
14,-17,1,-1,1,16,1,9,1,-17,1,7,1,8,1,-8,1,-13,1,-20,1,-16,1,-16,1
15,-19,1,-2,1,17,1,10,1,-18,1,7,1,9,1,-8,1,-13,1,-21,1,-15,1,-17,1
16,-17,1,-2,1,15,1,9,1,-16,1,6,1,9,1,-7,1,-12,1,-22,1,-14,1,-16,1
17,-15,1,0,1,15,1,7,1,-15,1,7,1,12,1,-5,1,-11,1,-20,1,-13,1,-16,1
18,-14,1,0,1,14,1,7,1,-14,1,7,1,14,1,-4,1,-10,1,-19,1,-13,1,-16,1
19,-14,1,1,1,15,1,6,1,-14,1,8,1,16,1,-4,1,-9,1,-19,1,-13,1,-17,1
20,-12,1,2,1,14,1,5,1,-13,1,8,1,17,1,-4,1,-9,1,-19,1,-13,1,-16,1
21,-10,1,3,1,13,1,3,1,-11,1,8,1,16,1,-6,1,-11,1,-20,1,-15,1,-17,1
22,-14,1,0,1,14,1,7,1,-14,1,7,1,16,1,-6,1,-10,1,-18,1,-15,1,-15,1
23,-16,1,-2,1,14,1,9,1,-15,1,6,1,16,1,-5,1,-10,1,-18,1,-14,1,-15,1
24,-15,1,-2,1,13,1,8,1,-14,1,5,1,16,1,-3,1,-9,1,-17,1,-15,1,-15,1
25,-15,1,-2,1,13,1,8,1,-14,1,5,1,17,1,0,1,-8,1,-16,1,-14,1,-15,1
26,-15,1,-3,1,12,1,9,1,-14,1,4,1,16,1,-1,1,-8,1,-17,1,-16,1,-17,1
27,-11,1,-2,1,9,1,6,1,-10,1,3,1,15,1,-2,1,-9,1,-19,1,-18,1,-19,1
28,-7,1,-2,1,5,1,4,1,-6,1,1,1,14,1,-3,1,-10,1,-20,1,-18,1,-19,1
29,-7,1,-2,1,5,1,4,1,-6,1,1,1,15,1,-3,1,-10,1,-19,1,-17,1,-17,1
30,-8,1,-2,1,6,1,5,1,-7,1,2,1,14,1,-4,1,-10,1,-17,1,-15,1,-15,1
31,-15,1,-1,1,14,1,8,1,-15,1,6,1,16,1,-3,1,-8,1,-14,1,-10,1,-12,1
32,-20,1,-2,1,18,1,11,1,-19,1,8,1,18,1,-2,1,-6,1,-10,1,-8,1,-10,1
33,-21,1,-2,1,19,1,11,1,-20,1,8,1,17,1,-4,1,-7,1,-10,1,-9,1,-10,1
34,-15,1,0,1,15,1,7,1,-15,1,7,1,15,1,-6,1,-8,1,-13,1,-12,1,-13,1
35,-12,1,0,1,12,1,6,1,-12,1,6,1,13,1,-7,1,-10,1,-16,1,-14,1,-16,1
36,-16,1,-1,1,15,1,8,1,-16,1,7,1,15,1,-5,1,-10,1,-15,1,-14,1,-14,1
37,-21,1,-3,1,18,1,12,1,-20,1,7,1,16,1,-3,1,-10,1,-16,1,-13,1,-13,1
38,-22,1,-4,1,18,1,13,1,-20,1,7,1,16,1,-2,1,-10,1,-16,1,-12,1,-13,1
39,-19,1,-5,1,14,1,12,1,-17,1,4,1,16,1,-3,1,-10,1,-16,1,-12,1,-14,1
40,-17,1,-5,1,12,1,11,1,-15,1,3,1,18,1,-2,1,-8,1,-14,1,-13,1,-13,1
41,-16,1,-4,1,12,1,10,1,-14,1,4,1,19,1,-2,1,-8,1,-14,1,-15,1,-14,1
42,-12,1,-3,1,9,1,7,1,-11,1,3,1,19,1,-1,1,-8,1,-15,1,-16,1,-14,1
43,-14,1,-3,1,11,1,8,1,-13,1,4,1,18,1,-2,1,-8,1,-15,1,-15,1,-13,1
44,-17,1,-3,1,14,1,10,1,-16,1,5,1,19,1,-1,1,-6,1,-13,1,-12,1,-11,1
45,-17,1,-3,1,14,1,10,1,-16,1,5,1,20,1,-1,1,-6,1,-12,1,-12,1,-11,1
46,-17,1,-3,1,14,1,10,1,-16,1,5,1,19,1,-1,1,-7,1,-13,1,-12,1,-10,1
47,-14,1,-2,1,12,1,8,1,-13,1,5,1,19,1,-2,1,-9,1,-12,1,-11,1,-11,1
48,-13,1,-2,1,11,1,7,1,-12,1,4,1,19,1,-2,1,-9,1,-11,1,-10,1,-10,1
49,-16,1,-5,1,11,1,10,1,-14,1,3,1,16,1,-3,1,-11,1,-12,1,-10,1,-10,1
50,-17,1,-8,1,9,1,12,1,-13,1,0,1,15,1,-4,1,-12,1,-11,1,-9,1,-10,1
51,-16,1,-6,1,10,1,11,1,-13,1,2,1,15,1,-3,1,-11,1,-9,1,-8,1,-9,1
52,-11,1,-3,1,8,1,7,1,-10,1,2,1,15,1,-4,1,-12,1,-9,1,-8,1,-8,1
53,-10,1,-1,1,9,1,5,1,-10,1,4,1,16,1,-4,1,-11,1,-10,1,-8,1,-7,1
54,-10,1,-1,1,9,1,5,1,-10,1,4,1,17,1,-4,1,-11,1,-10,1,-8,1,-8,1
55,-11,1,-1,1,10,1,6,1,-11,1,4,1,15,1,-5,1,-11,1,-11,1,-9,1,-8,1
56,-7,1,-1,1,6,1,4,1,-7,1,2,1,15,1,-6,1,-12,1,-13,1,-11,1,-9,1
57,0,1,-1,1,-1,1,0,1,0,1,-1,1,16,1,-7,1,-13,1,-13,1,-10,1,-8,1
58,4,1,-2,1,-6,1,-1,1,5,1,-4,1,15,1,-8,1,-14,1,-14,1,-11,1,-10,1
59,0,1,-3,1,-3,1,1,1,1,1,-3,1,16,1,-7,1,-14,1,-13,1,-11,1,-11,1
60,-2,1,-5,1,-3,1,3,1,0,1,-4,1,15,1,-8,1,-15,1,-15,1,-14,1,-13,1
61,-6,1,-7,1,-1,1,6,1,-3,1,-4,1,14,1,-8,1,-15,1,-17,1,-19,1,-17,1
62,-10,1,-7,1,3,1,8,1,-7,1,-2,1,15,1,-6,1,-14,1,-18,1,-21,1,-19,1
63,-12,1,-5,1,7,1,8,1,-10,1,1,1,17,1,-3,1,-13,1,-17,1,-21,1,-16,1
64,-15,1,-5,1,10,1,10,1,-13,1,2,1,17,1,-5,1,-13,1,-16,1,-19,1,-14,1
65,-14,1,-5,1,9,1,9,1,-12,1,2,1,16,1,-7,1,-14,1,-15,1,-16,1,-12,1
66,-11,1,-5,1,6,1,8,1,-9,1,0,1,15,1,-9,1,-15,1,-13,1,-13,1,-10,1
67,-15,1,-6,1,9,1,10,1,-12,1,1,1,13,1,-12,1,-17,1,-12,1,-10,1,-9,1
68,-9,1,-3,1,6,1,6,1,-8,1,1,1,10,1,-14,1,-18,1,-12,1,-9,1,-9,1
69,-3,1,2,1,5,1,0,1,-4,1,3,1,8,1,-15,1,-18,1,-10,1,-8,1,-9,1
70,-8,1,3,1,11,1,2,1,-9,1,7,1,7,1,-15,1,-15,1,-7,1,-8,1,-8,1
71,-8,1,2,1,10,1,3,1,-9,1,6,1,3,1,-17,1,-16,1,-9,1,-12,1,-9,1
72,-10,1,0,1,10,1,5,1,-10,1,5,1,-1,1,-19,1,-16,1,-10,1,-14,1,-11,1
73,-15,1,-2,1,13,1,8,1,-14,1,5,1,-2,1,-20,1,-16,1,-9,1,-12,1,-10,1
74,-15,1,0,1,15,1,7,1,-15,1,7,1,-4,1,-22,1,-16,1,-9,1,-11,1,-9,1
75,-17,1,0,1,17,1,8,1,-17,1,8,1,-4,1,-21,1,-14,1,-8,1,-8,1,-6,1
76,-16,1,1,1,17,1,7,1,-16,1,9,1,-5,1,-22,1,-14,1,-7,1,-4,1,-4,1
77,-13,1,1,1,14,1,6,1,-13,1,7,1,-6,1,-24,1,-14,1,-5,1,-1,1,-3,1
78,-9,1,1,1,10,1,4,1,-9,1,5,1,-6,1,-24,1,-14,1,-2,1,3,1,0,1
79,-7,1,2,1,9,1,2,1,-8,1,5,1,-5,1,-23,1,-9,1,5,1,9,1,5,1
80,-7,1,5,1,12,1,1,1,-9,1,8,1,-4,1,-19,1,1,1,17,1,16,1,12,1
81,-4,1,12,1,16,1,-4,1,-10,1,14,1,-4,1,-13,1,24,1,39,1,33,1,24,1
82,1,1,22,1,21,1,-11,1,-10,1,22,1,-5,1,-5,1,56,1,69,1,60,1,44,1
83,6,1,32,1,26,1,-19,1,-10,1,29,1,-7,1,2,1,84,1,99,1,92,1,68,1
84,15,1,45,1,30,1,-30,1,-7,1,38,1,-9,1,8,1,105,1,127,1,130,1,98,1
85,26,1,64,1,38,1,-45,1,-6,1,51,1,-10,1,15,1,120,1,155,1,174,1,132,1
86,36,1,82,1,46,1,-59,1,-5,1,64,1,-11,1,22,1,134,1,186,1,223,1,171,1
87,44,1,102,1,58,1,-73,1,-7,1,80,1,-14,1,25,1,143,1,218,1,276,1,215,1
88,52,1,123,1,71,1,-87,1,-9,1,97,1,-18,1,23,1,145,1,249,1,329,1,260,1
89,63,1,139,1,76,1,-101,1,-6,1,108,1,-28,1,17,1,140,1,271,1,370,1,296,1
90,76,1,147,1,71,1,-111,1,3,1,109,1,-35,1,10,1,128,1,281,1,391,1,316,1
91,85,1,148,1,63,1,-116,1,11,1,106,1,-42,1,3,1,111,1,280,1,393,1,319,1
92,89,1,143,1,54,1,-116,1,18,1,99,1,-48,1,-7,1,85,1,267,1,379,1,307,1
93,91,1,131,1,40,1,-111,1,26,1,86,1,-56,1,-24,1,48,1,236,1,344,1,281,1
94,85,1,113,1,28,1,-99,1,29,1,71,1,-62,1,-45,1,2,1,187,1,286,1,240,1
95,70,1,93,1,23,1,-81,1,24,1,58,1,-67,1,-72,1,-55,1,110,1,197,1,177,1
96,53,1,72,1,19,1,-62,1,17,1,46,1,-70,1,-97,1,-115,1,22,1,99,1,109,1
97,39,1,49,1,10,1,-44,1,15,1,30,1,-73,1,-114,1,-161,1,-53,1,18,1,50,1
98,28,1,26,1,-2,1,-27,1,15,1,12,1,-72,1,-123,1,-189,1,-107,1,-40,1,7,1
99,19,1,9,1,-10,1,-14,1,15,1,0,1,-68,1,-122,1,-199,1,-140,1,-79,1,-23,1
100,12,1,-4,1,-16,1,-4,1,14,1,-10,1,-62,1,-118,1,-196,1,-155,1,-104,1,-45,1
101,2,1,-13,1,-15,1,5,1,8,1,-14,1,-55,1,-108,1,-184,1,-157,1,-116,1,-59,1
102,-6,1,-16,1,-10,1,11,1,2,1,-13,1,-48,1,-97,1,-167,1,-147,1,-115,1,-63,1
103,-14,1,-15,1,-1,1,14,1,-7,1,-8,1,-39,1,-86,1,-148,1,-130,1,-107,1,-62,1
104,-18,1,-14,1,4,1,16,1,-11,1,-5,1,-31,1,-74,1,-127,1,-112,1,-94,1,-57,1
105,-15,1,-13,1,2,1,14,1,-9,1,-6,1,-24,1,-63,1,-106,1,-93,1,-81,1,-53,1
106,-19,1,-12,1,7,1,15,1,-13,1,-3,1,-15,1,-49,1,-84,1,-74,1,-66,1,-45,1
107,-21,1,-10,1,11,1,15,1,-16,1,0,1,-7,1,-37,1,-65,1,-58,1,-53,1,-37,1
108,-15,1,-6,1,9,1,10,1,-12,1,1,1,0,1,-28,1,-50,1,-46,1,-43,1,-30,1
109,-11,1,-5,1,6,1,8,1,-9,1,0,1,3,1,-21,1,-39,1,-38,1,-37,1,-27,1
110,-12,1,-5,1,7,1,8,1,-10,1,1,1,4,1,-17,1,-30,1,-32,1,-33,1,-24,1
111,-14,1,-3,1,11,1,8,1,-13,1,4,1,6,1,-13,1,-22,1,-25,1,-30,1,-20,1
112,-12,1,0,1,12,1,6,1,-12,1,6,1,7,1,-13,1,-18,1,-20,1,-29,1,-20,1
113,-12,1,-1,1,11,1,6,1,-12,1,5,1,7,1,-13,1,-18,1,-18,1,-30,1,-22,1
114,-13,1,-2,1,11,1,7,1,-12,1,4,1,7,1,-11,1,-16,1,-16,1,-31,1,-24,1
115,-15,1,-4,1,11,1,9,1,-13,1,3,1,8,1,-9,1,-14,1,-14,1,-29,1,-23,1
116,-16,1,-6,1,10,1,11,1,-13,1,2,1,10,1,-8,1,-14,1,-15,1,-27,1,-23,1
117,-14,1,-6,1,8,1,10,1,-11,1,1,1,12,1,-7,1,-13,1,-14,1,-25,1,-22,1
118,-14,1,-4,1,10,1,9,1,-12,1,3,1,12,1,-6,1,-12,1,-12,1,-22,1,-19,1
119,-14,1,-3,1,11,1,8,1,-13,1,4,1,11,1,-6,1,-12,1,-10,1,-20,1,-17,1
120,-11,1,-3,1,8,1,7,1,-10,1,2,1,9,1,-7,1,-11,1,-10,1,-20,1,-17,1
121,-13,1,-2,1,11,1,7,1,-12,1,4,1,9,1,-8,1,-10,1,-8,1,-21,1,-17,1
122,-13,1,0,1,13,1,6,1,-13,1,6,1,10,1,-8,1,-9,1,-5,1,-19,1,-16,1
123,-14,1,2,1,16,1,6,1,-15,1,9,1,12,1,-7,1,-7,1,-3,1,-18,1,-15,1
124,-16,1,0,1,16,1,8,1,-16,1,8,1,14,1,-6,1,-5,1,-1,1,-17,1,-13,1
125,-18,1,-2,1,16,1,10,1,-17,1,7,1,15,1,-6,1,-5,1,0,1,-15,1,-12,1
126,-15,1,-4,1,11,1,9,1,-13,1,3,1,15,1,-6,1,-5,1,0,1,-15,1,-12,1
127,-14,1,-6,1,8,1,10,1,-11,1,1,1,14,1,-7,1,-5,1,-1,1,-15,1,-11,1
128,-13,1,-8,1,5,1,10,1,-9,1,-2,1,14,1,-6,1,-5,1,-2,1,-16,1,-12,1
129,-8,1,-7,1,1,1,7,1,-5,1,-3,1,14,1,-5,1,-5,1,-2,1,-17,1,-13,1
130,-10,1,-6,1,4,1,8,1,-7,1,-1,1,14,1,-4,1,-5,1,-2,1,-18,1,-14,1
131,-9,1,-5,1,4,1,7,1,-7,1,-1,1,13,1,-4,1,-5,1,-2,1,-19,1,-15,1
132,-9,1,-4,1,5,1,6,1,-7,1,0,1,13,1,-4,1,-4,1,0,1,-20,1,-15,1
133,-14,1,-5,1,9,1,9,1,-12,1,2,1,13,1,-4,1,-3,1,1,1,-20,1,-15,1
134,-15,1,-6,1,9,1,10,1,-12,1,1,1,13,1,-4,1,-2,1,2,1,-19,1,-15,1
135,-13,1,-6,1,7,1,9,1,-10,1,0,1,12,1,-2,1,-1,1,2,1,-17,1,-13,1
136,-10,1,-5,1,5,1,7,1,-8,1,0,1,14,1,-1,1,0,1,4,1,-14,1,-11,1
137,-9,1,-5,1,4,1,7,1,-7,1,-1,1,15,1,0,1,2,1,4,1,-14,1,-10,1
138,-13,1,-5,1,8,1,9,1,-11,1,1,1,19,1,3,1,5,1,5,1,-12,1,-9,1
139,-14,1,-4,1,10,1,9,1,-12,1,3,1,22,1,5,1,7,1,6,1,-10,1,-7,1
140,-15,1,-4,1,11,1,9,1,-13,1,3,1,23,1,7,1,8,1,7,1,-10,1,-7,1
141,-15,1,-3,1,12,1,9,1,-14,1,4,1,24,1,9,1,7,1,7,1,-10,1,-6,1
142,-9,1,-2,1,7,1,5,1,-8,1,2,1,25,1,9,1,7,1,6,1,-11,1,-8,1
143,-5,1,-2,1,3,1,3,1,-4,1,0,1,24,1,11,1,8,1,5,1,-12,1,-9,1
144,-2,1,-2,1,0,1,2,1,-1,1,-1,1,23,1,13,1,9,1,3,1,-14,1,-12,1
145,-2,1,-3,1,-1,1,2,1,-1,1,-2,1,22,1,14,1,9,1,4,1,-14,1,-12,1
146,-6,1,-4,1,2,1,5,1,-4,1,-1,1,24,1,17,1,11,1,7,1,-10,1,-11,1
147,-10,1,-6,1,4,1,8,1,-7,1,-1,1,27,1,20,1,15,1,9,1,-8,1,-8,1
148,-9,1,-5,1,4,1,7,1,-7,1,-1,1,28,1,22,1,19,1,12,1,-4,1,-6,1
149,-9,1,-5,1,4,1,7,1,-7,1,-1,1,30,1,25,1,21,1,15,1,-2,1,-4,1
150,-11,1,-5,1,6,1,8,1,-9,1,0,1,32,1,27,1,23,1,16,1,0,1,-3,1
151,-13,1,-5,1,8,1,9,1,-11,1,1,1,32,1,28,1,23,1,18,1,1,1,-2,1
152,-11,1,-4,1,7,1,7,1,-9,1,1,1,31,1,26,1,24,1,19,1,2,1,0,1
153,-12,1,-4,1,8,1,8,1,-10,1,2,1,32,1,27,1,27,1,21,1,5,1,3,1
154,-11,1,-2,1,9,1,6,1,-10,1,3,1,32,1,26,1,28,1,23,1,7,1,5,1
155,-8,1,-1,1,7,1,4,1,-8,1,3,1,32,1,25,1,29,1,26,1,11,1,7,1
156,-2,1,3,1,5,1,0,1,-3,1,4,1,30,1,23,1,29,1,28,1,12,1,8,1
157,1,1,4,1,3,1,-2,1,-1,1,4,1,26,1,19,1,29,1,28,1,12,1,8,1
158,3,1,6,1,3,1,-4,1,0,1,5,1,24,1,17,1,30,1,29,1,11,1,6,1
159,5,1,6,1,1,1,-5,1,2,1,4,1,19,1,15,1,29,1,27,1,8,1,3,1
160,2,1,5,1,3,1,-3,1,0,1,4,1,15,1,13,1,28,1,26,1,7,1,2,1
161,-3,1,4,1,7,1,0,1,-5,1,5,1,13,1,11,1,28,1,27,1,7,1,3,1
162,-7,1,3,1,10,1,2,1,-8,1,6,1,11,1,9,1,27,1,30,1,9,1,5,1
163,-9,1,1,1,10,1,4,1,-9,1,5,1,8,1,4,1,28,1,34,1,11,1,7,1
164,-12,1,-1,1,11,1,6,1,-12,1,5,1,7,1,2,1,29,1,38,1,16,1,11,1
165,-10,1,0,1,10,1,5,1,-10,1,5,1,4,1,0,1,30,1,39,1,19,1,13,1
166,-9,1,0,1,9,1,4,1,-9,1,4,1,3,1,0,1,32,1,40,1,21,1,14,1
167,-8,1,0,1,8,1,4,1,-8,1,4,1,3,1,0,1,35,1,41,1,23,1,14,1
168,-6,1,1,1,7,1,2,1,-6,1,4,1,3,1,0,1,37,1,42,1,24,1,15,1
169,-1,1,2,1,3,1,0,1,-2,1,2,1,2,1,0,1,38,1,43,1,22,1,14,1
170,2,1,5,1,3,1,-3,1,0,1,4,1,2,1,1,1,39,1,46,1,22,1,15,1
171,-2,1,3,1,5,1,0,1,-3,1,4,1,3,1,2,1,42,1,48,1,23,1,15,1
172,-4,1,2,1,6,1,1,1,-5,1,4,1,1,1,1,1,42,1,49,1,24,1,16,1
173,-5,1,0,1,5,1,2,1,-5,1,2,1,0,1,0,1,42,1,50,1,26,1,17,1
174,-4,1,0,1,4,1,2,1,-4,1,2,1,-1,1,0,1,41,1,53,1,29,1,18,1
175,-4,1,1,1,5,1,1,1,-4,1,3,1,0,1,1,1,46,1,58,1,35,1,22,1
176,-1,1,3,1,4,1,-1,1,-2,1,3,1,1,1,2,1,49,1,62,1,40,1,26,1
177,0,1,6,1,6,1,-3,1,-3,1,6,1,3,1,3,1,51,1,65,1,44,1,28,1
178,2,1,7,1,5,1,-4,1,-1,1,6,1,2,1,4,1,53,1,68,1,46,1,30,1
179,5,1,8,1,3,1,-6,1,1,1,6,1,1,1,2,1,53,1,69,1,46,1,29,1
180,8,1,8,1,0,1,-8,1,4,1,4,1,0,1,1,1,53,1,70,1,46,1,29,1
181,6,1,8,1,2,1,-7,1,2,1,5,1,0,1,3,1,55,1,72,1,47,1,31,1
182,2,1,8,1,6,1,-5,1,-2,1,7,1,2,1,6,1,59,1,75,1,49,1,33,1
183,2,1,7,1,5,1,-4,1,-1,1,6,1,2,1,7,1,60,1,76,1,50,1,33,1
184,4,1,8,1,4,1,-6,1,0,1,6,1,1,1,7,1,59,1,76,1,49,1,32,1
185,7,1,9,1,2,1,-8,1,3,1,6,1,0,1,7,1,59,1,76,1,49,1,32,1
186,12,1,12,1,0,1,-12,1,6,1,6,1,-1,1,6,1,58,1,76,1,50,1,32,1
187,13,1,13,1,0,1,-13,1,7,1,7,1,-4,1,4,1,57,1,75,1,49,1,31,1
188,12,1,11,1,-1,1,-11,1,7,1,5,1,-6,1,1,1,55,1,74,1,49,1,32,1
189,8,1,9,1,1,1,-8,1,4,1,5,1,-6,1,0,1,55,1,74,1,50,1,34,1
190,10,1,9,1,-1,1,-9,1,6,1,4,1,-6,1,-1,1,55,1,75,1,49,1,36,1
191,8,1,8,1,0,1,-8,1,4,1,4,1,-6,1,-1,1,55,1,75,1,50,1,36,1
192,7,1,7,1,0,1,-7,1,4,1,4,1,-7,1,-1,1,54,1,76,1,51,1,36,1
193,8,1,8,1,0,1,-8,1,4,1,4,1,-8,1,-2,1,53,1,76,1,53,1,35,1
194,8,1,9,1,1,1,-8,1,4,1,5,1,-8,1,-3,1,52,1,76,1,54,1,35,1
195,4,1,11,1,7,1,-7,1,-1,1,9,1,-5,1,-2,1,53,1,78,1,57,1,38,1
196,5,1,10,1,5,1,-7,1,0,1,8,1,-5,1,-2,1,52,1,77,1,57,1,39,1
197,7,1,11,1,4,1,-9,1,2,1,8,1,-5,1,-2,1,49,1,75,1,55,1,38,1
198,5,1,11,1,6,1,-8,1,0,1,9,1,-4,1,-2,1,48,1,72,1,53,1,38,1
199,6,1,12,1,6,1,-9,1,0,1,9,1,-4,1,-2,1,45,1,71,1,50,1,38,1
200,9,1,17,1,8,1,-13,1,1,1,13,1,-4,1,-3,1,44,1,70,1,49,1,38,1
201,13,1,20,1,7,1,-16,1,3,1,14,1,-5,1,-5,1,42,1,68,1,46,1,36,1
202,16,1,19,1,3,1,-17,1,7,1,11,1,-6,1,-7,1,39,1,64,1,42,1,32,1
203,13,1,16,1,3,1,-14,1,5,1,10,1,-7,1,-8,1,37,1,61,1,40,1,30,1
204,6,1,13,1,7,1,-9,1,0,1,10,1,-7,1,-8,1,35,1,58,1,38,1,28,1
205,4,1,11,1,7,1,-7,1,-1,1,9,1,-9,1,-11,1,31,1,53,1,35,1,27,1
206,3,1,9,1,6,1,-6,1,-1,1,8,1,-11,1,-12,1,28,1,48,1,34,1,27,1
207,1,1,9,1,8,1,-5,1,-3,1,9,1,-11,1,-11,1,26,1,45,1,34,1,28,1
208,3,1,10,1,7,1,-6,1,-2,1,9,1,-10,1,-10,1,24,1,43,1,33,1,28,1
209,7,1,11,1,4,1,-9,1,2,1,8,1,-10,1,-10,1,21,1,40,1,31,1,28,1
210,7,1,12,1,5,1,-9,1,1,1,9,1,-10,1,-12,1,19,1,37,1,29,1,27,1
211,9,1,13,1,4,1,-11,1,3,1,9,1,-8,1,-13,1,15,1,33,1,27,1,25,1
212,7,1,15,1,8,1,-11,1,0,1,12,1,-7,1,-12,1,13,1,32,1,27,1,25,1
213,4,1,15,1,11,1,-9,1,-3,1,13,1,-6,1,-11,1,10,1,30,1,25,1,23,1
214,1,1,11,1,10,1,-6,1,-4,1,11,1,-7,1,-11,1,7,1,28,1,23,1,21,1
215,1,1,8,1,7,1,-4,1,-3,1,8,1,-7,1,-13,1,4,1,25,1,18,1,17,1
216,1,1,8,1,7,1,-4,1,-3,1,8,1,-3,1,-11,1,4,1,22,1,15,1,15,1
217,0,1,8,1,8,1,-4,1,-4,1,8,1,0,1,-9,1,5,1,20,1,12,1,13,1
218,0,1,7,1,7,1,-3,1,-3,1,7,1,0,1,-8,1,4,1,16,1,7,1,9,1
219,0,1,5,1,5,1,-2,1,-2,1,5,1,4,1,-6,1,3,1,13,1,5,1,9,1
220,-1,1,5,1,6,1,-2,1,-3,1,5,1,6,1,-3,1,3,1,11,1,5,1,8,1
221,-5,1,6,1,11,1,0,1,-8,1,8,1,8,1,0,1,3,1,11,1,5,1,9,1
222,-9,1,6,1,15,1,1,1,-12,1,10,1,9,1,3,1,3,1,13,1,7,1,9,1
223,-8,1,5,1,13,1,1,1,-10,1,9,1,9,1,3,1,2,1,12,1,7,1,8,1
224,-10,1,4,1,14,1,3,1,-12,1,9,1,9,1,4,1,1,1,12,1,6,1,8,1
225,-10,1,4,1,14,1,3,1,-12,1,9,1,11,1,5,1,3,1,12,1,4,1,8,1
226,-6,1,7,1,13,1,0,1,-9,1,10,1,12,1,6,1,4,1,11,1,3,1,7,1
227,-3,1,8,1,11,1,-2,1,-7,1,9,1,13,1,7,1,3,1,11,1,2,1,6,1
228,-2,1,8,1,10,1,-3,1,-6,1,9,1,15,1,8,1,3,1,10,1,2,1,6,1
229,-1,1,7,1,8,1,-3,1,-4,1,7,1,16,1,9,1,2,1,9,1,1,1,6,1
230,2,1,6,1,4,1,-4,1,-1,1,5,1,16,1,8,1,2,1,7,1,-1,1,5,1
231,0,1,5,1,5,1,-2,1,-2,1,5,1,17,1,11,1,4,1,8,1,0,1,5,1
232,-5,1,5,1,10,1,0,1,-7,1,7,1,21,1,16,1,7,1,12,1,4,1,8,1
233,-8,1,3,1,11,1,2,1,-9,1,7,1,25,1,20,1,8,1,14,1,6,1,9,1
234,-12,1,2,1,14,1,5,1,-13,1,8,1,28,1,23,1,8,1,13,1,6,1,8,1
235,-12,1,3,1,15,1,4,1,-13,1,9,1,30,1,25,1,9,1,14,1,6,1,6,1
236,-10,1,4,1,14,1,3,1,-12,1,9,1,31,1,25,1,9,1,14,1,5,1,5,1
237,-8,1,4,1,12,1,2,1,-10,1,8,1,31,1,24,1,8,1,14,1,3,1,5,1
238,-8,1,5,1,13,1,1,1,-10,1,9,1,30,1,23,1,8,1,13,1,1,1,5,1
239,-9,1,5,1,14,1,2,1,-11,1,9,1,28,1,21,1,7,1,11,1,1,1,5,1
240,-6,1,6,1,12,1,0,1,-9,1,9,1,26,1,17,1,6,1,10,1,3,1,6,1
241,-5,1,7,1,12,1,-1,1,-8,1,9,1,23,1,14,1,5,1,10,1,4,1,8,1
242,-2,1,9,1,11,1,-3,1,-6,1,10,1,20,1,10,1,3,1,10,1,5,1,9,1
243,0,1,8,1,8,1,-4,1,-4,1,8,1,17,1,6,1,1,1,10,1,4,1,8,1
244,-3,1,7,1,10,1,-2,1,-6,1,8,1,14,1,3,1,-1,1,9,1,4,1,8,1
245,-6,1,7,1,13,1,0,1,-9,1,10,1,10,1,0,1,-2,1,9,1,2,1,6,1
246,-7,1,8,1,15,1,0,1,-11,1,11,1,8,1,-3,1,-3,1,8,1,1,1,5,1
247,-9,1,9,1,18,1,0,1,-13,1,13,1,7,1,-3,1,-3,1,8,1,1,1,6,1
248,-12,1,8,1,20,1,2,1,-16,1,14,1,4,1,-5,1,-3,1,8,1,0,1,5,1
249,-12,1,5,1,17,1,3,1,-14,1,11,1,1,1,-7,1,-5,1,6,1,-2,1,4,1
250,-12,1,3,1,15,1,4,1,-13,1,9,1,0,1,-8,1,-7,1,5,1,-2,1,4,1
251,-9,1,2,1,11,1,3,1,-10,1,6,1,0,1,-10,1,-8,1,3,1,-2,1,4,1
252,-5,1,3,1,8,1,1,1,-6,1,5,1,1,1,-9,1,-8,1,2,1,-2,1,3,1
253,-3,1,2,1,5,1,0,1,-4,1,3,1,1,1,-8,1,-9,1,0,1,-3,1,1,1
254,0,1,1,1,1,1,0,1,0,1,1,1,0,1,-8,1,-11,1,-3,1,-6,1,-1,1
255,1,1,1,1,0,1,-1,1,1,1,1,1,-1,1,-8,1,-13,1,-4,1,-7,1,-3,1
256,-6,1,0,1,6,1,3,1,-6,1,3,1,0,1,-8,1,-12,1,-2,1,-7,1,-2,1
257,-14,1,-1,1,13,1,7,1,-14,1,6,1,0,1,-8,1,-11,1,0,1,-7,1,-1,1
258,-14,1,0,1,14,1,7,1,-14,1,7,1,-1,1,-8,1,-10,1,0,1,-7,1,-3,1
259,-13,1,0,1,13,1,6,1,-13,1,6,1,-1,1,-9,1,-10,1,-1,1,-9,1,-3,1
260,-12,1,1,1,13,1,5,1,-12,1,7,1,1,1,-8,1,-10,1,0,1,-9,1,-2,1
261,-8,1,3,1,11,1,2,1,-9,1,7,1,2,1,-9,1,-10,1,0,1,-10,1,-1,1
262,-5,1,5,1,10,1,0,1,-7,1,7,1,5,1,-8,1,-8,1,0,1,-8,1,0,1
263,-6,1,4,1,10,1,1,1,-8,1,7,1,5,1,-6,1,-5,1,0,1,-7,1,1,1
264,-7,1,1,1,8,1,3,1,-7,1,4,1,3,1,-6,1,-5,1,-2,1,-9,1,-1,1
265,-7,1,0,1,7,1,3,1,-7,1,3,1,2,1,-7,1,-7,1,-5,1,-11,1,-3,1
266,-9,1,-2,1,7,1,5,1,-8,1,2,1,2,1,-7,1,-7,1,-7,1,-14,1,-5,1
267,-9,1,0,1,9,1,4,1,-9,1,4,1,1,1,-8,1,-9,1,-8,1,-14,1,-6,1
268,-8,1,1,1,9,1,3,1,-8,1,5,1,1,1,-8,1,-11,1,-7,1,-12,1,-4,1
269,-9,1,2,1,11,1,3,1,-10,1,6,1,2,1,-9,1,-11,1,-5,1,-11,1,-3,1
270,-11,1,2,1,13,1,4,1,-12,1,7,1,2,1,-8,1,-12,1,-4,1,-10,1,-3,1
271,-12,1,2,1,14,1,5,1,-13,1,8,1,3,1,-7,1,-12,1,-2,1,-8,1,-2,1
272,-16,1,2,1,18,1,7,1,-17,1,10,1,3,1,-5,1,-10,1,1,1,-6,1,0,1
273,-15,1,2,1,17,1,6,1,-16,1,9,1,2,1,-5,1,-9,1,0,1,-6,1,1,1
274,-12,1,2,1,14,1,5,1,-13,1,8,1,1,1,-6,1,-10,1,0,1,-7,1,0,1
275,-7,1,6,1,13,1,0,1,-10,1,9,1,1,1,-6,1,-9,1,0,1,-8,1,0,1
276,-2,1,8,1,10,1,-3,1,-6,1,9,1,2,1,-6,1,-9,1,-1,1,-8,1,0,1
277,-3,1,7,1,10,1,-2,1,-6,1,8,1,2,1,-7,1,-8,1,-2,1,-8,1,0,1
278,-6,1,5,1,11,1,0,1,-8,1,8,1,2,1,-7,1,-9,1,-3,1,-8,1,0,1
279,-5,1,4,1,9,1,0,1,-7,1,6,1,2,1,-8,1,-10,1,-2,1,-8,1,0,1
280,-7,1,2,1,9,1,2,1,-8,1,5,1,2,1,-9,1,-11,1,-2,1,-8,1,-1,1
281,-7,1,1,1,8,1,3,1,-7,1,4,1,0,1,-9,1,-12,1,-2,1,-10,1,-2,1
282,-4,1,1,1,5,1,1,1,-4,1,3,1,0,1,-11,1,-11,1,-2,1,-10,1,-2,1
283,-3,1,2,1,5,1,0,1,-4,1,3,1,1,1,-10,1,-10,1,-3,1,-10,1,-1,1
284,-5,1,2,1,7,1,1,1,-6,1,4,1,3,1,-9,1,-9,1,-1,1,-8,1,0,1
285,-10,1,3,1,13,1,3,1,-11,1,8,1,5,1,-8,1,-8,1,0,1,-6,1,2,1
286,-11,1,3,1,14,1,4,1,-12,1,8,1,4,1,-9,1,-10,1,1,1,-5,1,3,1
287,-9,1,6,1,15,1,1,1,-12,1,10,1,4,1,-11,1,-10,1,2,1,-5,1,3,1
288,-5,1,9,1,14,1,-2,1,-9,1,11,1,4,1,-10,1,-10,1,2,1,-5,1,2,1
289,-5,1,10,1,15,1,-2,1,-10,1,12,1,4,1,-8,1,-9,1,3,1,-5,1,2,1
290,-6,1,8,1,14,1,-1,1,-10,1,11,1,4,1,-8,1,-9,1,1,1,-7,1,0,1
291,-5,1,6,1,11,1,0,1,-8,1,8,1,2,1,-8,1,-10,1,-1,1,-9,1,-2,1
292,-10,1,7,1,17,1,1,1,-13,1,12,1,5,1,-5,1,-7,1,1,1,-7,1,0,1
293,-9,1,7,1,16,1,1,1,-12,1,11,1,6,1,-3,1,-5,1,1,1,-7,1,0,1
294,-6,1,5,1,11,1,0,1,-8,1,8,1,5,1,-4,1,-5,1,0,1,-8,1,-2,1
295,-7,1,3,1,10,1,2,1,-8,1,6,1,6,1,-3,1,-6,1,0,1,-9,1,-1,1
296,-13,1,1,1,14,1,6,1,-13,1,7,1,7,1,-1,1,-5,1,2,1,-7,1,0,1
297,-16,1,0,1,16,1,8,1,-16,1,8,1,9,1,0,1,-6,1,3,1,-6,1,2,1
298,-16,1,0,1,16,1,8,1,-16,1,8,1,7,1,-2,1,-6,1,3,1,-6,1,0,1
299,-15,1,1,1,16,1,7,1,-15,1,8,1,8,1,-3,1,-5,1,4,1,-5,1,1,1
300,-17,1,0,1,17,1,8,1,-17,1,8,1,7,1,-2,1,-2,1,6,1,-6,1,2,1
301,-10,1,1,1,11,1,4,1,-10,1,6,1,6,1,-2,1,-2,1,5,1,-8,1,0,1
302,-8,1,3,1,11,1,2,1,-9,1,7,1,7,1,0,1,-2,1,5,1,-8,1,0,1
303,-9,1,4,1,13,1,2,1,-11,1,8,1,10,1,3,1,-1,1,7,1,-6,1,1,1
304,-10,1,3,1,13,1,3,1,-11,1,8,1,12,1,6,1,-1,1,7,1,-6,1,1,1
305,-6,1,2,1,8,1,2,1,-7,1,5,1,10,1,5,1,-2,1,6,1,-7,1,-1,1
306,-5,1,1,1,6,1,2,1,-5,1,3,1,11,1,5,1,-2,1,5,1,-9,1,-2,1
307,-6,1,1,1,7,1,2,1,-6,1,4,1,13,1,6,1,-2,1,5,1,-9,1,-1,1
308,-8,1,2,1,10,1,3,1,-9,1,6,1,17,1,7,1,0,1,6,1,-7,1,1,1
309,-14,1,2,1,16,1,6,1,-15,1,9,1,19,1,9,1,0,1,6,1,-5,1,3,1
310,-15,1,2,1,17,1,6,1,-16,1,9,1,21,1,11,1,1,1,7,1,-5,1,5,1
311,-13,1,1,1,14,1,6,1,-13,1,7,1,22,1,13,1,0,1,7,1,-5,1,3,1
312,-10,1,1,1,11,1,4,1,-10,1,6,1,25,1,15,1,0,1,8,1,-5,1,3,1
313,-13,1,0,1,13,1,6,1,-13,1,6,1,28,1,17,1,2,1,9,1,-3,1,4,1
314,-13,1,0,1,13,1,6,1,-13,1,6,1,27,1,17,1,1,1,8,1,-2,1,5,1
315,-12,1,0,1,12,1,6,1,-12,1,6,1,26,1,17,1,1,1,9,1,-1,1,6,1
316,-14,1,1,1,15,1,6,1,-14,1,8,1,26,1,16,1,1,1,10,1,0,1,7,1
317,-14,1,2,1,16,1,6,1,-15,1,9,1,26,1,14,1,1,1,11,1,0,1,7,1
318,-14,1,3,1,17,1,5,1,-15,1,10,1,24,1,10,1,-1,1,9,1,-2,1,6,1
319,-13,1,2,1,15,1,5,1,-14,1,8,1,20,1,6,1,-3,1,6,1,-4,1,4,1
320,-13,1,3,1,16,1,5,1,-14,1,9,1,17,1,5,1,-3,1,4,1,-5,1,2,1
321,-10,1,4,1,14,1,3,1,-12,1,9,1,13,1,3,1,-4,1,3,1,-7,1,2,1
322,-12,1,5,1,17,1,3,1,-14,1,11,1,11,1,3,1,-4,1,4,1,-6,1,2,1
323,-17,1,5,1,22,1,6,1,-19,1,13,1,11,1,4,1,-1,1,9,1,-4,1,5,1
324,-19,1,4,1,23,1,7,1,-21,1,13,1,9,1,1,1,-1,1,8,1,-6,1,3,1
325,-15,1,5,1,20,1,5,1,-17,1,12,1,6,1,-1,1,-3,1,7,1,-8,1,1,1
326,-10,1,7,1,17,1,1,1,-13,1,12,1,7,1,-2,1,-3,1,7,1,-8,1,2,1
327,-9,1,8,1,17,1,0,1,-13,1,12,1,7,1,-3,1,-4,1,7,1,-9,1,2,1
328,-8,1,5,1,13,1,1,1,-10,1,9,1,6,1,-5,1,-4,1,5,1,-10,1,2,1
329,-4,1,5,1,9,1,0,1,-6,1,7,1,5,1,-5,1,-4,1,3,1,-11,1,1,1
330,-4,1,7,1,11,1,-1,1,-7,1,9,1,6,1,-3,1,-3,1,3,1,-9,1,2,1
331,-5,1,9,1,14,1,-2,1,-9,1,11,1,6,1,-1,1,-2,1,4,1,-7,1,3,1
332,-4,1,8,1,12,1,-2,1,-8,1,10,1,5,1,-1,1,-3,1,5,1,-7,1,3,1
333,-5,1,8,1,13,1,-1,1,-9,1,10,1,3,1,-2,1,-3,1,7,1,-6,1,4,1
334,-14,1,7,1,21,1,3,1,-17,1,14,1,2,1,-1,1,-1,1,9,1,-4,1,5,1
335,-17,1,7,1,24,1,5,1,-20,1,15,1,1,1,-1,1,0,1,10,1,-3,1,7,1
336,-17,1,5,1,22,1,6,1,-19,1,13,1,0,1,-1,1,-1,1,8,1,-6,1,6,1
337,-16,1,2,1,18,1,7,1,-17,1,10,1,0,1,-2,1,-4,1,5,1,-9,1,3,1
338,-14,1,2,1,16,1,6,1,-15,1,9,1,0,1,-1,1,-5,1,5,1,-11,1,0,1
339,-10,1,2,1,12,1,4,1,-11,1,7,1,1,1,-1,1,-4,1,5,1,-13,1,-1,1
340,-10,1,3,1,13,1,3,1,-11,1,8,1,3,1,0,1,-4,1,4,1,-13,1,0,1
341,-8,1,4,1,12,1,2,1,-10,1,8,1,2,1,0,1,-4,1,2,1,-12,1,0,1
342,-6,1,4,1,10,1,1,1,-8,1,7,1,2,1,-2,1,-4,1,2,1,-9,1,2,1
343,-6,1,4,1,10,1,1,1,-8,1,7,1,2,1,-2,1,-4,1,4,1,-6,1,4,1
344,-9,1,4,1,13,1,2,1,-11,1,8,1,2,1,-2,1,-3,1,7,1,-4,1,6,1
345,-8,1,3,1,11,1,2,1,-9,1,7,1,0,1,-2,1,-3,1,8,1,-5,1,6,1
346,-8,1,4,1,12,1,2,1,-10,1,8,1,0,1,-1,1,-3,1,9,1,-5,1,6,1
347,-9,1,3,1,12,1,3,1,-10,1,7,1,-1,1,-1,1,-4,1,9,1,-6,1,5,1
348,-8,1,2,1,10,1,3,1,-9,1,6,1,-2,1,-1,1,-6,1,9,1,-6,1,6,1
349,-6,1,5,1,11,1,0,1,-8,1,8,1,-1,1,0,1,-5,1,10,1,-4,1,7,1
350,-4,1,5,1,9,1,0,1,-6,1,7,1,-1,1,-1,1,-5,1,8,1,-5,1,6,1
351,-6,1,0,1,6,1,3,1,-6,1,3,1,-1,1,-3,1,-7,1,4,1,-7,1,4,1
352,-7,1,-1,1,6,1,4,1,-7,1,2,1,0,1,-4,1,-7,1,4,1,-6,1,3,1
353,-4,1,-2,1,2,1,3,1,-3,1,0,1,-1,1,-6,1,-9,1,3,1,-9,1,0,1
354,-1,1,-4,1,-3,1,2,1,1,1,-4,1,-4,1,-8,1,-11,1,0,1,-14,1,-3,1
355,-1,1,-5,1,-4,1,3,1,1,1,-5,1,-5,1,-8,1,-11,1,-1,1,-19,1,-5,1
356,-6,1,-7,1,-1,1,6,1,-3,1,-4,1,-4,1,-7,1,-10,1,-1,1,-20,1,-4,1
357,-9,1,-7,1,2,1,8,1,-6,1,-3,1,-2,1,-5,1,-9,1,0,1,-19,1,-2,1
358,-13,1,-5,1,8,1,9,1,-11,1,1,1,0,1,-2,1,-8,1,2,1,-15,1,1,1
359,-15,1,-4,1,11,1,9,1,-13,1,3,1,1,1,0,1,-8,1,4,1,-11,1,4,1
360,-18,1,-4,1,14,1,11,1,-16,1,5,1,3,1,1,1,-7,1,6,1,-7,1,6,1
361,-19,1,-4,1,15,1,11,1,-17,1,5,1,5,1,1,1,-6,1,6,1,-7,1,6,1
362,-17,1,-5,1,12,1,11,1,-15,1,3,1,4,1,0,1,-8,1,4,1,-7,1,4,1
363,-13,1,-4,1,9,1,8,1,-11,1,2,1,5,1,-1,1,-7,1,4,1,-9,1,4,1
364,-10,1,-1,1,9,1,5,1,-10,1,4,1,5,1,0,1,-5,1,5,1,-11,1,2,1
365,-10,1,-2,1,8,1,6,1,-9,1,3,1,4,1,-1,1,-5,1,4,1,-15,1,-2,1
366,-10,1,-3,1,7,1,6,1,-9,1,2,1,4,1,0,1,-4,1,3,1,-18,1,-4,1
367,-7,1,-2,1,5,1,4,1,-6,1,1,1,5,1,2,1,-5,1,2,1,-20,1,-6,1
368,-11,1,-1,1,10,1,6,1,-11,1,4,1,7,1,5,1,-4,1,4,1,-17,1,-3,1
369,-16,1,-1,1,15,1,8,1,-16,1,7,1,7,1,6,1,-3,1,7,1,-13,1,0,1
370,-18,1,-3,1,15,1,10,1,-17,1,6,1,7,1,5,1,-4,1,7,1,-12,1,0,1
371,-13,1,-2,1,11,1,7,1,-12,1,4,1,7,1,2,1,-5,1,6,1,-12,1,0,1
372,-10,1,-2,1,8,1,6,1,-9,1,3,1,8,1,1,1,-5,1,4,1,-13,1,0,1
373,-12,1,-4,1,8,1,8,1,-10,1,2,1,9,1,2,1,-4,1,4,1,-13,1,0,1
374,-13,1,-4,1,9,1,8,1,-11,1,2,1,9,1,4,1,-3,1,3,1,-15,1,-1,1
375,-13,1,-4,1,9,1,8,1,-11,1,2,1,11,1,7,1,-1,1,4,1,-15,1,-1,1
376,-12,1,-5,1,7,1,8,1,-10,1,1,1,11,1,8,1,-2,1,3,1,-16,1,-2,1
377,-13,1,-5,1,8,1,9,1,-11,1,1,1,11,1,10,1,-4,1,1,1,-16,1,-1,1
378,-11,1,-4,1,7,1,7,1,-9,1,1,1,10,1,10,1,-5,1,2,1,-14,1,0,1
379,-9,1,-4,1,5,1,6,1,-7,1,0,1,9,1,9,1,-6,1,3,1,-12,1,0,1
380,-12,1,-6,1,6,1,9,1,-9,1,0,1,11,1,9,1,-6,1,4,1,-11,1,0,1
381,-19,1,-6,1,13,1,12,1,-16,1,3,1,13,1,10,1,-3,1,6,1,-10,1,2,1
382,-20,1,-5,1,15,1,12,1,-18,1,5,1,15,1,11,1,-3,1,6,1,-11,1,2,1
383,-18,1,-6,1,12,1,12,1,-15,1,3,1,14,1,10,1,-4,1,4,1,-13,1,1,1
384,-15,1,-7,1,8,1,11,1,-12,1,0,1,13,1,9,1,-5,1,3,1,-15,1,-1,1
385,-12,1,-5,1,7,1,8,1,-10,1,1,1,13,1,11,1,-5,1,2,1,-16,1,-1,1
386,-13,1,-4,1,9,1,8,1,-11,1,2,1,16,1,15,1,-2,1,4,1,-13,1,0,1
387,-16,1,-4,1,12,1,10,1,-14,1,4,1,16,1,17,1,-1,1,4,1,-12,1,1,1
388,-16,1,-5,1,11,1,10,1,-14,1,3,1,15,1,19,1,-1,1,3,1,-13,1,0,1
389,-15,1,-7,1,8,1,11,1,-12,1,0,1,15,1,19,1,-1,1,1,1,-15,1,-2,1
390,-15,1,-9,1,6,1,12,1,-11,1,-2,1,16,1,20,1,-1,1,0,1,-17,1,-4,1
391,-15,1,-6,1,9,1,10,1,-12,1,1,1,18,1,19,1,-3,1,-1,1,-20,1,-6,1
392,-15,1,-5,1,10,1,10,1,-13,1,2,1,19,1,17,1,-5,1,-2,1,-21,1,-6,1
393,-21,1,-5,1,16,1,13,1,-19,1,5,1,20,1,16,1,-3,1,0,1,-20,1,-5,1
394,-25,1,-6,1,19,1,15,1,-22,1,6,1,19,1,14,1,-4,1,1,1,-17,1,-2,1
395,-25,1,-4,1,21,1,14,1,-23,1,8,1,19,1,13,1,-3,1,4,1,-14,1,0,1
396,-22,1,-2,1,20,1,12,1,-21,1,9,1,18,1,12,1,-2,1,6,1,-11,1,2,1
397,-19,1,-1,1,18,1,10,1,-19,1,8,1,17,1,10,1,-2,1,6,1,-11,1,3,1
398,-18,1,-2,1,16,1,10,1,-17,1,7,1,13,1,9,1,-2,1,4,1,-12,1,0,1
399,-15,1,-3,1,12,1,9,1,-14,1,4,1,10,1,8,1,-3,1,3,1,-14,1,-1,1
400,-16,1,-2,1,14,1,9,1,-15,1,6,1,10,1,9,1,-3,1,2,1,-13,1,0,1
401,-17,1,-1,1,16,1,9,1,-17,1,7,1,10,1,10,1,-3,1,4,1,-12,1,0,1
402,-18,1,-1,1,17,1,9,1,-18,1,8,1,8,1,7,1,-4,1,4,1,-12,1,0,1
403,-18,1,-5,1,13,1,11,1,-16,1,4,1,4,1,5,1,-5,1,2,1,-16,1,-2,1
404,-18,1,-6,1,12,1,12,1,-15,1,3,1,2,1,3,1,-6,1,1,1,-19,1,-4,1
405,-15,1,-7,1,8,1,11,1,-12,1,0,1,1,1,2,1,-6,1,0,1,-19,1,-4,1
406,-15,1,-8,1,7,1,11,1,-11,1,-1,1,1,1,1,1,-5,1,0,1,-18,1,-2,1
407,-16,1,-8,1,8,1,12,1,-12,1,0,1,2,1,2,1,-5,1,0,1,-16,1,-2,1
408,-15,1,-6,1,9,1,10,1,-12,1,1,1,1,1,2,1,-6,1,0,1,-16,1,-2,1
409,-14,1,-4,1,10,1,9,1,-12,1,3,1,1,1,3,1,-5,1,0,1,-14,1,0,1
410,-16,1,-2,1,14,1,9,1,-15,1,6,1,1,1,5,1,-4,1,3,1,-11,1,2,1
411,-16,1,-2,1,14,1,9,1,-15,1,6,1,0,1,5,1,-5,1,3,1,-11,1,1,1
412,-15,1,-2,1,13,1,8,1,-14,1,5,1,-1,1,4,1,-5,1,2,1,-14,1,-1,1
413,-17,1,-4,1,13,1,10,1,-15,1,4,1,-1,1,3,1,-5,1,3,1,-16,1,-2,1
414,-16,1,-4,1,12,1,10,1,-14,1,4,1,-1,1,3,1,-5,1,3,1,-18,1,-4,1
415,-13,1,-2,1,11,1,7,1,-12,1,4,1,0,1,4,1,-4,1,3,1,-19,1,-4,1
416,-10,1,0,1,10,1,5,1,-10,1,5,1,1,1,6,1,-4,1,2,1,-19,1,-4,1
417,-9,1,2,1,11,1,3,1,-10,1,6,1,2,1,8,1,-3,1,2,1,-17,1,-2,1
418,-11,1,0,1,11,1,5,1,-11,1,5,1,1,1,6,1,-4,1,1,1,-17,1,-1,1
419,-12,1,-2,1,10,1,7,1,-11,1,4,1,-1,1,2,1,-5,1,0,1,-19,1,-2,1
420,-13,1,-4,1,9,1,8,1,-11,1,2,1,-2,1,1,1,-6,1,-1,1,-18,1,-2,1
421,-17,1,-4,1,13,1,10,1,-15,1,4,1,-2,1,1,1,-6,1,0,1,-16,1,0,1
422,-19,1,-2,1,17,1,10,1,-18,1,7,1,0,1,4,1,-4,1,2,1,-10,1,3,1
423,-19,1,-1,1,18,1,10,1,-19,1,8,1,0,1,5,1,-1,1,5,1,-6,1,7,1
424,-18,1,-1,1,17,1,9,1,-18,1,8,1,-1,1,5,1,-1,1,5,1,-5,1,9,1
425,-12,1,-1,1,11,1,6,1,-12,1,5,1,-3,1,4,1,-4,1,3,1,-6,1,8,1
426,-12,1,-2,1,10,1,7,1,-11,1,4,1,-2,1,5,1,-5,1,1,1,-7,1,6,1
427,-11,1,-5,1,6,1,8,1,-9,1,0,1,-2,1,4,1,-8,1,-1,1,-9,1,3,1
428,-13,1,-5,1,8,1,9,1,-11,1,1,1,-1,1,4,1,-10,1,-2,1,-11,1,2,1
429,-19,1,-5,1,14,1,12,1,-17,1,4,1,0,1,4,1,-8,1,0,1,-12,1,2,1
430,-23,1,-5,1,18,1,14,1,-21,1,6,1,1,1,4,1,-7,1,0,1,-12,1,1,1
431,-19,1,-4,1,15,1,11,1,-17,1,5,1,0,1,3,1,-7,1,-2,1,-16,1,-3,1
432,-16,1,-4,1,12,1,10,1,-14,1,4,1,0,1,3,1,-7,1,-3,1,-18,1,-4,1
433,-16,1,-6,1,10,1,11,1,-13,1,2,1,2,1,4,1,-8,1,-4,1,-18,1,-5,1
434,-16,1,-9,1,7,1,12,1,-12,1,-1,1,0,1,4,1,-10,1,-7,1,-20,1,-5,1
435,-19,1,-11,1,8,1,15,1,-14,1,-2,1,0,1,4,1,-10,1,-8,1,-19,1,-4,1
436,-21,1,-10,1,11,1,15,1,-16,1,0,1,3,1,7,1,-9,1,-6,1,-17,1,-2,1
437,-22,1,-10,1,12,1,16,1,-17,1,1,1,4,1,8,1,-9,1,-5,1,-17,1,-3,1
438,-19,1,-11,1,8,1,15,1,-14,1,-2,1,3,1,8,1,-9,1,-6,1,-20,1,-7,1
439,-15,1,-10,1,5,1,12,1,-10,1,-3,1,1,1,7,1,-9,1,-8,1,-24,1,-9,1
440,-14,1,-12,1,2,1,13,1,-8,1,-5,1,1,1,6,1,-8,1,-10,1,-26,1,-11,1
441,-18,1,-13,1,5,1,15,1,-12,1,-4,1,3,1,8,1,-7,1,-9,1,-24,1,-10,1
442,-23,1,-14,1,9,1,18,1,-16,1,-3,1,3,1,9,1,-6,1,-9,1,-22,1,-7,1
443,-24,1,-15,1,9,1,19,1,-17,1,-3,1,4,1,10,1,-7,1,-9,1,-19,1,-3,1
444,-19,1,-12,1,7,1,15,1,-13,1,-3,1,3,1,11,1,-7,1,-9,1,-18,1,-2,1
445,-15,1,-11,1,4,1,13,1,-10,1,-4,1,4,1,12,1,-7,1,-10,1,-17,1,-3,1
446,-11,1,-11,1,0,1,11,1,-6,1,-6,1,4,1,11,1,-8,1,-11,1,-19,1,-4,1
447,-14,1,-9,1,5,1,11,1,-10,1,-2,1,5,1,11,1,-9,1,-12,1,-19,1,-4,1
448,-14,1,-7,1,7,1,10,1,-11,1,0,1,6,1,12,1,-9,1,-9,1,-16,1,-3,1
449,-12,1,-7,1,5,1,9,1,-9,1,-1,1,7,1,13,1,-8,1,-7,1,-15,1,-2,1
450,-15,1,-10,1,5,1,12,1,-10,1,-3,1,9,1,16,1,-7,1,-4,1,-11,1,0,1
451,-17,1,-15,1,2,1,16,1,-10,1,-7,1,8,1,14,1,-7,1,-5,1,-11,1,-1,1
452,-19,1,-17,1,2,1,18,1,-11,1,-8,1,8,1,15,1,-6,1,-5,1,-13,1,-3,1
453,-24,1,-18,1,6,1,21,1,-15,1,-6,1,11,1,18,1,-4,1,-4,1,-14,1,-2,1
454,-23,1,-17,1,6,1,20,1,-15,1,-6,1,10,1,18,1,-4,1,-7,1,-19,1,-6,1
455,-23,1,-15,1,8,1,19,1,-16,1,-4,1,9,1,18,1,-4,1,-10,1,-22,1,-9,1
456,-23,1,-14,1,9,1,18,1,-16,1,-3,1,12,1,19,1,-4,1,-10,1,-21,1,-7,1
457,-24,1,-14,1,10,1,19,1,-17,1,-2,1,12,1,19,1,-3,1,-8,1,-17,1,-4,1
458,-23,1,-13,1,10,1,18,1,-17,1,-2,1,10,1,20,1,-4,1,-6,1,-13,1,-1,1
459,-25,1,-13,1,12,1,19,1,-19,1,-1,1,10,1,20,1,-2,1,-4,1,-9,1,1,1
460,-22,1,-11,1,11,1,16,1,-17,1,0,1,9,1,20,1,-1,1,-3,1,-8,1,2,1
461,-19,1,-9,1,10,1,14,1,-15,1,0,1,9,1,20,1,0,1,-2,1,-6,1,2,1
462,-19,1,-9,1,10,1,14,1,-15,1,0,1,11,1,21,1,1,1,-2,1,-6,1,3,1
463,-20,1,-10,1,10,1,15,1,-15,1,0,1,12,1,21,1,1,1,-2,1,-7,1,4,1
464,-24,1,-12,1,12,1,18,1,-18,1,0,1,13,1,22,1,1,1,-3,1,-10,1,2,1
465,-22,1,-12,1,10,1,17,1,-16,1,-1,1,13,1,22,1,1,1,-5,1,-13,1,0,1
466,-20,1,-12,1,8,1,16,1,-14,1,-2,1,13,1,22,1,0,1,-7,1,-15,1,-2,1
467,-22,1,-15,1,7,1,18,1,-15,1,-4,1,14,1,21,1,-2,1,-10,1,-17,1,-5,1
468,-19,1,-14,1,5,1,16,1,-12,1,-5,1,16,1,21,1,-1,1,-12,1,-19,1,-7,1
469,-16,1,-13,1,3,1,14,1,-10,1,-5,1,17,1,22,1,0,1,-13,1,-19,1,-8,1
470,-12,1,-13,1,-1,1,12,1,-6,1,-7,1,16,1,23,1,-1,1,-13,1,-20,1,-9,1
471,-13,1,-15,1,-2,1,14,1,-6,1,-9,1,15,1,23,1,-1,1,-14,1,-21,1,-11,1
472,-21,1,-19,1,2,1,20,1,-12,1,-9,1,15,1,24,1,-1,1,-13,1,-21,1,-9,1
473,-27,1,-22,1,5,1,24,1,-16,1,-9,1,16,1,25,1,-1,1,-11,1,-19,1,-6,1
474,-30,1,-22,1,8,1,26,1,-19,1,-7,1,15,1,25,1,0,1,-11,1,-17,1,-3,1
475,-36,1,-21,1,15,1,28,1,-26,1,-3,1,17,1,26,1,1,1,-9,1,-14,1,-1,1
476,-33,1,-19,1,14,1,26,1,-24,1,-3,1,18,1,26,1,0,1,-9,1,-13,1,-2,1
477,-27,1,-18,1,9,1,22,1,-18,1,-5,1,17,1,26,1,-3,1,-10,1,-14,1,-5,1
478,-28,1,-19,1,9,1,23,1,-19,1,-5,1,20,1,26,1,-3,1,-9,1,-14,1,-6,1
479,-28,1,-18,1,10,1,23,1,-19,1,-4,1,24,1,27,1,0,1,-7,1,-14,1,-7,1
480,-26,1,-19,1,7,1,22,1,-17,1,-6,1,26,1,27,1,0,1,-8,1,-14,1,-8,1
481,-24,1,-19,1,5,1,21,1,-15,1,-7,1,26,1,25,1,-2,1,-9,1,-17,1,-11,1
482,-23,1,-17,1,6,1,20,1,-15,1,-6,1,26,1,25,1,-1,1,-10,1,-19,1,-10,1
483,-27,1,-17,1,10,1,22,1,-19,1,-4,1,25,1,25,1,-1,1,-10,1,-19,1,-8,1
484,-32,1,-17,1,15,1,24,1,-24,1,-1,1,23,1,24,1,-2,1,-12,1,-19,1,-7,1
485,-34,1,-14,1,20,1,24,1,-27,1,3,1,21,1,23,1,-2,1,-13,1,-17,1,-4,1
486,-34,1,-12,1,22,1,23,1,-28,1,5,1,18,1,23,1,-4,1,-15,1,-15,1,-2,1
487,-33,1,-12,1,21,1,22,1,-27,1,4,1,14,1,21,1,-4,1,-15,1,-13,1,-3,1
488,-24,1,-12,1,12,1,18,1,-18,1,0,1,9,1,18,1,-6,1,-16,1,-15,1,-5,1
489,-19,1,-13,1,6,1,16,1,-13,1,-4,1,7,1,15,1,-5,1,-15,1,-16,1,-8,1
490,-20,1,-13,1,7,1,16,1,-14,1,-3,1,6,1,14,1,-5,1,-15,1,-17,1,-8,1
491,-23,1,-14,1,9,1,18,1,-16,1,-3,1,4,1,11,1,-6,1,-14,1,-17,1,-8,1
492,-23,1,-12,1,11,1,17,1,-17,1,-1,1,3,1,9,1,-5,1,-15,1,-15,1,-6,1
493,-21,1,-9,1,12,1,15,1,-17,1,1,1,2,1,9,1,-5,1,-14,1,-13,1,-4,1
494,-20,1,-7,1,13,1,13,1,-17,1,3,1,2,1,9,1,-4,1,-12,1,-9,1,-1,1
495,-22,1,-5,1,17,1,13,1,-20,1,6,1,2,1,10,1,-3,1,-6,1,-2,1,3,1
496,-21,1,-4,1,17,1,12,1,-19,1,6,1,0,1,8,1,1,1,0,1,2,1,7,1
497,-20,1,-4,1,16,1,12,1,-18,1,6,1,-4,1,9,1,10,1,8,1,7,1,10,1
498,-15,1,1,1,16,1,7,1,-15,1,8,1,-5,1,14,1,29,1,22,1,19,1,18,1
499,-11,1,10,1,21,1,0,1,-16,1,15,1,-5,1,23,1,59,1,48,1,42,1,36,1
500,-5,1,19,1,24,1,-7,1,-14,1,21,1,-7,1,29,1,82,1,74,1,69,1,57,1
501,0,1,32,1,32,1,-16,1,-16,1,32,1,-9,1,35,1,100,1,100,1,104,1,85,1
502,8,1,49,1,41,1,-28,1,-16,1,45,1,-9,1,41,1,114,1,129,1,146,1,117,1
503,19,1,70,1,51,1,-44,1,-16,1,61,1,-10,1,46,1,128,1,160,1,190,1,152,1
504,23,1,93,1,70,1,-58,1,-23,1,82,1,-12,1,50,1,138,1,193,1,237,1,190,1
505,32,1,114,1,82,1,-73,1,-25,1,98,1,-18,1,47,1,138,1,224,1,284,1,229,1
506,44,1,131,1,87,1,-87,1,-21,1,109,1,-30,1,40,1,133,1,249,1,325,1,263,1
507,52,1,141,1,89,1,-96,1,-18,1,115,1,-40,1,31,1,121,1,262,1,351,1,286,1
508,60,1,142,1,82,1,-101,1,-11,1,112,1,-48,1,22,1,107,1,266,1,363,1,297,1
509,68,1,136,1,68,1,-102,1,0,1,102,1,-55,1,9,1,87,1,261,1,360,1,296,1
510,69,1,124,1,55,1,-96,1,7,1,90,1,-64,1,-9,1,58,1,240,1,340,1,283,1
511,69,1,106,1,37,1,-87,1,16,1,72,1,-76,1,-35,1,20,1,200,1,298,1,256,1
512,62,1,87,1,25,1,-74,1,19,1,56,1,-91,1,-67,1,-33,1,131,1,224,1,206,1
513,45,1,67,1,22,1,-56,1,12,1,45,1,-100,1,-97,1,-94,1,41,1,128,1,141,1
514,28,1,42,1,14,1,-35,1,7,1,28,1,-103,1,-117,1,-145,1,-38,1,44,1,82,1
515,14,1,17,1,3,1,-15,1,6,1,10,1,-101,1,-125,1,-177,1,-95,1,-16,1,34,1
516,0,1,-4,1,-4,1,2,1,2,1,-4,1,-95,1,-121,1,-187,1,-130,1,-60,1,-1,1
517,-7,1,-19,1,-12,1,13,1,2,1,-16,1,-87,1,-112,1,-185,1,-151,1,-88,1,-28,1
518,-14,1,-27,1,-13,1,20,1,-1,1,-20,1,-79,1,-99,1,-176,1,-157,1,-102,1,-43,1
519,-13,1,-29,1,-16,1,21,1,1,1,-23,1,-69,1,-86,1,-162,1,-150,1,-102,1,-48,1
520,-12,1,-29,1,-17,1,20,1,2,1,-23,1,-59,1,-74,1,-143,1,-135,1,-94,1,-47,1
521,-15,1,-29,1,-14,1,22,1,-1,1,-22,1,-47,1,-60,1,-121,1,-115,1,-82,1,-43,1
522,-17,1,-29,1,-12,1,23,1,-3,1,-21,1,-35,1,-45,1,-100,1,-95,1,-71,1,-38,1
523,-18,1,-27,1,-9,1,22,1,-5,1,-18,1,-25,1,-33,1,-81,1,-79,1,-61,1,-35,1
524,-13,1,-24,1,-11,1,18,1,-1,1,-18,1,-17,1,-23,1,-68,1,-70,1,-57,1,-35,1
525,-13,1,-22,1,-9,1,17,1,-2,1,-16,1,-12,1,-14,1,-56,1,-61,1,-53,1,-34,1
526,-18,1,-22,1,-4,1,20,1,-7,1,-13,1,-8,1,-7,1,-44,1,-54,1,-47,1,-31,1
527,-27,1,-22,1,5,1,24,1,-16,1,-9,1,-4,1,0,1,-34,1,-47,1,-41,1,-27,1
528,-28,1,-21,1,7,1,24,1,-18,1,-7,1,-3,1,3,1,-27,1,-43,1,-37,1,-24,1
529,-23,1,-16,1,7,1,19,1,-15,1,-5,1,-2,1,6,1,-23,1,-39,1,-33,1,-20,1
530,-24,1,-17,1,7,1,20,1,-16,1,-5,1,-1,1,8,1,-21,1,-36,1,-32,1,-19,1
531,-27,1,-19,1,8,1,23,1,-18,1,-6,1,1,1,9,1,-17,1,-33,1,-31,1,-18,1
532,-28,1,-18,1,10,1,23,1,-19,1,-4,1,5,1,13,1,-11,1,-29,1,-28,1,-16,1
533,-22,1,-18,1,4,1,20,1,-13,1,-7,1,8,1,15,1,-8,1,-27,1,-28,1,-17,1
534,-16,1,-19,1,-3,1,17,1,-7,1,-11,1,7,1,16,1,-8,1,-26,1,-29,1,-19,1
535,-15,1,-19,1,-4,1,17,1,-6,1,-12,1,7,1,18,1,-5,1,-24,1,-28,1,-20,1
536,-15,1,-19,1,-4,1,17,1,-6,1,-12,1,8,1,19,1,-3,1,-22,1,-27,1,-20,1
537,-20,1,-17,1,3,1,18,1,-12,1,-7,1,8,1,21,1,-1,1,-21,1,-26,1,-19,1
538,-24,1,-14,1,10,1,19,1,-17,1,-2,1,9,1,21,1,2,1,-21,1,-24,1,-16,1
539,-31,1,-13,1,18,1,22,1,-25,1,2,1,11,1,22,1,4,1,-19,1,-21,1,-12,1
540,-33,1,-13,1,20,1,23,1,-27,1,3,1,13,1,23,1,5,1,-17,1,-19,1,-10,1
541,-31,1,-13,1,18,1,22,1,-25,1,2,1,13,1,23,1,6,1,-17,1,-19,1,-10,1
542,-25,1,-13,1,12,1,19,1,-19,1,-1,1,13,1,24,1,6,1,-18,1,-20,1,-11,1
543,-22,1,-12,1,10,1,17,1,-16,1,-1,1,14,1,27,1,6,1,-17,1,-22,1,-12,1
544,-18,1,-13,1,5,1,15,1,-12,1,-4,1,15,1,27,1,4,1,-17,1,-22,1,-13,1
545,-17,1,-13,1,4,1,15,1,-11,1,-5,1,15,1,27,1,3,1,-16,1,-20,1,-13,1
546,-22,1,-15,1,7,1,18,1,-15,1,-4,1,15,1,27,1,4,1,-13,1,-18,1,-12,1
547,-25,1,-16,1,9,1,20,1,-17,1,-4,1,14,1,26,1,4,1,-12,1,-17,1,-12,1
548,-27,1,-15,1,12,1,21,1,-20,1,-2,1,12,1,25,1,4,1,-11,1,-17,1,-13,1
549,-25,1,-15,1,10,1,20,1,-18,1,-3,1,10,1,23,1,4,1,-13,1,-19,1,-14,1
550,-25,1,-18,1,7,1,21,1,-16,1,-6,1,8,1,22,1,4,1,-14,1,-20,1,-15,1
551,-23,1,-18,1,5,1,20,1,-14,1,-7,1,6,1,22,1,3,1,-17,1,-22,1,-15,1
552,-24,1,-19,1,5,1,21,1,-15,1,-7,1,7,1,22,1,2,1,-18,1,-23,1,-15,1
553,-29,1,-20,1,9,1,24,1,-19,1,-6,1,9,1,23,1,3,1,-18,1,-23,1,-15,1
554,-31,1,-22,1,9,1,26,1,-20,1,-7,1,11,1,24,1,3,1,-18,1,-24,1,-17,1
555,-29,1,-21,1,8,1,25,1,-19,1,-7,1,14,1,25,1,4,1,-18,1,-25,1,-18,1
556,-25,1,-18,1,7,1,21,1,-16,1,-6,1,15,1,27,1,6,1,-16,1,-24,1,-19,1
557,-26,1,-15,1,11,1,20,1,-19,1,-2,1,16,1,28,1,8,1,-15,1,-23,1,-19,1
558,-25,1,-13,1,12,1,19,1,-19,1,-1,1,16,1,29,1,8,1,-15,1,-24,1,-19,1
559,-24,1,-13,1,11,1,18,1,-18,1,-1,1,18,1,30,1,9,1,-16,1,-24,1,-20,1
560,-23,1,-14,1,9,1,18,1,-16,1,-3,1,20,1,31,1,9,1,-17,1,-24,1,-20,1
561,-19,1,-16,1,3,1,17,1,-11,1,-7,1,22,1,34,1,9,1,-19,1,-25,1,-21,1
562,-19,1,-17,1,2,1,18,1,-11,1,-8,1,24,1,36,1,11,1,-18,1,-25,1,-22,1
563,-24,1,-20,1,4,1,22,1,-14,1,-8,1,26,1,40,1,12,1,-15,1,-23,1,-19,1
564,-29,1,-19,1,10,1,24,1,-20,1,-5,1,29,1,45,1,16,1,-11,1,-19,1,-14,1
565,-31,1,-17,1,14,1,24,1,-23,1,-2,1,31,1,47,1,18,1,-9,1,-15,1,-11,1
566,-30,1,-18,1,12,1,24,1,-21,1,-3,1,33,1,48,1,20,1,-7,1,-13,1,-10,1
567,-29,1,-18,1,11,1,23,1,-20,1,-4,1,33,1,46,1,20,1,-7,1,-14,1,-12,1
568,-30,1,-17,1,13,1,23,1,-22,1,-2,1,31,1,45,1,19,1,-6,1,-15,1,-15,1
569,-28,1,-13,1,15,1,20,1,-22,1,1,1,30,1,43,1,20,1,-5,1,-15,1,-15,1
570,-28,1,-11,1,17,1,19,1,-23,1,3,1,27,1,39,1,20,1,-4,1,-15,1,-15,1
571,-31,1,-10,1,21,1,20,1,-26,1,5,1,25,1,36,1,21,1,-2,1,-13,1,-12,1
572,-27,1,-8,1,19,1,17,1,-23,1,5,1,23,1,33,1,22,1,-2,1,-12,1,-10,1
573,-21,1,-6,1,15,1,13,1,-18,1,4,1,19,1,30,1,21,1,-2,1,-12,1,-9,1
574,-22,1,-7,1,15,1,14,1,-19,1,4,1,16,1,28,1,21,1,-3,1,-12,1,-10,1
575,-17,1,-7,1,10,1,12,1,-14,1,1,1,12,1,25,1,20,1,-4,1,-13,1,-11,1
576,-13,1,-6,1,7,1,9,1,-10,1,0,1,10,1,23,1,21,1,-4,1,-13,1,-12,1
577,-14,1,-7,1,7,1,10,1,-11,1,0,1,10,1,22,1,22,1,-3,1,-11,1,-12,1
578,-10,1,-4,1,6,1,7,1,-8,1,1,1,7,1,20,1,22,1,-2,1,-9,1,-11,1
579,-8,1,-4,1,4,1,6,1,-6,1,0,1,5,1,18,1,22,1,-1,1,-8,1,-10,1
580,-15,1,-5,1,10,1,10,1,-13,1,2,1,3,1,19,1,24,1,2,1,-4,1,-7,1
581,-16,1,-8,1,8,1,12,1,-12,1,0,1,1,1,17,1,23,1,3,1,-5,1,-7,1
582,-16,1,-9,1,7,1,12,1,-12,1,-1,1,0,1,16,1,23,1,4,1,-5,1,-6,1
583,-24,1,-10,1,14,1,17,1,-19,1,2,1,1,1,19,1,26,1,7,1,-3,1,-5,1
584,-27,1,-11,1,16,1,19,1,-22,1,2,1,1,1,20,1,29,1,8,1,-2,1,-4,1
585,-30,1,-11,1,19,1,20,1,-25,1,4,1,3,1,22,1,32,1,11,1,2,1,-3,1
586,-29,1,-10,1,19,1,19,1,-24,1,4,1,1,1,22,1,34,1,13,1,6,1,-1,1
587,-27,1,-11,1,16,1,19,1,-22,1,2,1,-1,1,20,1,36,1,15,1,7,1,-1,1
588,-25,1,-12,1,13,1,18,1,-19,1,0,1,-4,1,18,1,37,1,15,1,7,1,-1,1
589,-22,1,-10,1,12,1,16,1,-17,1,1,1,-6,1,20,1,40,1,19,1,8,1,0,1
590,-17,1,-7,1,10,1,12,1,-14,1,1,1,-7,1,21,1,41,1,21,1,9,1,2,1
591,-14,1,-6,1,8,1,10,1,-11,1,1,1,-7,1,21,1,42,1,22,1,10,1,3,1
592,-9,1,-3,1,6,1,6,1,-8,1,1,1,-5,1,22,1,45,1,25,1,14,1,6,1
593,-8,1,-1,1,7,1,4,1,-8,1,3,1,-3,1,22,1,47,1,30,1,18,1,9,1
594,-7,1,0,1,7,1,3,1,-7,1,3,1,-1,1,22,1,49,1,35,1,22,1,12,1
595,-6,1,2,1,8,1,2,1,-7,1,5,1,-1,1,23,1,53,1,38,1,25,1,13,1
596,-5,1,4,1,9,1,0,1,-7,1,6,1,-3,1,23,1,55,1,40,1,27,1,14,1
597,-6,1,2,1,8,1,2,1,-7,1,5,1,-4,1,22,1,56,1,41,1,28,1,13,1
598,-13,1,-1,1,12,1,7,1,-13,1,5,1,-4,1,22,1,58,1,45,1,30,1,15,1
599,-14,1,-4,1,10,1,9,1,-12,1,3,1,-6,1,20,1,58,1,46,1,31,1,16,1
600,-9,1,-2,1,7,1,5,1,-8,1,2,1,-5,1,20,1,60,1,49,1,34,1,19,1
601,-8,1,0,1,8,1,4,1,-8,1,4,1,-4,1,22,1,62,1,53,1,37,1,22,1
602,-8,1,0,1,8,1,4,1,-8,1,4,1,-2,1,23,1,65,1,55,1,38,1,23,1
603,-3,1,2,1,5,1,0,1,-4,1,3,1,-3,1,25,1,66,1,55,1,38,1,22,1
604,1,1,4,1,3,1,-2,1,-1,1,4,1,-5,1,27,1,67,1,54,1,38,1,21,1
605,2,1,5,1,3,1,-3,1,0,1,4,1,-6,1,28,1,68,1,55,1,38,1,21,1
606,4,1,6,1,2,1,-5,1,1,1,4,1,-8,1,25,1,67,1,54,1,39,1,22,1
607,2,1,4,1,2,1,-3,1,0,1,3,1,-7,1,24,1,67,1,55,1,39,1,22,1
608,1,1,3,1,2,1,-2,1,0,1,3,1,-6,1,23,1,67,1,56,1,38,1,21,1
609,5,1,3,1,-2,1,-4,1,4,1,1,1,-6,1,23,1,66,1,55,1,37,1,20,1
610,5,1,6,1,1,1,-5,1,2,1,4,1,-5,1,24,1,67,1,55,1,38,1,20,1
611,7,1,9,1,2,1,-8,1,3,1,6,1,-4,1,26,1,67,1,55,1,38,1,22,1
612,7,1,10,1,3,1,-8,1,2,1,7,1,-3,1,26,1,68,1,56,1,41,1,24,1
613,6,1,11,1,5,1,-8,1,1,1,8,1,-1,1,25,1,67,1,56,1,43,1,27,1
614,6,1,9,1,3,1,-7,1,2,1,6,1,-3,1,23,1,65,1,55,1,43,1,27,1
615,6,1,9,1,3,1,-7,1,2,1,6,1,-4,1,21,1,63,1,53,1,42,1,26,1
616,4,1,10,1,6,1,-7,1,-1,1,8,1,-2,1,21,1,63,1,53,1,41,1,26,1
617,1,1,11,1,10,1,-6,1,-4,1,11,1,0,1,23,1,63,1,54,1,41,1,27,1
618,-1,1,12,1,13,1,-5,1,-7,1,12,1,0,1,24,1,63,1,55,1,41,1,27,1
619,-2,1,14,1,16,1,-6,1,-9,1,15,1,2,1,26,1,64,1,55,1,43,1,30,1
620,1,1,17,1,16,1,-9,1,-7,1,17,1,4,1,26,1,63,1,54,1,46,1,31,1
621,-2,1,17,1,19,1,-7,1,-10,1,18,1,5,1,25,1,61,1,53,1,48,1,32,1
622,-6,1,14,1,20,1,-4,1,-13,1,17,1,4,1,23,1,58,1,51,1,46,1,31,1
623,-5,1,12,1,17,1,-3,1,-11,1,14,1,2,1,19,1,54,1,45,1,41,1,28,1
624,-2,1,10,1,12,1,-4,1,-7,1,11,1,1,1,16,1,50,1,39,1,36,1,24,1
625,2,1,11,1,9,1,-6,1,-3,1,10,1,1,1,16,1,46,1,33,1,30,1,20,1
626,4,1,13,1,9,1,-8,1,-2,1,11,1,3,1,19,1,43,1,28,1,27,1,19,1
627,5,1,12,1,7,1,-8,1,-1,1,10,1,2,1,20,1,39,1,24,1,23,1,17,1
628,1,1,12,1,11,1,-6,1,-5,1,12,1,4,1,22,1,39,1,23,1,22,1,17,1
629,-5,1,12,1,17,1,-3,1,-11,1,14,1,8,1,26,1,39,1,22,1,24,1,18,1
630,-3,1,11,1,14,1,-4,1,-8,1,12,1,9,1,25,1,36,1,19,1,22,1,16,1
631,-2,1,10,1,12,1,-4,1,-7,1,11,1,11,1,24,1,32,1,15,1,19,1,11,1
632,-2,1,11,1,13,1,-4,1,-7,1,12,1,13,1,26,1,31,1,15,1,19,1,11,1
633,1,1,11,1,10,1,-6,1,-4,1,11,1,14,1,27,1,30,1,13,1,17,1,10,1
634,1,1,9,1,8,1,-5,1,-3,1,9,1,15,1,28,1,30,1,11,1,13,1,8,1
635,0,1,7,1,7,1,-3,1,-3,1,7,1,16,1,29,1,28,1,7,1,11,1,6,1
636,-4,1,5,1,9,1,0,1,-6,1,7,1,18,1,30,1,25,1,3,1,8,1,5,1
637,-6,1,3,1,9,1,1,1,-7,1,6,1,19,1,30,1,23,1,0,1,6,1,2,1
638,-8,1,3,1,11,1,2,1,-9,1,7,1,20,1,29,1,20,1,-2,1,4,1,0,1
639,-3,1,4,1,7,1,0,1,-5,1,5,1,21,1,29,1,18,1,-4,1,2,1,-2,1
640,0,1,4,1,4,1,-2,1,-2,1,4,1,21,1,28,1,15,1,-9,1,-2,1,-5,1
641,3,1,4,1,1,1,-3,1,1,1,3,1,18,1,24,1,12,1,-13,1,-8,1,-8,1
642,-1,1,3,1,4,1,-1,1,-2,1,3,1,19,1,25,1,12,1,-14,1,-10,1,-8,1
643,-5,1,3,1,8,1,1,1,-6,1,5,1,19,1,25,1,11,1,-15,1,-11,1,-7,1
644,-7,1,1,1,8,1,3,1,-7,1,4,1,17,1,24,1,9,1,-17,1,-12,1,-8,1
645,-4,1,1,1,5,1,1,1,-4,1,3,1,14,1,22,1,6,1,-21,1,-15,1,-11,1
646,0,1,3,1,3,1,-1,1,-1,1,3,1,12,1,18,1,2,1,-24,1,-16,1,-13,1
647,-3,1,3,1,6,1,0,1,-4,1,4,1,10,1,15,1,0,1,-26,1,-14,1,-12,1
648,-7,1,3,1,10,1,2,1,-8,1,6,1,10,1,12,1,-1,1,-25,1,-11,1,-11,1
649,-11,1,2,1,13,1,4,1,-12,1,7,1,10,1,9,1,-3,1,-23,1,-7,1,-8,1
650,-13,1,1,1,14,1,6,1,-13,1,7,1,10,1,7,1,-5,1,-22,1,-4,1,-5,1
651,-13,1,2,1,15,1,5,1,-14,1,8,1,9,1,7,1,-6,1,-21,1,-3,1,-3,1
652,-12,1,2,1,14,1,5,1,-13,1,8,1,8,1,6,1,-6,1,-21,1,-5,1,-3,1
653,-7,1,2,1,9,1,2,1,-8,1,5,1,7,1,6,1,-8,1,-24,1,-7,1,-4,1
654,-5,1,4,1,9,1,0,1,-7,1,6,1,8,1,7,1,-7,1,-24,1,-7,1,-5,1
655,-2,1,7,1,9,1,-2,1,-5,1,8,1,8,1,8,1,-5,1,-23,1,-5,1,-4,1
656,-2,1,9,1,11,1,-3,1,-6,1,10,1,9,1,9,1,-3,1,-21,1,-4,1,-4,1
657,-5,1,7,1,12,1,-1,1,-8,1,9,1,9,1,9,1,-3,1,-22,1,-5,1,-5,1
658,-9,1,6,1,15,1,1,1,-12,1,10,1,9,1,9,1,-3,1,-23,1,-7,1,-7,1
659,-8,1,3,1,11,1,2,1,-9,1,7,1,6,1,6,1,-5,1,-25,1,-10,1,-10,1
660,-4,1,0,1,4,1,2,1,-4,1,2,1,3,1,3,1,-8,1,-28,1,-14,1,-14,1
661,-1,1,0,1,1,1,0,1,-1,1,0,1,2,1,3,1,-9,1,-29,1,-16,1,-15,1
662,-3,1,0,1,3,1,1,1,-3,1,1,1,4,1,5,1,-7,1,-28,1,-15,1,-13,1
663,-6,1,2,1,8,1,2,1,-7,1,5,1,5,1,6,1,-7,1,-28,1,-15,1,-11,1
664,-6,1,4,1,10,1,1,1,-8,1,7,1,7,1,8,1,-6,1,-28,1,-14,1,-10,1
665,-5,1,5,1,10,1,0,1,-7,1,7,1,7,1,7,1,-6,1,-27,1,-12,1,-9,1
666,-4,1,3,1,7,1,0,1,-5,1,5,1,7,1,6,1,-7,1,-27,1,-10,1,-10,1
667,-5,1,6,1,11,1,0,1,-8,1,8,1,8,1,7,1,-4,1,-26,1,-8,1,-9,1
668,-1,1,10,1,11,1,-4,1,-6,1,10,1,10,1,8,1,-4,1,-27,1,-8,1,-9,1
669,-1,1,12,1,13,1,-5,1,-7,1,12,1,11,1,9,1,-3,1,-25,1,-9,1,-9,1
670,-7,1,11,1,18,1,-2,1,-12,1,14,1,13,1,10,1,-1,1,-24,1,-8,1,-6,1
671,-10,1,11,1,21,1,0,1,-15,1,16,1,13,1,10,1,-1,1,-23,1,-8,1,-6,1
672,-13,1,9,1,22,1,2,1,-17,1,15,1,12,1,11,1,0,1,-22,1,-6,1,-4,1
673,-12,1,7,1,19,1,2,1,-15,1,13,1,9,1,11,1,0,1,-22,1,-6,1,-3,1
674,-9,1,5,1,14,1,2,1,-11,1,9,1,6,1,8,1,-2,1,-25,1,-9,1,-6,1
675,-7,1,4,1,11,1,1,1,-9,1,7,1,3,1,6,1,-3,1,-26,1,-13,1,-10,1
676,-6,1,4,1,10,1,1,1,-8,1,7,1,3,1,8,1,-2,1,-26,1,-15,1,-14,1
677,-2,1,5,1,7,1,-1,1,-4,1,6,1,3,1,8,1,-2,1,-27,1,-17,1,-17,1
678,-1,1,7,1,8,1,-3,1,-4,1,7,1,4,1,9,1,-2,1,-27,1,-15,1,-16,1
679,-2,1,9,1,11,1,-3,1,-6,1,10,1,7,1,9,1,-1,1,-25,1,-12,1,-13,1
680,-1,1,8,1,9,1,-3,1,-5,1,8,1,8,1,8,1,-1,1,-26,1,-8,1,-9,1
681,0,1,10,1,10,1,-5,1,-5,1,10,1,7,1,7,1,-1,1,-25,1,-6,1,-8,1
682,-1,1,10,1,11,1,-4,1,-6,1,10,1,8,1,8,1,-1,1,-24,1,-7,1,-7,1
683,-4,1,11,1,15,1,-3,1,-9,1,13,1,9,1,10,1,0,1,-22,1,-6,1,-5,1
684,-4,1,12,1,16,1,-4,1,-10,1,14,1,8,1,9,1,1,1,-23,1,-7,1,-5,1
685,-4,1,12,1,16,1,-4,1,-10,1,14,1,8,1,9,1,1,1,-22,1,-6,1,-4,1
686,-5,1,12,1,17,1,-3,1,-11,1,14,1,8,1,10,1,3,1,-22,1,-3,1,-2,1
687,-4,1,13,1,17,1,-4,1,-10,1,15,1,9,1,11,1,4,1,-22,1,-2,1,-2,1
688,0,1,13,1,13,1,-6,1,-6,1,13,1,8,1,12,1,3,1,-22,1,-3,1,-4,1
689,3,1,12,1,9,1,-7,1,-3,1,11,1,8,1,13,1,2,1,-23,1,-4,1,-5,1
690,6,1,10,1,4,1,-8,1,1,1,7,1,7,1,12,1,1,1,-25,1,-7,1,-7,1
691,9,1,11,1,2,1,-10,1,4,1,7,1,7,1,12,1,1,1,-25,1,-9,1,-9,1
692,7,1,11,1,4,1,-9,1,2,1,8,1,8,1,13,1,2,1,-25,1,-9,1,-8,1
693,4,1,9,1,5,1,-6,1,0,1,7,1,8,1,13,1,3,1,-26,1,-10,1,-9,1
694,0,1,8,1,8,1,-4,1,-4,1,8,1,10,1,14,1,3,1,-25,1,-10,1,-11,1
695,-3,1,9,1,12,1,-3,1,-7,1,10,1,12,1,14,1,5,1,-22,1,-8,1,-9,1
696,-5,1,8,1,13,1,-1,1,-9,1,10,1,13,1,14,1,6,1,-22,1,-8,1,-8,1
697,-7,1,7,1,14,1,0,1,-10,1,10,1,14,1,15,1,7,1,-21,1,-6,1,-8,1
698,-6,1,7,1,13,1,0,1,-9,1,10,1,15,1,19,1,8,1,-21,1,-4,1,-6,1
699,-6,1,8,1,14,1,-1,1,-10,1,11,1,17,1,23,1,11,1,-19,1,-1,1,-3,1
700,-5,1,8,1,13,1,-1,1,-9,1,10,1,20,1,26,1,12,1,-18,1,0,1,-2,1
701,2,1,10,1,8,1,-6,1,-3,1,9,1,20,1,27,1,11,1,-21,1,-2,1,-4,1
702,7,1,13,1,6,1,-10,1,1,1,10,1,22,1,28,1,11,1,-21,1,-2,1,-4,1
703,10,1,16,1,6,1,-13,1,2,1,11,1,22,1,27,1,11,1,-20,1,-3,1,-5,1
704,10,1,18,1,8,1,-14,1,1,1,13,1,22,1,27,1,13,1,-20,1,-5,1,-6,1
705,5,1,17,1,12,1,-11,1,-3,1,15,1,22,1,28,1,15,1,-18,1,-6,1,-8,1
706,0,1,15,1,15,1,-7,1,-7,1,15,1,23,1,29,1,15,1,-16,1,-5,1,-7,1
707,-6,1,14,1,20,1,-4,1,-13,1,17,1,25,1,32,1,17,1,-13,1,-2,1,-5,1
708,-5,1,13,1,18,1,-4,1,-11,1,15,1,26,1,33,1,18,1,-13,1,0,1,-4,1
709,-1,1,14,1,15,1,-6,1,-8,1,14,1,28,1,34,1,20,1,-12,1,2,1,-1,1
710,1,1,16,1,15,1,-8,1,-7,1,16,1,30,1,34,1,20,1,-13,1,3,1,0,1
711,3,1,16,1,13,1,-9,1,-5,1,15,1,28,1,31,1,18,1,-15,1,0,1,-2,1
712,3,1,17,1,14,1,-10,1,-5,1,16,1,26,1,27,1,14,1,-16,1,1,1,-2,1
713,-2,1,19,1,21,1,-8,1,-11,1,20,1,24,1,24,1,13,1,-14,1,4,1,1,1
714,-5,1,22,1,27,1,-8,1,-16,1,24,1,18,1,18,1,11,1,-14,1,5,1,1,1
715,-6,1,22,1,28,1,-8,1,-17,1,25,1,12,1,11,1,8,1,-16,1,3,1,0,1
716,-5,1,21,1,26,1,-8,1,-15,1,23,1,8,1,7,1,6,1,-16,1,1,1,-3,1
717,-11,1,17,1,28,1,-3,1,-19,1,22,1,7,1,4,1,4,1,-17,1,1,1,-3,1
718,-12,1,13,1,25,1,0,1,-18,1,19,1,5,1,2,1,1,1,-19,1,0,1,-4,1
719,-7,1,12,1,19,1,-2,1,-13,1,15,1,5,1,0,1,-1,1,-21,1,-2,1,-6,1
720,-7,1,11,1,18,1,-2,1,-12,1,14,1,7,1,-1,1,0,1,-23,1,-3,1,-7,1
721,-9,1,9,1,18,1,0,1,-13,1,13,1,6,1,-1,1,0,1,-24,1,-5,1,-9,1
722,-7,1,9,1,16,1,-1,1,-11,1,12,1,6,1,-3,1,-1,1,-25,1,-8,1,-11,1
723,-8,1,8,1,16,1,0,1,-12,1,12,1,6,1,-2,1,-1,1,-24,1,-7,1,-10,1
724,-4,1,9,1,13,1,-2,1,-8,1,11,1,5,1,-4,1,-1,1,-25,1,-8,1,-11,1
725,0,1,8,1,8,1,-4,1,-4,1,8,1,4,1,-4,1,0,1,-25,1,-7,1,-10,1
726,-4,1,6,1,10,1,-1,1,-7,1,8,1,6,1,-1,1,1,1,-23,1,-5,1,-8,1
727,-6,1,4,1,10,1,1,1,-8,1,7,1,7,1,0,1,1,1,-23,1,-5,1,-10,1
728,-10,1,3,1,13,1,3,1,-11,1,8,1,8,1,0,1,3,1,-21,1,-4,1,-9,1
729,-14,1,3,1,17,1,5,1,-15,1,10,1,8,1,1,1,4,1,-19,1,-3,1,-8,1
730,-15,1,3,1,18,1,6,1,-16,1,10,1,10,1,2,1,5,1,-20,1,-2,1,-8,1
731,-13,1,4,1,17,1,4,1,-15,1,10,1,9,1,0,1,3,1,-22,1,-2,1,-8,1
732,-12,1,6,1,18,1,3,1,-15,1,12,1,9,1,0,1,2,1,-22,1,0,1,-8,1
733,-11,1,6,1,17,1,2,1,-14,1,11,1,9,1,0,1,3,1,-19,1,1,1,-6,1
734,-7,1,5,1,12,1,1,1,-9,1,8,1,8,1,-2,1,2,1,-22,1,-2,1,-8,1
735,-6,1,1,1,7,1,2,1,-6,1,4,1,7,1,-2,1,0,1,-24,1,-4,1,-9,1
736,-4,1,0,1,4,1,2,1,-4,1,2,1,7,1,-3,1,-1,1,-26,1,-6,1,-10,1
737,-3,1,0,1,3,1,1,1,-3,1,1,1,5,1,-2,1,-1,1,-27,1,-7,1,-11,1
738,-6,1,0,1,6,1,3,1,-6,1,3,1,6,1,0,1,-1,1,-26,1,-5,1,-10,1
739,-7,1,1,1,8,1,3,1,-7,1,4,1,7,1,2,1,0,1,-26,1,-5,1,-9,1
740,-5,1,0,1,5,1,2,1,-5,1,2,1,5,1,0,1,-2,1,-26,1,-5,1,-10,1
741,-7,1,-2,1,5,1,4,1,-6,1,1,1,5,1,-1,1,-3,1,-26,1,-5,1,-11,1
742,-6,1,-2,1,4,1,4,1,-5,1,1,1,4,1,-2,1,-3,1,-26,1,-5,1,-11,1
743,-4,1,-3,1,1,1,3,1,-3,1,-1,1,4,1,-4,1,-2,1,-27,1,-6,1,-12,1
744,-6,1,-2,1,4,1,4,1,-5,1,1,1,6,1,-2,1,0,1,-26,1,-4,1,-10,1
745,-6,1,0,1,6,1,3,1,-6,1,3,1,8,1,-2,1,0,1,-25,1,-4,1,-8,1
746,-2,1,1,1,3,1,0,1,-2,1,2,1,9,1,-1,1,-2,1,-25,1,-4,1,-8,1
747,2,1,2,1,0,1,-2,1,1,1,1,1,7,1,-1,1,-3,1,-24,1,-4,1,-9,1
748,4,1,3,1,-1,1,-3,1,3,1,1,1,6,1,0,1,-3,1,-23,1,-6,1,-12,1
749,3,1,2,1,-1,1,-2,1,2,1,1,1,5,1,1,1,0,1,-23,1,-7,1,-12,1
750,3,1,1,1,-2,1,-2,1,3,1,0,1,6,1,1,1,0,1,-26,1,-11,1,-15,1
751,-2,1,1,1,3,1,0,1,-2,1,2,1,9,1,3,1,3,1,-28,1,-11,1,-14,1
752,-8,1,1,1,9,1,3,1,-8,1,5,1,10,1,4,1,3,1,-27,1,-8,1,-13,1
753,-9,1,2,1,11,1,3,1,-10,1,6,1,11,1,2,1,2,1,-26,1,-5,1,-11,1
754,-12,1,1,1,13,1,5,1,-12,1,7,1,10,1,1,1,0,1,-25,1,-2,1,-9,1
755,-9,1,1,1,10,1,4,1,-9,1,5,1,9,1,-2,1,-2,1,-26,1,-2,1,-9,1
756,-4,1,2,1,6,1,1,1,-5,1,4,1,9,1,-3,1,-2,1,-24,1,-1,1,-8,1
757,-6,1,3,1,9,1,1,1,-7,1,6,1,10,1,-1,1,0,1,-22,1,-1,1,-7,1
758,-8,1,4,1,12,1,2,1,-10,1,8,1,12,1,1,1,1,1,-21,1,0,1,-6,1
759,-7,1,4,1,11,1,1,1,-9,1,7,1,12,1,1,1,1,1,-22,1,-1,1,-7,1
760,-5,1,5,1,10,1,0,1,-7,1,7,1,11,1,1,1,1,1,-24,1,-3,1,-9,1
761,-6,1,5,1,11,1,0,1,-8,1,8,1,10,1,0,1,1,1,-25,1,-5,1,-9,1
762,-7,1,5,1,12,1,1,1,-9,1,8,1,10,1,-1,1,0,1,-27,1,-7,1,-11,1
763,-14,1,4,1,18,1,5,1,-16,1,11,1,13,1,0,1,0,1,-27,1,-7,1,-11,1
764,-17,1,3,1,20,1,7,1,-18,1,11,1,14,1,2,1,1,1,-28,1,-6,1,-11,1
765,-12,1,4,1,16,1,4,1,-14,1,10,1,14,1,2,1,0,1,-30,1,-6,1,-10,1
766,-3,1,4,1,7,1,0,1,-5,1,5,1,12,1,0,1,-2,1,-32,1,-8,1,-11,1
767,2,1,5,1,3,1,-3,1,0,1,4,1,10,1,0,1,-5,1,-31,1,-8,1,-11,1
768,-1,1,6,1,7,1,-2,1,-4,1,6,1,13,1,1,1,-3,1,-26,1,-4,1,-7,1
769,-6,1,5,1,11,1,0,1,-8,1,8,1,14,1,3,1,-2,1,-23,1,-1,1,-5,1
770,-13,1,2,1,15,1,5,1,-14,1,8,1,13,1,3,1,-2,1,-23,1,0,1,-4,1
771,-17,1,0,1,17,1,8,1,-17,1,8,1,12,1,2,1,-4,1,-25,1,0,1,-5,1
772,-17,1,1,1,18,1,8,1,-17,1,9,1,12,1,1,1,-4,1,-25,1,-1,1,-6,1
773,-12,1,3,1,15,1,4,1,-13,1,9,1,11,1,-1,1,-5,1,-26,1,-2,1,-8,1
774,-8,1,5,1,13,1,1,1,-10,1,9,1,12,1,-3,1,-5,1,-26,1,-2,1,-9,1
775,-5,1,4,1,9,1,0,1,-7,1,6,1,11,1,-4,1,-5,1,-27,1,-4,1,-11,1
776,-1,1,3,1,4,1,-1,1,-2,1,3,1,12,1,-2,1,-4,1,-28,1,-7,1,-13,1
777,-2,1,0,1,2,1,1,1,-2,1,1,1,12,1,0,1,-4,1,-30,1,-10,1,-14,1
778,-5,1,-1,1,4,1,3,1,-5,1,1,1,13,1,2,1,-3,1,-29,1,-11,1,-13,1
779,-6,1,-1,1,5,1,3,1,-6,1,2,1,14,1,3,1,-3,1,-29,1,-9,1,-13,1
780,-12,1,0,1,12,1,6,1,-12,1,6,1,16,1,4,1,-2,1,-27,1,-7,1,-10,1
781,-14,1,2,1,16,1,6,1,-15,1,9,1,17,1,4,1,-3,1,-28,1,-8,1,-11,1
782,-11,1,1,1,12,1,5,1,-11,1,6,1,16,1,3,1,-5,1,-31,1,-10,1,-14,1
783,-10,1,0,1,10,1,5,1,-10,1,5,1,18,1,3,1,-4,1,-32,1,-11,1,-16,1
784,-10,1,-2,1,8,1,6,1,-9,1,3,1,18,1,1,1,-6,1,-35,1,-14,1,-20,1
785,-10,1,-3,1,7,1,6,1,-9,1,2,1,18,1,2,1,-6,1,-35,1,-16,1,-22,1
786,-7,1,-4,1,3,1,5,1,-5,1,-1,1,16,1,2,1,-7,1,-35,1,-17,1,-21,1
787,-5,1,-5,1,0,1,5,1,-3,1,-3,1,15,1,0,1,-8,1,-35,1,-17,1,-20,1
788,-9,1,-5,1,4,1,7,1,-7,1,-1,1,15,1,0,1,-8,1,-34,1,-15,1,-18,1
789,-10,1,-2,1,8,1,6,1,-9,1,3,1,15,1,0,1,-8,1,-33,1,-13,1,-16,1
790,-11,1,0,1,11,1,5,1,-11,1,5,1,15,1,0,1,-8,1,-33,1,-11,1,-16,1
791,-14,1,1,1,15,1,6,1,-14,1,8,1,14,1,0,1,-9,1,-33,1,-10,1,-15,1
792,-13,1,2,1,15,1,5,1,-14,1,8,1,13,1,-2,1,-10,1,-35,1,-9,1,-14,1
793,-15,1,3,1,18,1,6,1,-16,1,10,1,13,1,-2,1,-9,1,-33,1,-7,1,-12,1
794,-16,1,5,1,21,1,5,1,-18,1,13,1,12,1,-2,1,-8,1,-30,1,-6,1,-12,1
795,-14,1,6,1,20,1,4,1,-17,1,13,1,11,1,-4,1,-7,1,-30,1,-6,1,-12,1
796,-12,1,4,1,16,1,4,1,-14,1,10,1,9,1,-5,1,-7,1,-31,1,-6,1,-12,1
797,-9,1,2,1,11,1,3,1,-10,1,6,1,7,1,-5,1,-7,1,-31,1,-7,1,-12,1
798,-10,1,1,1,11,1,4,1,-10,1,6,1,6,1,-3,1,-8,1,-32,1,-9,1,-14,1
799,-14,1,2,1,16,1,6,1,-15,1,9,1,8,1,-1,1,-6,1,-31,1,-9,1,-13,1
800,-16,1,1,1,17,1,7,1,-16,1,9,1,9,1,-1,1,-6,1,-33,1,-10,1,-15,1
801,-16,1,0,1,16,1,8,1,-16,1,8,1,8,1,-4,1,-8,1,-35,1,-13,1,-17,1
802,-16,1,-4,1,12,1,10,1,-14,1,4,1,4,1,-5,1,-9,1,-36,1,-14,1,-18,1
803,-16,1,-5,1,11,1,10,1,-14,1,3,1,1,1,-7,1,-9,1,-34,1,-12,1,-17,1
804,-16,1,-4,1,12,1,10,1,-14,1,4,1,1,1,-8,1,-8,1,-30,1,-8,1,-15,1
805,-16,1,-4,1,12,1,10,1,-14,1,4,1,2,1,-6,1,-5,1,-26,1,-3,1,-11,1
806,-19,1,-5,1,14,1,12,1,-17,1,4,1,3,1,-5,1,0,1,-20,1,2,1,-7,1
807,-18,1,-5,1,13,1,11,1,-16,1,4,1,5,1,-3,1,4,1,-15,1,6,1,-4,1
808,-12,1,-2,1,10,1,7,1,-11,1,4,1,4,1,0,1,13,1,-7,1,10,1,-1,1
809,-7,1,2,1,9,1,2,1,-8,1,5,1,6,1,6,1,30,1,4,1,18,1,3,1
810,-5,1,9,1,14,1,-2,1,-9,1,11,1,9,1,17,1,55,1,26,1,35,1,16,1
811,-1,1,20,1,21,1,-9,1,-11,1,20,1,12,1,27,1,77,1,51,1,60,1,35,1
812,1,1,31,1,30,1,-16,1,-14,1,31,1,13,1,34,1,94,1,77,1,93,1,61,1
813,8,1,44,1,36,1,-26,1,-14,1,40,1,13,1,40,1,108,1,106,1,135,1,93,1
814,20,1,62,1,42,1,-41,1,-11,1,52,1,10,1,44,1,122,1,141,1,181,1,126,1
815,25,1,82,1,57,1,-53,1,-16,1,70,1,7,1,48,1,136,1,179,1,232,1,166,1
816,31,1,106,1,75,1,-68,1,-22,1,91,1,2,1,47,1,144,1,216,1,285,1,211,1
817,39,1,126,1,87,1,-82,1,-24,1,107,1,-6,1,41,1,145,1,246,1,333,1,252,1
818,49,1,141,1,92,1,-95,1,-21,1,117,1,-16,1,32,1,138,1,266,1,368,1,282,1
819,63,1,149,1,86,1,-106,1,-11,1,118,1,-28,1,21,1,124,1,273,1,385,1,297,1
820,75,1,146,1,71,1,-110,1,2,1,109,1,-40,1,5,1,105,1,271,1,385,1,299,1
821,84,1,136,1,52,1,-110,1,16,1,94,1,-56,1,-19,1,77,1,254,1,367,1,286,1
822,88,1,122,1,34,1,-105,1,27,1,78,1,-73,1,-48,1,40,1,220,1,330,1,263,1
823,84,1,103,1,19,1,-93,1,33,1,61,1,-89,1,-81,1,-11,1,159,1,266,1,222,1
824,70,1,82,1,12,1,-76,1,29,1,47,1,-103,1,-114,1,-76,1,68,1,172,1,162,1
825,52,1,61,1,9,1,-56,1,22,1,35,1,-110,1,-138,1,-135,1,-22,1,81,1,102,1
826,38,1,38,1,0,1,-38,1,19,1,19,1,-108,1,-148,1,-173,1,-89,1,15,1,55,1
827,28,1,16,1,-12,1,-22,1,20,1,2,1,-103,1,-149,1,-194,1,-137,1,-34,1,16,1
828,19,1,-1,1,-20,1,-9,1,19,1,-10,1,-94,1,-139,1,-198,1,-161,1,-66,1,-11,1
829,8,1,-15,1,-23,1,3,1,15,1,-19,1,-79,1,-123,1,-186,1,-165,1,-82,1,-29,1
830,1,1,-23,1,-24,1,11,1,12,1,-23,1,-67,1,-106,1,-166,1,-159,1,-88,1,-41,1
831,-6,1,-25,1,-19,1,15,1,6,1,-22,1,-55,1,-89,1,-142,1,-147,1,-87,1,-45,1
832,-10,1,-27,1,-17,1,18,1,3,1,-22,1,-43,1,-73,1,-118,1,-131,1,-81,1,-47,1
833,-6,1,-28,1,-22,1,17,1,8,1,-25,1,-35,1,-62,1,-98,1,-117,1,-74,1,-48,1
834,-6,1,-28,1,-22,1,17,1,8,1,-25,1,-26,1,-50,1,-82,1,-104,1,-66,1,-47,1
835,-10,1,-27,1,-17,1,18,1,3,1,-22,1,-17,1,-39,1,-68,1,-93,1,-59,1,-45,1
836,-14,1,-27,1,-13,1,20,1,-1,1,-20,1,-10,1,-27,1,-56,1,-83,1,-51,1,-42,1
837,-15,1,-25,1,-10,1,20,1,-3,1,-18,1,-5,1,-20,1,-46,1,-74,1,-45,1,-40,1
838,-19,1,-23,1,-4,1,21,1,-8,1,-14,1,0,1,-14,1,-37,1,-67,1,-40,1,-37,1
839,-23,1,-21,1,2,1,22,1,-13,1,-10,1,5,1,-8,1,-27,1,-58,1,-36,1,-33,1
840,-23,1,-19,1,4,1,21,1,-14,1,-8,1,7,1,-4,1,-21,1,-54,1,-33,1,-30,1
841,-25,1,-20,1,5,1,22,1,-15,1,-8,1,7,1,-4,1,-17,1,-50,1,-32,1,-29,1
842,-28,1,-21,1,7,1,24,1,-18,1,-7,1,8,1,-2,1,-12,1,-46,1,-29,1,-27,1
843,-30,1,-21,1,9,1,25,1,-20,1,-6,1,10,1,0,1,-8,1,-42,1,-25,1,-24,1
844,-21,1,-18,1,3,1,19,1,-12,1,-8,1,8,1,0,1,-8,1,-43,1,-24,1,-26,1
845,-16,1,-17,1,-1,1,16,1,-8,1,-9,1,8,1,0,1,-7,1,-41,1,-22,1,-27,1
846,-18,1,-17,1,1,1,17,1,-10,1,-8,1,8,1,2,1,-6,1,-39,1,-19,1,-28,1
847,-18,1,-17,1,1,1,17,1,-10,1,-8,1,7,1,4,1,-6,1,-39,1,-20,1,-29,1
848,-18,1,-16,1,2,1,17,1,-10,1,-7,1,8,1,6,1,-5,1,-38,1,-21,1,-29,1
849,-22,1,-16,1,6,1,19,1,-14,1,-5,1,11,1,7,1,-3,1,-38,1,-22,1,-29,1
850,-21,1,-18,1,3,1,19,1,-12,1,-8,1,11,1,6,1,-3,1,-38,1,-25,1,-29,1
851,-22,1,-18,1,4,1,20,1,-13,1,-7,1,12,1,5,1,-2,1,-37,1,-26,1,-29,1
852,-22,1,-18,1,4,1,20,1,-13,1,-7,1,12,1,3,1,-1,1,-37,1,-26,1,-29,1
853,-20,1,-18,1,2,1,19,1,-11,1,-8,1,14,1,4,1,-1,1,-38,1,-25,1,-29,1
854,-22,1,-17,1,5,1,19,1,-14,1,-6,1,15,1,5,1,0,1,-36,1,-24,1,-28,1
855,-26,1,-17,1,9,1,21,1,-18,1,-4,1,16,1,8,1,0,1,-35,1,-20,1,-27,1
856,-24,1,-18,1,6,1,21,1,-15,1,-6,1,14,1,7,1,-1,1,-34,1,-20,1,-27,1
857,-19,1,-19,1,0,1,19,1,-10,1,-10,1,12,1,7,1,-2,1,-35,1,-20,1,-29,1
858,-18,1,-21,1,-3,1,19,1,-8,1,-12,1,10,1,6,1,-4,1,-36,1,-21,1,-31,1
859,-18,1,-21,1,-3,1,19,1,-8,1,-12,1,13,1,10,1,-2,1,-33,1,-22,1,-29,1
860,-19,1,-21,1,-2,1,20,1,-9,1,-12,1,16,1,10,1,0,1,-32,1,-23,1,-29,1
861,-21,1,-21,1,0,1,21,1,-11,1,-11,1,19,1,11,1,2,1,-31,1,-24,1,-27,1
862,-21,1,-21,1,0,1,21,1,-11,1,-11,1,20,1,9,1,4,1,-31,1,-24,1,-29,1
863,-19,1,-21,1,-2,1,20,1,-9,1,-12,1,18,1,8,1,3,1,-32,1,-25,1,-29,1
864,-18,1,-18,1,0,1,18,1,-9,1,-9,1,16,1,8,1,2,1,-33,1,-24,1,-30,1
865,-14,1,-14,1,0,1,14,1,-7,1,-7,1,14,1,7,1,1,1,-35,1,-26,1,-31,1
866,-9,1,-12,1,-3,1,10,1,-3,1,-8,1,10,1,5,1,-1,1,-39,1,-29,1,-35,1
867,-9,1,-12,1,-3,1,10,1,-3,1,-8,1,8,1,2,1,-2,1,-40,1,-32,1,-36,1
868,-17,1,-10,1,7,1,13,1,-12,1,-2,1,8,1,2,1,0,1,-38,1,-28,1,-32,1
869,-21,1,-11,1,10,1,16,1,-16,1,-1,1,7,1,0,1,1,1,-36,1,-24,1,-29,1
870,-24,1,-12,1,12,1,18,1,-18,1,0,1,5,1,-4,1,-1,1,-35,1,-22,1,-26,1
871,-22,1,-13,1,9,1,17,1,-16,1,-2,1,3,1,-8,1,-3,1,-33,1,-19,1,-24,1
872,-22,1,-14,1,8,1,18,1,-15,1,-3,1,3,1,-9,1,-2,1,-30,1,-15,1,-21,1
873,-22,1,-14,1,8,1,18,1,-15,1,-3,1,2,1,-9,1,0,1,-30,1,-14,1,-21,1
874,-19,1,-13,1,6,1,16,1,-13,1,-4,1,1,1,-9,1,0,1,-30,1,-13,1,-21,1
875,-20,1,-14,1,6,1,17,1,-13,1,-4,1,1,1,-8,1,2,1,-28,1,-11,1,-20,1
876,-23,1,-14,1,9,1,18,1,-16,1,-3,1,2,1,-5,1,4,1,-25,1,-9,1,-19,1
877,-24,1,-15,1,9,1,19,1,-17,1,-3,1,0,1,-5,1,4,1,-26,1,-10,1,-19,1
878,-26,1,-15,1,11,1,20,1,-19,1,-2,1,0,1,-5,1,5,1,-25,1,-11,1,-21,1
879,-30,1,-15,1,15,1,22,1,-23,1,0,1,0,1,-4,1,6,1,-23,1,-10,1,-20,1
880,-30,1,-12,1,18,1,21,1,-24,1,3,1,3,1,-3,1,9,1,-20,1,-10,1,-20,1
881,-29,1,-9,1,20,1,19,1,-25,1,5,1,4,1,-2,1,11,1,-19,1,-9,1,-19,1
882,-29,1,-10,1,19,1,19,1,-24,1,4,1,5,1,-1,1,12,1,-18,1,-9,1,-19,1
883,-30,1,-11,1,19,1,20,1,-25,1,4,1,5,1,-1,1,13,1,-17,1,-8,1,-19,1
884,-33,1,-13,1,20,1,23,1,-27,1,3,1,5,1,1,1,16,1,-15,1,-6,1,-17,1
885,-34,1,-13,1,21,1,23,1,-28,1,4,1,5,1,3,1,19,1,-14,1,-3,1,-14,1
886,-32,1,-14,1,18,1,23,1,-25,1,2,1,4,1,3,1,20,1,-13,1,-3,1,-14,1
887,-29,1,-16,1,13,1,22,1,-21,1,-2,1,1,1,1,1,19,1,-13,1,-3,1,-15,1
888,-28,1,-18,1,10,1,23,1,-19,1,-4,1,-1,1,0,1,20,1,-11,1,-3,1,-15,1
889,-28,1,-19,1,9,1,23,1,-19,1,-5,1,-1,1,0,1,22,1,-9,1,-2,1,-15,1
890,-25,1,-17,1,8,1,21,1,-17,1,-5,1,0,1,0,1,25,1,-7,1,0,1,-15,1
891,-23,1,-16,1,7,1,19,1,-15,1,-5,1,0,1,1,1,27,1,-4,1,0,1,-14,1
892,-20,1,-15,1,5,1,17,1,-13,1,-5,1,0,1,2,1,30,1,-2,1,1,1,-13,1
893,-17,1,-16,1,1,1,16,1,-9,1,-8,1,0,1,4,1,31,1,-1,1,3,1,-12,1
894,-11,1,-14,1,-3,1,12,1,-4,1,-9,1,-1,1,4,1,32,1,0,1,3,1,-12,1
895,-9,1,-12,1,-3,1,10,1,-3,1,-8,1,-2,1,6,1,35,1,2,1,6,1,-10,1
896,-15,1,-12,1,3,1,13,1,-9,1,-5,1,0,1,10,1,40,1,8,1,11,1,-5,1
897,-23,1,-12,1,11,1,17,1,-17,1,-1,1,2,1,12,1,44,1,14,1,17,1,-1,1
898,-26,1,-13,1,13,1,19,1,-20,1,0,1,3,1,12,1,47,1,17,1,20,1,0,1
899,-22,1,-12,1,10,1,17,1,-16,1,-1,1,2,1,11,1,47,1,19,1,21,1,0,1
900,-16,1,-10,1,6,1,13,1,-11,1,-2,1,1,1,11,1,49,1,20,1,21,1,0,1
901,-14,1,-11,1,3,1,12,1,-9,1,-4,1,0,1,11,1,51,1,22,1,23,1,2,1
902,-14,1,-13,1,1,1,13,1,-8,1,-6,1,1,1,12,1,55,1,27,1,27,1,5,1
903,-11,1,-13,1,-2,1,12,1,-5,1,-8,1,0,1,12,1,58,1,30,1,30,1,6,1
904,-7,1,-13,1,-6,1,10,1,-1,1,-10,1,-2,1,9,1,59,1,32,1,31,1,7,1
905,-8,1,-13,1,-5,1,10,1,-2,1,-9,1,-2,1,10,1,62,1,37,1,36,1,10,1
906,-8,1,-12,1,-4,1,10,1,-2,1,-8,1,-2,1,10,1,65,1,42,1,41,1,14,1
907,-9,1,-13,1,-4,1,11,1,-3,1,-9,1,-3,1,9,1,66,1,46,1,46,1,16,1
908,-6,1,-10,1,-4,1,8,1,-1,1,-7,1,-2,1,9,1,67,1,49,1,50,1,19,1
909,-6,1,-6,1,0,1,6,1,-3,1,-3,1,-1,1,9,1,69,1,53,1,53,1,21,1
910,-7,1,-5,1,2,1,6,1,-5,1,-2,1,-2,1,9,1,70,1,55,1,55,1,23,1
911,-7,1,-6,1,1,1,6,1,-4,1,-3,1,-5,1,6,1,70,1,55,1,55,1,25,1
912,-7,1,-7,1,0,1,7,1,-4,1,-4,1,-8,1,5,1,69,1,55,1,57,1,27,1
913,-10,1,-9,1,1,1,9,1,-6,1,-4,1,-10,1,5,1,69,1,58,1,59,1,28,1
914,-7,1,-8,1,-1,1,7,1,-3,1,-5,1,-12,1,5,1,67,1,59,1,61,1,28,1
915,-4,1,-9,1,-5,1,6,1,0,1,-7,1,-13,1,4,1,67,1,62,1,63,1,29,1
916,-6,1,-8,1,-2,1,7,1,-2,1,-5,1,-11,1,6,1,68,1,64,1,64,1,30,1
917,-7,1,-8,1,-1,1,7,1,-3,1,-5,1,-9,1,6,1,69,1,65,1,64,1,30,1
918,-5,1,-6,1,-1,1,5,1,-2,1,-4,1,-9,1,4,1,68,1,63,1,63,1,29,1
919,-5,1,-6,1,-1,1,5,1,-2,1,-4,1,-9,1,3,1,66,1,61,1,63,1,29,1
920,-6,1,-5,1,1,1,5,1,-4,1,-2,1,-9,1,2,1,66,1,61,1,65,1,31,1
921,-6,1,-3,1,3,1,4,1,-5,1,0,1,-9,1,2,1,66,1,62,1,66,1,32,1
922,-2,1,1,1,3,1,0,1,-2,1,2,1,-9,1,2,1,65,1,61,1,66,1,33,1
923,-3,1,3,1,6,1,0,1,-4,1,4,1,-7,1,3,1,66,1,61,1,66,1,35,1
924,-1,1,3,1,4,1,-1,1,-2,1,3,1,-7,1,3,1,64,1,58,1,63,1,32,1
925,1,1,4,1,3,1,-2,1,-1,1,4,1,-9,1,1,1,60,1,57,1,62,1,31,1
926,2,1,6,1,4,1,-4,1,-1,1,5,1,-8,1,1,1,58,1,57,1,63,1,32,1
927,1,1,5,1,4,1,-3,1,-1,1,5,1,-8,1,0,1,56,1,53,1,61,1,30,1
928,0,1,2,1,2,1,-1,1,-1,1,2,1,-10,1,-1,1,52,1,49,1,59,1,30,1
929,0,1,3,1,3,1,-1,1,-1,1,3,1,-9,1,-1,1,51,1,47,1,58,1,29,1
930,0,1,5,1,5,1,-2,1,-2,1,5,1,-8,1,0,1,50,1,45,1,57,1,29,1
931,3,1,6,1,3,1,-4,1,0,1,5,1,-9,1,-1,1,48,1,40,1,52,1,27,1
932,10,1,8,1,-2,1,-9,1,6,1,3,1,-10,1,-1,1,46,1,36,1,49,1,25,1
933,11,1,9,1,-2,1,-10,1,7,1,4,1,-7,1,0,1,44,1,34,1,47,1,26,1
934,8,1,9,1,1,1,-8,1,4,1,5,1,-4,1,1,1,41,1,33,1,46,1,25,1
935,7,1,7,1,0,1,-7,1,4,1,4,1,-3,1,1,1,37,1,29,1,44,1,23,1
936,6,1,4,1,-2,1,-5,1,4,1,1,1,-3,1,0,1,32,1,26,1,41,1,21,1
937,3,1,3,1,0,1,-3,1,2,1,2,1,-2,1,0,1,30,1,23,1,39,1,21,1
938,1,1,5,1,4,1,-3,1,-1,1,5,1,0,1,0,1,30,1,21,1,37,1,20,1
939,5,1,7,1,2,1,-6,1,2,1,5,1,0,1,1,1,28,1,15,1,33,1,18,1
940,5,1,6,1,1,1,-5,1,2,1,4,1,1,1,2,1,24,1,9,1,28,1,13,1
941,2,1,5,1,3,1,-3,1,0,1,4,1,2,1,4,1,21,1,5,1,23,1,10,1
942,5,1,7,1,2,1,-6,1,2,1,5,1,3,1,5,1,18,1,1,1,20,1,7,1
943,7,1,7,1,0,1,-7,1,4,1,4,1,3,1,4,1,16,1,-2,1,17,1,5,1
944,5,1,4,1,-1,1,-4,1,3,1,2,1,5,1,3,1,12,1,-6,1,13,1,0,1
945,1,1,-1,1,-2,1,0,1,1,1,-1,1,6,1,2,1,8,1,-10,1,6,1,-6,1
946,-2,1,-4,1,-2,1,3,1,0,1,-3,1,9,1,3,1,6,1,-12,1,4,1,-9,1
947,-5,1,-3,1,2,1,4,1,-4,1,-1,1,10,1,5,1,3,1,-14,1,3,1,-9,1
948,-4,1,-3,1,1,1,3,1,-3,1,-1,1,8,1,3,1,0,1,-16,1,1,1,-11,1
949,-5,1,-2,1,3,1,3,1,-4,1,0,1,7,1,2,1,-1,1,-17,1,1,1,-10,1
950,-4,1,0,1,4,1,2,1,-4,1,2,1,6,1,0,1,-2,1,-19,1,0,1,-9,1
951,-4,1,1,1,5,1,1,1,-4,1,3,1,4,1,-4,1,-4,1,-21,1,-1,1,-10,1
952,-3,1,3,1,6,1,0,1,-4,1,4,1,1,1,-8,1,-5,1,-23,1,-4,1,-10,1
953,-2,1,2,1,4,1,0,1,-3,1,3,1,-2,1,-12,1,-8,1,-25,1,-6,1,-12,1
954,-4,1,2,1,6,1,1,1,-5,1,4,1,-2,1,-13,1,-8,1,-27,1,-7,1,-12,1
955,-5,1,5,1,10,1,0,1,-7,1,7,1,0,1,-12,1,-7,1,-27,1,-6,1,-12,1
956,-6,1,2,1,8,1,2,1,-7,1,5,1,-1,1,-13,1,-11,1,-29,1,-7,1,-14,1
957,-9,1,-3,1,6,1,6,1,-8,1,1,1,-4,1,-15,1,-15,1,-32,1,-10,1,-17,1
958,-18,1,-8,1,10,1,13,1,-14,1,1,1,-6,1,-17,1,-16,1,-32,1,-10,1,-17,1
959,-21,1,-7,1,14,1,14,1,-18,1,3,1,-6,1,-17,1,-17,1,-31,1,-12,1,-16,1
960,-21,1,-7,1,14,1,14,1,-18,1,3,1,-7,1,-17,1,-18,1,-32,1,-15,1,-17,1
961,-19,1,-7,1,12,1,13,1,-16,1,2,1,-8,1,-17,1,-17,1,-33,1,-17,1,-19,1
962,-17,1,-6,1,11,1,11,1,-14,1,2,1,-7,1,-16,1,-16,1,-33,1,-19,1,-20,1
963,-13,1,-6,1,7,1,9,1,-10,1,0,1,-7,1,-16,1,-16,1,-35,1,-22,1,-21,1
964,-13,1,-7,1,6,1,10,1,-10,1,-1,1,-5,1,-16,1,-14,1,-34,1,-23,1,-22,1
965,-15,1,-9,1,6,1,12,1,-11,1,-2,1,-1,1,-13,1,-14,1,-33,1,-23,1,-22,1
966,-9,1,-7,1,2,1,8,1,-6,1,-3,1,1,1,-13,1,-15,1,-33,1,-23,1,-22,1
967,-3,1,-5,1,-2,1,4,1,-1,1,-4,1,2,1,-11,1,-15,1,-34,1,-23,1,-21,1
968,-7,1,-3,1,4,1,5,1,-6,1,0,1,4,1,-9,1,-13,1,-31,1,-20,1,-19,1
969,-10,1,-1,1,9,1,5,1,-10,1,4,1,3,1,-8,1,-12,1,-29,1,-19,1,-17,1
970,-12,1,-1,1,11,1,6,1,-12,1,5,1,3,1,-8,1,-12,1,-30,1,-19,1,-16,1
971,-14,1,-3,1,11,1,8,1,-13,1,4,1,3,1,-10,1,-13,1,-30,1,-19,1,-17,1
972,-15,1,-5,1,10,1,10,1,-13,1,2,1,2,1,-10,1,-14,1,-30,1,-19,1,-17,1
973,-20,1,-7,1,13,1,13,1,-17,1,3,1,3,1,-8,1,-12,1,-28,1,-17,1,-15,1
974,-18,1,-6,1,12,1,12,1,-15,1,3,1,4,1,-6,1,-10,1,-29,1,-17,1,-15,1
975,-15,1,-4,1,11,1,9,1,-13,1,3,1,5,1,-5,1,-9,1,-28,1,-17,1,-14,1
976,-14,1,-4,1,10,1,9,1,-12,1,3,1,6,1,-3,1,-9,1,-26,1,-17,1,-13,1
977,-15,1,-5,1,10,1,10,1,-13,1,2,1,8,1,-4,1,-9,1,-26,1,-16,1,-14,1
978,-16,1,-7,1,9,1,11,1,-13,1,1,1,8,1,-5,1,-10,1,-27,1,-17,1,-15,1
979,-19,1,-9,1,10,1,14,1,-15,1,0,1,6,1,-6,1,-11,1,-27,1,-17,1,-15,1
980,-19,1,-9,1,10,1,14,1,-15,1,0,1,6,1,-5,1,-11,1,-27,1,-18,1,-15,1
981,-16,1,-11,1,5,1,13,1,-11,1,-3,1,4,1,-6,1,-11,1,-29,1,-20,1,-16,1
982,-17,1,-12,1,5,1,14,1,-11,1,-4,1,4,1,-7,1,-12,1,-29,1,-20,1,-15,1
983,-20,1,-12,1,8,1,16,1,-14,1,-2,1,5,1,-7,1,-11,1,-27,1,-18,1,-13,1
984,-21,1,-12,1,9,1,16,1,-15,1,-2,1,5,1,-8,1,-11,1,-24,1,-15,1,-10,1
985,-19,1,-11,1,8,1,15,1,-14,1,-2,1,4,1,-9,1,-12,1,-24,1,-15,1,-10,1
986,-15,1,-11,1,4,1,13,1,-10,1,-4,1,3,1,-10,1,-12,1,-26,1,-16,1,-12,1
987,-20,1,-13,1,7,1,16,1,-14,1,-3,1,4,1,-8,1,-10,1,-27,1,-19,1,-15,1
988,-23,1,-15,1,8,1,19,1,-16,1,-4,1,5,1,-7,1,-9,1,-29,1,-23,1,-19,1
989,-24,1,-16,1,8,1,20,1,-16,1,-4,1,5,1,-6,1,-9,1,-29,1,-26,1,-21,1
990,-23,1,-14,1,9,1,18,1,-16,1,-3,1,5,1,-6,1,-10,1,-30,1,-28,1,-24,1
991,-24,1,-15,1,9,1,19,1,-17,1,-3,1,4,1,-6,1,-12,1,-30,1,-29,1,-23,1
992,-24,1,-13,1,11,1,18,1,-18,1,-1,1,4,1,-5,1,-11,1,-27,1,-25,1,-19,1
993,-21,1,-10,1,11,1,15,1,-16,1,0,1,5,1,-3,1,-10,1,-26,1,-21,1,-16,1
994,-22,1,-10,1,12,1,16,1,-17,1,1,1,7,1,-3,1,-10,1,-24,1,-20,1,-15,1
995,-24,1,-14,1,10,1,19,1,-17,1,-2,1,7,1,-4,1,-10,1,-25,1,-21,1,-15,1
996,-24,1,-16,1,8,1,20,1,-16,1,-4,1,7,1,-5,1,-11,1,-26,1,-23,1,-17,1
997,-24,1,-16,1,8,1,20,1,-16,1,-4,1,8,1,-3,1,-10,1,-27,1,-25,1,-18,1
998,-24,1,-14,1,10,1,19,1,-17,1,-2,1,7,1,-3,1,-10,1,-27,1,-26,1,-19,1
999,-22,1,-12,1,10,1,17,1,-16,1,-1,1,7,1,-1,1,-10,1,-26,1,-24,1,-18,1
1000,-20,1,-12,1,8,1,16,1,-14,1,-2,1,6,1,0,1,-11,1,-26,1,-24,1,-17,1
1001,-21,1,-11,1,10,1,16,1,-16,1,-1,1,7,1,-1,1,-11,1,-27,1,-23,1,-17,1
1002,-17,1,-10,1,7,1,13,1,-12,1,-2,1,7,1,-2,1,-12,1,-27,1,-24,1,-18,1
1003,-21,1,-11,1,10,1,16,1,-16,1,-1,1,8,1,-2,1,-12,1,-26,1,-24,1,-18,1
1004,-18,1,-10,1,8,1,14,1,-13,1,-1,1,7,1,-4,1,-14,1,-28,1,-26,1,-19,1
1005,-16,1,-11,1,5,1,13,1,-11,1,-3,1,4,1,-7,1,-15,1,-30,1,-29,1,-22,1
1006,-15,1,-12,1,3,1,13,1,-9,1,-5,1,4,1,-8,1,-15,1,-31,1,-31,1,-23,1
1007,-15,1,-12,1,3,1,13,1,-9,1,-5,1,5,1,-10,1,-15,1,-31,1,-31,1,-23,1
1008,-18,1,-10,1,8,1,14,1,-13,1,-1,1,6,1,-8,1,-13,1,-32,1,-29,1,-20,1
1009,-21,1,-11,1,10,1,16,1,-16,1,-1,1,6,1,-5,1,-13,1,-30,1,-26,1,-18,1
1010,-24,1,-12,1,12,1,18,1,-18,1,0,1,6,1,-2,1,-13,1,-29,1,-24,1,-16,1
1011,-23,1,-11,1,12,1,17,1,-18,1,0,1,6,1,-1,1,-12,1,-28,1,-24,1,-15,1
1012,-22,1,-10,1,12,1,16,1,-17,1,1,1,8,1,-1,1,-11,1,-28,1,-25,1,-16,1
1013,-22,1,-11,1,11,1,16,1,-17,1,0,1,10,1,-2,1,-9,1,-28,1,-25,1,-16,1
1014,-26,1,-10,1,16,1,18,1,-21,1,3,1,14,1,0,1,-8,1,-27,1,-24,1,-16,1
1015,-21,1,-9,1,12,1,15,1,-17,1,1,1,14,1,-2,1,-10,1,-29,1,-25,1,-17,1
1016,-17,1,-11,1,6,1,14,1,-12,1,-3,1,13,1,-4,1,-14,1,-32,1,-27,1,-19,1
1017,-22,1,-14,1,8,1,18,1,-15,1,-3,1,14,1,-3,1,-14,1,-31,1,-27,1,-19,1
1018,-25,1,-13,1,12,1,19,1,-19,1,-1,1,16,1,-1,1,-12,1,-29,1,-25,1,-17,1
1019,-25,1,-10,1,15,1,17,1,-20,1,2,1,19,1,2,1,-10,1,-26,1,-24,1,-16,1
1020,-26,1,-10,1,16,1,18,1,-21,1,3,1,21,1,6,1,-10,1,-26,1,-24,1,-15,1
1021,-30,1,-8,1,22,1,19,1,-26,1,7,1,23,1,9,1,-7,1,-24,1,-24,1,-15,1
1022,-30,1,-8,1,22,1,19,1,-26,1,7,1,24,1,10,1,-6,1,-24,1,-25,1,-16,1
1023,-27,1,-10,1,17,1,18,1,-22,1,3,1,26,1,10,1,-5,1,-25,1,-25,1,-16,1
1024,-25,1,-13,1,12,1,19,1,-19,1,-1,1,26,1,8,1,-6,1,-27,1,-26,1,-18,1
1025,-25,1,-12,1,13,1,18,1,-19,1,0,1,26,1,8,1,-5,1,-27,1,-25,1,-17,1
1026,-22,1,-10,1,12,1,16,1,-17,1,1,1,24,1,8,1,-5,1,-25,1,-23,1,-15,1
1027,-21,1,-7,1,14,1,14,1,-18,1,3,1,23,1,7,1,-7,1,-25,1,-21,1,-13,1
1028,-21,1,-8,1,13,1,14,1,-17,1,2,1,20,1,5,1,-11,1,-25,1,-21,1,-13,1
1029,-24,1,-11,1,13,1,17,1,-19,1,1,1,16,1,3,1,-12,1,-24,1,-21,1,-13,1
1030,-25,1,-13,1,12,1,19,1,-19,1,-1,1,12,1,0,1,-13,1,-24,1,-21,1,-13,1
1031,-24,1,-10,1,14,1,17,1,-19,1,2,1,11,1,-2,1,-11,1,-23,1,-20,1,-11,1
1032,-27,1,-10,1,17,1,18,1,-22,1,3,1,8,1,-4,1,-11,1,-23,1,-21,1,-11,1
1033,-26,1,-12,1,14,1,19,1,-20,1,1,1,6,1,-8,1,-13,1,-27,1,-25,1,-15,1
1034,-24,1,-13,1,11,1,18,1,-18,1,-1,1,4,1,-11,1,-16,1,-31,1,-28,1,-18,1
1035,-26,1,-13,1,13,1,19,1,-20,1,0,1,4,1,-12,1,-18,1,-32,1,-28,1,-19,1
1036,-26,1,-14,1,12,1,20,1,-19,1,-1,1,4,1,-14,1,-20,1,-31,1,-27,1,-18,1
1037,-27,1,-17,1,10,1,22,1,-19,1,-4,1,3,1,-15,1,-21,1,-29,1,-25,1,-18,1
1038,-26,1,-18,1,8,1,22,1,-17,1,-5,1,3,1,-16,1,-21,1,-29,1,-26,1,-18,1
1039,-26,1,-18,1,8,1,22,1,-17,1,-5,1,3,1,-16,1,-21,1,-29,1,-28,1,-18,1
1040,-24,1,-18,1,6,1,21,1,-15,1,-6,1,3,1,-16,1,-24,1,-31,1,-30,1,-20,1
1041,-25,1,-17,1,8,1,21,1,-17,1,-5,1,2,1,-16,1,-25,1,-32,1,-31,1,-20,1
1042,-21,1,-15,1,6,1,18,1,-14,1,-5,1,0,1,-19,1,-25,1,-35,1,-32,1,-21,1
1043,-17,1,-12,1,5,1,14,1,-11,1,-4,1,-2,1,-20,1,-24,1,-35,1,-31,1,-21,1
1044,-18,1,-11,1,7,1,14,1,-13,1,-2,1,-1,1,-19,1,-23,1,-34,1,-31,1,-22,1
1045,-17,1,-10,1,7,1,13,1,-12,1,-2,1,0,1,-19,1,-23,1,-34,1,-31,1,-24,1
1046,-16,1,-10,1,6,1,13,1,-11,1,-2,1,0,1,-19,1,-22,1,-34,1,-30,1,-21,1
1047,-16,1,-10,1,6,1,13,1,-11,1,-2,1,-1,1,-19,1,-23,1,-32,1,-29,1,-19,1
1048,-17,1,-10,1,7,1,13,1,-12,1,-2,1,-2,1,-20,1,-24,1,-32,1,-28,1,-18,1
1049,-19,1,-12,1,7,1,15,1,-13,1,-3,1,0,1,-18,1,-24,1,-31,1,-26,1,-17,1
1050,-23,1,-14,1,9,1,18,1,-16,1,-3,1,1,1,-17,1,-23,1,-30,1,-25,1,-16,1
1051,-27,1,-16,1,11,1,21,1,-19,1,-3,1,2,1,-15,1,-23,1,-29,1,-24,1,-15,1
1052,-27,1,-16,1,11,1,21,1,-19,1,-3,1,4,1,-13,1,-22,1,-28,1,-23,1,-14,1
1053,-29,1,-17,1,12,1,23,1,-21,1,-3,1,7,1,-13,1,-21,1,-28,1,-23,1,-13,1
1054,-27,1,-16,1,11,1,21,1,-19,1,-3,1,6,1,-14,1,-21,1,-29,1,-23,1,-13,1
1055,-26,1,-15,1,11,1,20,1,-19,1,-2,1,6,1,-12,1,-20,1,-29,1,-22,1,-13,1
1056,-26,1,-15,1,11,1,20,1,-19,1,-2,1,6,1,-12,1,-20,1,-29,1,-21,1,-12,1
1057,-27,1,-15,1,12,1,21,1,-20,1,-2,1,7,1,-12,1,-20,1,-28,1,-21,1,-12,1
1058,-25,1,-15,1,10,1,20,1,-18,1,-3,1,8,1,-12,1,-21,1,-27,1,-22,1,-14,1
1059,-22,1,-14,1,8,1,18,1,-15,1,-3,1,8,1,-13,1,-22,1,-25,1,-23,1,-14,1
1060,-18,1,-14,1,4,1,16,1,-11,1,-5,1,8,1,-13,1,-23,1,-26,1,-24,1,-15,1
1061,-17,1,-14,1,3,1,15,1,-10,1,-6,1,8,1,-13,1,-23,1,-27,1,-25,1,-15,1
1062,-15,1,-14,1,1,1,14,1,-8,1,-7,1,8,1,-13,1,-23,1,-26,1,-25,1,-16,1
1063,-16,1,-13,1,3,1,14,1,-10,1,-5,1,8,1,-13,1,-21,1,-26,1,-24,1,-16,1
1064,-23,1,-15,1,8,1,19,1,-16,1,-4,1,7,1,-13,1,-20,1,-27,1,-25,1,-15,1
1065,-28,1,-15,1,13,1,21,1,-21,1,-1,1,6,1,-13,1,-21,1,-28,1,-25,1,-16,1
1066,-32,1,-15,1,17,1,23,1,-25,1,1,1,7,1,-11,1,-19,1,-26,1,-24,1,-14,1
1067,-35,1,-16,1,19,1,25,1,-27,1,1,1,9,1,-8,1,-19,1,-25,1,-24,1,-13,1
1068,-32,1,-15,1,17,1,23,1,-25,1,1,1,9,1,-8,1,-19,1,-26,1,-24,1,-13,1
1069,-28,1,-16,1,12,1,22,1,-20,1,-2,1,9,1,-9,1,-21,1,-26,1,-26,1,-15,1
1070,-29,1,-18,1,11,1,23,1,-20,1,-4,1,9,1,-11,1,-21,1,-26,1,-26,1,-15,1
1071,-31,1,-19,1,12,1,25,1,-22,1,-4,1,9,1,-9,1,-20,1,-25,1,-26,1,-15,1
1072,-30,1,-16,1,14,1,23,1,-22,1,-1,1,10,1,-7,1,-19,1,-24,1,-24,1,-13,1
1073,-28,1,-12,1,16,1,20,1,-22,1,2,1,11,1,-6,1,-18,1,-23,1,-23,1,-12,1
1074,-23,1,-10,1,13,1,16,1,-18,1,1,1,9,1,-8,1,-19,1,-25,1,-24,1,-12,1
1075,-21,1,-9,1,12,1,15,1,-17,1,1,1,9,1,-9,1,-19,1,-25,1,-22,1,-12,1
1076,-19,1,-6,1,13,1,12,1,-16,1,3,1,11,1,-8,1,-17,1,-23,1,-20,1,-11,1
1077,-18,1,-8,1,10,1,13,1,-14,1,1,1,12,1,-7,1,-17,1,-22,1,-19,1,-11,1
1078,-17,1,-10,1,7,1,13,1,-12,1,-2,1,12,1,-8,1,-19,1,-22,1,-20,1,-12,1
1079,-18,1,-10,1,8,1,14,1,-13,1,-1,1,13,1,-7,1,-19,1,-22,1,-20,1,-11,1
1080,-18,1,-12,1,6,1,15,1,-12,1,-3,1,11,1,-9,1,-19,1,-23,1,-23,1,-12,1
1081,-21,1,-13,1,8,1,17,1,-15,1,-3,1,10,1,-10,1,-21,1,-24,1,-24,1,-12,1
1082,-18,1,-12,1,6,1,15,1,-12,1,-3,1,6,1,-12,1,-23,1,-27,1,-25,1,-14,1
1083,-18,1,-13,1,5,1,15,1,-12,1,-4,1,5,1,-11,1,-23,1,-28,1,-25,1,-14,1
1084,-18,1,-12,1,6,1,15,1,-12,1,-3,1,6,1,-9,1,-22,1,-27,1,-25,1,-14,1
1085,-18,1,-12,1,6,1,15,1,-12,1,-3,1,7,1,-7,1,-21,1,-27,1,-26,1,-14,1
1086,-17,1,-11,1,6,1,14,1,-12,1,-3,1,9,1,-8,1,-21,1,-28,1,-26,1,-16,1
1087,-17,1,-12,1,5,1,14,1,-11,1,-4,1,11,1,-7,1,-22,1,-27,1,-26,1,-15,1
1088,-20,1,-13,1,7,1,16,1,-14,1,-3,1,12,1,-7,1,-21,1,-25,1,-24,1,-13,1
1089,-22,1,-12,1,10,1,17,1,-16,1,-1,1,14,1,-6,1,-21,1,-22,1,-22,1,-11,1
1090,-18,1,-10,1,8,1,14,1,-13,1,-1,1,14,1,-8,1,-22,1,-23,1,-21,1,-9,1
1091,-21,1,-9,1,12,1,15,1,-17,1,1,1,16,1,-8,1,-20,1,-21,1,-19,1,-8,1
1092,-25,1,-8,1,17,1,16,1,-21,1,4,1,17,1,-8,1,-18,1,-19,1,-18,1,-7,1
1093,-23,1,-7,1,16,1,15,1,-20,1,4,1,15,1,-8,1,-18,1,-19,1,-18,1,-8,1
1094,-21,1,-8,1,13,1,14,1,-17,1,2,1,13,1,-9,1,-20,1,-20,1,-20,1,-10,1
1095,-22,1,-8,1,14,1,15,1,-18,1,3,1,13,1,-9,1,-21,1,-21,1,-22,1,-12,1
1096,-20,1,-8,1,12,1,14,1,-16,1,2,1,12,1,-9,1,-22,1,-21,1,-24,1,-14,1
1097,-18,1,-8,1,10,1,13,1,-14,1,1,1,12,1,-9,1,-21,1,-21,1,-24,1,-14,1
1098,-20,1,-8,1,12,1,14,1,-16,1,2,1,13,1,-7,1,-19,1,-20,1,-22,1,-12,1
1099,-19,1,-8,1,11,1,13,1,-15,1,1,1,12,1,-6,1,-17,1,-20,1,-23,1,-11,1
1100,-12,1,-10,1,2,1,11,1,-7,1,-4,1,9,1,-9,1,-20,1,-22,1,-27,1,-13,1
1101,-8,1,-9,1,-1,1,8,1,-4,1,-5,1,10,1,-10,1,-21,1,-22,1,-27,1,-12,1
1102,-10,1,-8,1,2,1,9,1,-6,1,-3,1,11,1,-8,1,-21,1,-20,1,-25,1,-10,1
1103,-16,1,-9,1,7,1,12,1,-12,1,-1,1,13,1,-6,1,-19,1,-18,1,-22,1,-7,1
1104,-21,1,-7,1,14,1,14,1,-18,1,3,1,13,1,-5,1,-18,1,-15,1,-19,1,-6,1
1105,-21,1,-6,1,15,1,13,1,-18,1,4,1,12,1,-4,1,-17,1,-14,1,-17,1,-7,1
1106,-19,1,-4,1,15,1,11,1,-17,1,5,1,13,1,-4,1,-17,1,-14,1,-17,1,-8,1
1107,-16,1,-2,1,14,1,9,1,-15,1,6,1,14,1,-4,1,-17,1,-16,1,-20,1,-11,1
1108,-13,1,0,1,13,1,6,1,-13,1,6,1,17,1,-2,1,-16,1,-16,1,-21,1,-11,1
1109,-15,1,0,1,15,1,7,1,-15,1,7,1,20,1,0,1,-14,1,-14,1,-20,1,-9,1
1110,-18,1,-2,1,16,1,10,1,-17,1,7,1,20,1,0,1,-13,1,-10,1,-18,1,-7,1
1111,-19,1,-4,1,15,1,11,1,-17,1,5,1,18,1,-2,1,-12,1,-7,1,-16,1,-6,1
1112,-18,1,-5,1,13,1,11,1,-16,1,4,1,18,1,-3,1,-10,1,-4,1,-12,1,-5,1
1113,-16,1,-5,1,11,1,10,1,-14,1,3,1,19,1,-1,1,-5,1,2,1,-7,1,-2,1
1114,-16,1,-3,1,13,1,9,1,-15,1,5,1,21,1,5,1,7,1,14,1,2,1,5,1
1115,-15,1,2,1,17,1,6,1,-16,1,9,1,21,1,13,1,33,1,37,1,23,1,21,1
1116,-9,1,10,1,19,1,0,1,-14,1,14,1,20,1,24,1,65,1,68,1,56,1,45,1
1117,-3,1,20,1,23,1,-8,1,-13,1,21,1,20,1,33,1,94,1,101,1,95,1,74,1
1118,5,1,33,1,28,1,-19,1,-11,1,31,1,18,1,40,1,114,1,132,1,137,1,108,1
1119,19,1,51,1,32,1,-35,1,-6,1,42,1,17,1,47,1,129,1,164,1,181,1,143,1
1120,32,1,71,1,39,1,-51,1,-3,1,55,1,14,1,53,1,143,1,197,1,228,1,181,1
1121,43,1,94,1,51,1,-68,1,-4,1,73,1,9,1,54,1,152,1,229,1,277,1,223,1
1122,54,1,113,1,59,1,-83,1,-2,1,86,1,-1,1,47,1,148,1,255,1,323,1,263,1
1123,64,1,127,1,63,1,-95,1,1,1,95,1,-11,1,40,1,138,1,271,1,357,1,292,1
1124,73,1,135,1,62,1,-104,1,6,1,99,1,-19,1,33,1,123,1,276,1,374,1,307,1
1125,85,1,135,1,50,1,-110,1,18,1,93,1,-25,1,27,1,103,1,272,1,373,1,307,1
1126,87,1,130,1,43,1,-108,1,22,1,87,1,-27,1,17,1,76,1,254,1,353,1,292,1
1127,83,1,116,1,33,1,-99,1,25,1,75,1,-32,1,0,1,35,1,216,1,309,1,262,1
1128,72,1,96,1,24,1,-84,1,24,1,60,1,-39,1,-24,1,-18,1,150,1,232,1,208,1
1129,55,1,78,1,23,1,-66,1,16,1,51,1,-45,1,-53,1,-82,1,59,1,129,1,137,1
1130,36,1,58,1,22,1,-47,1,7,1,40,1,-49,1,-79,1,-140,1,-27,1,36,1,74,1
1131,19,1,35,1,16,1,-27,1,2,1,26,1,-52,1,-98,1,-182,1,-91,1,-31,1,25,1
1132,4,1,15,1,11,1,-9,1,-3,1,13,1,-53,1,-107,1,-202,1,-132,1,-76,1,-8,1
1133,-3,1,0,1,3,1,1,1,-3,1,1,1,-53,1,-110,1,-208,1,-155,1,-105,1,-32,1
1134,-8,1,-12,1,-4,1,10,1,-2,1,-8,1,-51,1,-109,1,-204,1,-165,1,-123,1,-51,1
1135,-13,1,-20,1,-7,1,16,1,-3,1,-14,1,-49,1,-104,1,-195,1,-166,1,-130,1,-62,1
1136,-19,1,-23,1,-4,1,21,1,-8,1,-14,1,-44,1,-97,1,-178,1,-155,1,-125,1,-62,1
1137,-23,1,-25,1,-2,1,24,1,-11,1,-14,1,-39,1,-89,1,-159,1,-138,1,-116,1,-60,1
1138,-23,1,-24,1,-1,1,23,1,-11,1,-13,1,-34,1,-77,1,-137,1,-119,1,-104,1,-55,1
1139,-14,1,-22,1,-8,1,18,1,-3,1,-15,1,-29,1,-66,1,-115,1,-101,1,-93,1,-51,1
1140,-6,1,-20,1,-14,1,13,1,4,1,-17,1,-23,1,-55,1,-96,1,-85,1,-85,1,-49,1
1141,-4,1,-17,1,-13,1,10,1,4,1,-15,1,-17,1,-45,1,-80,1,-70,1,-77,1,-47,1
1142,-11,1,-15,1,-4,1,13,1,-4,1,-10,1,-8,1,-34,1,-65,1,-54,1,-67,1,-41,1
1143,-18,1,-13,1,5,1,15,1,-12,1,-4,1,-1,1,-27,1,-54,1,-44,1,-59,1,-35,1
1144,-20,1,-12,1,8,1,16,1,-14,1,-2,1,0,1,-24,1,-47,1,-39,1,-53,1,-31,1
1145,-15,1,-11,1,4,1,13,1,-10,1,-4,1,-2,1,-25,1,-43,1,-35,1,-49,1,-29,1
1146,-13,1,-9,1,4,1,11,1,-9,1,-3,1,-4,1,-26,1,-39,1,-30,1,-43,1,-25,1
1147,-17,1,-6,1,11,1,11,1,-14,1,2,1,-2,1,-23,1,-32,1,-24,1,-36,1,-19,1
1148,-18,1,-5,1,13,1,11,1,-16,1,4,1,0,1,-20,1,-27,1,-19,1,-32,1,-16,1
1149,-18,1,-10,1,8,1,14,1,-13,1,-1,1,0,1,-20,1,-25,1,-16,1,-33,1,-16,1
1150,-18,1,-12,1,6,1,15,1,-12,1,-3,1,0,1,-18,1,-23,1,-13,1,-33,1,-18,1
1151,-17,1,-13,1,4,1,15,1,-11,1,-5,1,1,1,-16,1,-21,1,-12,1,-34,1,-19,1
1152,-14,1,-11,1,3,1,12,1,-9,1,-4,1,3,1,-14,1,-20,1,-12,1,-36,1,-19,1
1153,-13,1,-12,1,1,1,12,1,-7,1,-6,1,4,1,-14,1,-19,1,-11,1,-35,1,-20,1
1154,-16,1,-13,1,3,1,14,1,-10,1,-5,1,3,1,-14,1,-21,1,-12,1,-35,1,-19,1
1155,-19,1,-10,1,9,1,14,1,-14,1,-1,1,2,1,-13,1,-19,1,-11,1,-32,1,-17,1
1156,-19,1,-7,1,12,1,13,1,-16,1,2,1,2,1,-13,1,-17,1,-8,1,-29,1,-13,1
1157,-19,1,-6,1,13,1,12,1,-16,1,3,1,5,1,-12,1,-16,1,-6,1,-26,1,-10,1
1158,-19,1,-6,1,13,1,12,1,-16,1,3,1,8,1,-12,1,-14,1,-3,1,-25,1,-11,1
1159,-18,1,-6,1,12,1,12,1,-15,1,3,1,9,1,-11,1,-14,1,-3,1,-27,1,-12,1
1160,-18,1,-7,1,11,1,12,1,-15,1,2,1,9,1,-11,1,-14,1,-3,1,-28,1,-13,1
1161,-13,1,-7,1,6,1,10,1,-10,1,-1,1,7,1,-11,1,-14,1,-5,1,-30,1,-16,1
1162,-8,1,-6,1,2,1,7,1,-5,1,-2,1,7,1,-11,1,-13,1,-5,1,-31,1,-16,1
1163,-10,1,-5,1,5,1,7,1,-8,1,0,1,8,1,-8,1,-11,1,-3,1,-28,1,-14,1
1164,-12,1,-5,1,7,1,8,1,-10,1,1,1,9,1,-9,1,-11,1,0,1,-25,1,-11,1
1165,-13,1,-3,1,10,1,8,1,-12,1,3,1,10,1,-8,1,-10,1,3,1,-24,1,-11,1
1166,-8,1,-1,1,7,1,4,1,-8,1,3,1,9,1,-10,1,-11,1,3,1,-25,1,-12,1
1167,-7,1,-1,1,6,1,4,1,-7,1,2,1,9,1,-10,1,-10,1,3,1,-26,1,-13,1
1168,-6,1,-2,1,4,1,4,1,-5,1,1,1,9,1,-10,1,-10,1,2,1,-27,1,-14,1
1169,-7,1,-1,1,6,1,4,1,-7,1,2,1,11,1,-7,1,-7,1,3,1,-25,1,-13,1
1170,-6,1,0,1,6,1,3,1,-6,1,3,1,12,1,-4,1,-6,1,4,1,-24,1,-12,1
1171,-7,1,-1,1,6,1,4,1,-7,1,2,1,13,1,-3,1,-4,1,6,1,-23,1,-11,1
1172,-5,1,0,1,5,1,2,1,-5,1,2,1,13,1,-4,1,-1,1,8,1,-22,1,-10,1
1173,-3,1,1,1,4,1,1,1,-3,1,2,1,12,1,-3,1,0,1,9,1,-21,1,-8,1
1174,-7,1,0,1,7,1,3,1,-7,1,3,1,11,1,-3,1,0,1,9,1,-21,1,-7,1
1175,-9,1,0,1,9,1,4,1,-9,1,4,1,12,1,-2,1,0,1,9,1,-19,1,-6,1
1176,-10,1,0,1,10,1,5,1,-10,1,5,1,11,1,-3,1,-1,1,11,1,-16,1,-3,1
1177,-11,1,0,1,11,1,5,1,-11,1,5,1,11,1,-3,1,0,1,12,1,-13,1,-1,1
1178,-6,1,2,1,8,1,2,1,-7,1,5,1,10,1,-3,1,0,1,13,1,-12,1,-2,1
1179,-2,1,4,1,6,1,-1,1,-4,1,5,1,11,1,-2,1,0,1,14,1,-12,1,-2,1
1180,-1,1,3,1,4,1,-1,1,-2,1,3,1,12,1,-2,1,2,1,15,1,-13,1,-3,1
1181,-2,1,4,1,6,1,-1,1,-4,1,5,1,14,1,-2,1,4,1,17,1,-11,1,-4,1
1182,-3,1,5,1,8,1,-1,1,-5,1,6,1,16,1,-1,1,6,1,20,1,-9,1,-2,1
1183,-1,1,6,1,7,1,-2,1,-4,1,6,1,15,1,-1,1,7,1,20,1,-8,1,-1,1
1184,-2,1,6,1,8,1,-2,1,-5,1,7,1,14,1,0,1,8,1,22,1,-7,1,0,1
1185,-3,1,6,1,9,1,-1,1,-6,1,7,1,13,1,-1,1,9,1,22,1,-7,1,0,1
1186,-5,1,5,1,10,1,0,1,-7,1,7,1,13,1,0,1,10,1,23,1,-6,1,1,1
1187,-5,1,4,1,9,1,0,1,-7,1,6,1,15,1,0,1,12,1,23,1,-6,1,1,1
1188,-5,1,4,1,9,1,0,1,-7,1,6,1,17,1,4,1,15,1,26,1,-4,1,2,1
1189,-6,1,4,1,10,1,1,1,-8,1,7,1,19,1,6,1,18,1,29,1,-1,1,3,1
1190,0,1,5,1,5,1,-2,1,-2,1,5,1,18,1,6,1,19,1,31,1,0,1,5,1
1191,6,1,9,1,3,1,-7,1,2,1,6,1,18,1,5,1,21,1,32,1,1,1,5,1
1192,12,1,12,1,0,1,-12,1,6,1,6,1,16,1,5,1,21,1,34,1,3,1,5,1
1193,13,1,12,1,-1,1,-12,1,7,1,6,1,16,1,6,1,22,1,37,1,4,1,6,1
1194,9,1,12,1,3,1,-10,1,3,1,8,1,18,1,8,1,24,1,39,1,6,1,8,1
1195,8,1,14,1,6,1,-11,1,1,1,10,1,17,1,9,1,28,1,40,1,7,1,8,1
1196,7,1,15,1,8,1,-11,1,0,1,12,1,17,1,10,1,32,1,44,1,10,1,11,1
1197,7,1,14,1,7,1,-10,1,0,1,11,1,15,1,10,1,34,1,47,1,12,1,13,1
1198,6,1,12,1,6,1,-9,1,0,1,9,1,14,1,10,1,36,1,50,1,14,1,14,1
1199,4,1,12,1,8,1,-8,1,-2,1,10,1,14,1,11,1,40,1,54,1,18,1,17,1
1200,1,1,12,1,11,1,-6,1,-5,1,12,1,15,1,12,1,44,1,59,1,20,1,20,1
1201,1,1,12,1,11,1,-6,1,-5,1,12,1,15,1,12,1,47,1,61,1,22,1,22,1
1202,2,1,13,1,11,1,-7,1,-4,1,12,1,15,1,13,1,49,1,64,1,25,1,23,1
1203,2,1,14,1,12,1,-8,1,-5,1,13,1,16,1,15,1,52,1,66,1,29,1,25,1
1204,2,1,14,1,12,1,-8,1,-5,1,13,1,16,1,17,1,55,1,69,1,33,1,26,1
1205,3,1,18,1,15,1,-10,1,-6,1,17,1,16,1,19,1,58,1,73,1,37,1,28,1
1206,7,1,20,1,13,1,-13,1,-3,1,17,1,18,1,20,1,63,1,78,1,40,1,31,1
1207,14,1,21,1,7,1,-17,1,4,1,14,1,19,1,21,1,66,1,81,1,42,1,32,1
1208,17,1,22,1,5,1,-19,1,6,1,14,1,21,1,24,1,70,1,85,1,44,1,35,1
1209,20,1,23,1,3,1,-21,1,9,1,13,1,22,1,27,1,74,1,90,1,46,1,37,1
1210,22,1,21,1,-1,1,-21,1,12,1,10,1,22,1,28,1,77,1,92,1,47,1,37,1
1211,23,1,21,1,-2,1,-22,1,13,1,10,1,23,1,30,1,80,1,96,1,49,1,38,1
1212,22,1,24,1,2,1,-23,1,10,1,13,1,25,1,35,1,85,1,101,1,54,1,42,1
1213,23,1,24,1,1,1,-23,1,11,1,13,1,25,1,37,1,87,1,105,1,57,1,43,1
1214,24,1,23,1,-1,1,-23,1,13,1,11,1,25,1,38,1,88,1,107,1,57,1,43,1
1215,25,1,24,1,-1,1,-24,1,13,1,12,1,25,1,38,1,88,1,109,1,59,1,44,1
1216,21,1,22,1,1,1,-21,1,10,1,12,1,27,1,39,1,90,1,110,1,61,1,46,1
1217,19,1,22,1,3,1,-20,1,8,1,13,1,28,1,40,1,91,1,112,1,63,1,45,1
1218,17,1,20,1,3,1,-18,1,7,1,12,1,28,1,39,1,91,1,114,1,64,1,46,1
1219,13,1,18,1,5,1,-15,1,4,1,12,1,28,1,39,1,92,1,116,1,66,1,48,1
1220,13,1,19,1,6,1,-16,1,4,1,13,1,27,1,37,1,91,1,116,1,66,1,49,1
1221,13,1,20,1,7,1,-16,1,3,1,14,1,26,1,36,1,89,1,115,1,65,1,49,1
1222,14,1,24,1,10,1,-19,1,2,1,17,1,25,1,35,1,87,1,113,1,64,1,51,1
1223,15,1,25,1,10,1,-20,1,3,1,18,1,23,1,32,1,84,1,110,1,61,1,50,1
1224,22,1,27,1,5,1,-24,1,9,1,16,1,19,1,27,1,79,1,106,1,59,1,46,1
1225,22,1,27,1,5,1,-24,1,9,1,16,1,16,1,21,1,76,1,103,1,58,1,45,1
1226,19,1,28,1,9,1,-23,1,5,1,19,1,14,1,18,1,75,1,102,1,59,1,46,1
1227,22,1,30,1,8,1,-26,1,7,1,19,1,11,1,14,1,72,1,100,1,58,1,46,1
1228,23,1,32,1,9,1,-27,1,7,1,21,1,9,1,10,1,69,1,98,1,58,1,46,1
1229,27,1,32,1,5,1,-29,1,11,1,19,1,7,1,6,1,65,1,96,1,57,1,47,1
1230,27,1,31,1,4,1,-29,1,12,1,18,1,4,1,0,1,59,1,91,1,54,1,45,1
1231,28,1,34,1,6,1,-31,1,11,1,20,1,2,1,-2,1,55,1,89,1,53,1,45,1
1232,27,1,36,1,9,1,-31,1,9,1,23,1,1,1,-4,1,51,1,87,1,52,1,45,1
1233,23,1,36,1,13,1,-29,1,5,1,25,1,-1,1,-4,1,48,1,85,1,52,1,46,1
1234,18,1,36,1,18,1,-27,1,0,1,27,1,-3,1,-5,1,46,1,83,1,51,1,46,1
1235,16,1,36,1,20,1,-26,1,-2,1,28,1,-3,1,-6,1,44,1,79,1,49,1,46,1
1236,13,1,35,1,22,1,-24,1,-4,1,29,1,-3,1,-6,1,42,1,76,1,48,1,44,1
1237,14,1,33,1,19,1,-23,1,-2,1,26,1,-4,1,-9,1,37,1,70,1,42,1,39,1
1238,16,1,32,1,16,1,-24,1,0,1,24,1,-4,1,-11,1,33,1,64,1,34,1,35,1
1239,20,1,32,1,12,1,-26,1,4,1,22,1,-4,1,-12,1,30,1,59,1,28,1,30,1
1240,24,1,33,1,9,1,-28,1,8,1,21,1,-6,1,-14,1,24,1,54,1,23,1,26,1
1241,21,1,33,1,12,1,-27,1,5,1,23,1,-6,1,-15,1,20,1,49,1,20,1,25,1
1242,18,1,31,1,13,1,-24,1,3,1,22,1,-6,1,-15,1,17,1,46,1,18,1,24,1
1243,19,1,30,1,11,1,-24,1,4,1,21,1,-6,1,-16,1,13,1,42,1,16,1,23,1
1244,21,1,29,1,8,1,-25,1,7,1,19,1,-6,1,-15,1,10,1,37,1,14,1,20,1
1245,21,1,28,1,7,1,-24,1,7,1,18,1,-4,1,-15,1,8,1,33,1,11,1,18,1
1246,18,1,26,1,8,1,-22,1,5,1,17,1,-4,1,-13,1,6,1,30,1,9,1,18,1
1247,11,1,24,1,13,1,-17,1,-1,1,19,1,-1,1,-10,1,6,1,31,1,9,1,19,1
1248,10,1,23,1,13,1,-16,1,-1,1,18,1,0,1,-11,1,4,1,30,1,7,1,19,1
1249,9,1,20,1,11,1,-14,1,-1,1,16,1,1,1,-11,1,3,1,28,1,7,1,19,1
1250,8,1,19,1,11,1,-13,1,-1,1,15,1,4,1,-11,1,2,1,27,1,6,1,18,1
1251,10,1,19,1,9,1,-14,1,1,1,14,1,5,1,-11,1,0,1,24,1,3,1,15,1
1252,10,1,19,1,9,1,-14,1,1,1,14,1,6,1,-9,1,0,1,22,1,1,1,13,1
1253,10,1,19,1,9,1,-14,1,1,1,14,1,9,1,-7,1,0,1,21,1,1,1,13,1
1254,11,1,20,1,9,1,-15,1,1,1,15,1,11,1,-5,1,0,1,19,1,-1,1,12,1
1255,18,1,20,1,2,1,-19,1,8,1,11,1,10,1,-6,1,-4,1,14,1,-6,1,7,1
1256,26,1,20,1,-6,1,-23,1,16,1,7,1,8,1,-7,1,-7,1,9,1,-9,1,4,1
1257,19,1,17,1,-2,1,-18,1,11,1,8,1,8,1,-6,1,-8,1,9,1,-10,1,4,1
1258,13,1,13,1,0,1,-13,1,7,1,7,1,7,1,-6,1,-9,1,7,1,-14,1,1,1
1259,10,1,12,1,2,1,-11,1,4,1,7,1,8,1,-6,1,-10,1,7,1,-16,1,0,1
1260,9,1,14,1,5,1,-11,1,2,1,10,1,9,1,-7,1,-11,1,8,1,-16,1,1,1
1261,9,1,15,1,6,1,-12,1,2,1,11,1,10,1,-7,1,-11,1,7,1,-15,1,1,1
1262,11,1,15,1,4,1,-13,1,4,1,10,1,10,1,-6,1,-11,1,7,1,-14,1,1,1
1263,11,1,14,1,3,1,-12,1,4,1,9,1,12,1,-4,1,-9,1,8,1,-13,1,2,1
1264,7,1,14,1,7,1,-10,1,0,1,11,1,14,1,-3,1,-8,1,9,1,-12,1,3,1
1265,7,1,14,1,7,1,-10,1,0,1,11,1,14,1,-3,1,-8,1,9,1,-12,1,2,1
1266,7,1,13,1,6,1,-10,1,1,1,10,1,15,1,-3,1,-9,1,7,1,-12,1,0,1
1267,5,1,13,1,8,1,-9,1,-1,1,11,1,16,1,-1,1,-7,1,5,1,-14,1,-1,1
1268,1,1,11,1,10,1,-6,1,-4,1,11,1,15,1,-1,1,-8,1,4,1,-16,1,-2,1
1269,-1,1,10,1,11,1,-4,1,-6,1,10,1,16,1,-1,1,-8,1,4,1,-18,1,-3,1
1270,1,1,11,1,10,1,-6,1,-4,1,11,1,17,1,-1,1,-10,1,3,1,-19,1,-3,1
1271,2,1,11,1,9,1,-6,1,-3,1,10,1,17,1,-1,1,-9,1,4,1,-19,1,-2,1
1272,2,1,12,1,10,1,-7,1,-4,1,11,1,17,1,0,1,-8,1,5,1,-17,1,-1,1
1273,1,1,13,1,12,1,-7,1,-5,1,13,1,20,1,2,1,-6,1,9,1,-14,1,0,1
1274,2,1,15,1,13,1,-8,1,-5,1,14,1,21,1,4,1,-5,1,10,1,-12,1,1,1
1275,3,1,17,1,14,1,-10,1,-5,1,16,1,23,1,5,1,-3,1,11,1,-9,1,4,1
1276,7,1,16,1,9,1,-11,1,-1,1,13,1,22,1,3,1,-4,1,8,1,-11,1,2,1
1277,8,1,11,1,3,1,-9,1,3,1,7,1,19,1,1,1,-6,1,3,1,-14,1,0,1
1278,8,1,8,1,0,1,-8,1,4,1,4,1,15,1,1,1,-9,1,1,1,-16,1,-1,1
1279,13,1,9,1,-4,1,-11,1,9,1,3,1,15,1,0,1,-8,1,1,1,-17,1,-2,1
1280,13,1,10,1,-3,1,-11,1,8,1,4,1,16,1,2,1,-7,1,2,1,-18,1,-2,1
1281,6,1,12,1,6,1,-9,1,0,1,9,1,19,1,5,1,-5,1,4,1,-16,1,-1,1
1282,6,1,15,1,9,1,-10,1,-1,1,12,1,21,1,6,1,-4,1,6,1,-17,1,-1,1
1283,9,1,16,1,7,1,-12,1,1,1,12,1,22,1,7,1,-4,1,5,1,-17,1,-1,1
1284,11,1,17,1,6,1,-14,1,3,1,12,1,23,1,7,1,-3,1,5,1,-17,1,-2,1
1285,17,1,19,1,2,1,-18,1,8,1,11,1,23,1,8,1,-3,1,4,1,-17,1,-2,1
1286,20,1,20,1,0,1,-20,1,10,1,10,1,23,1,9,1,-3,1,3,1,-16,1,-2,1
1287,18,1,18,1,0,1,-18,1,9,1,9,1,22,1,10,1,-2,1,3,1,-16,1,-2,1
1288,11,1,17,1,6,1,-14,1,3,1,12,1,22,1,11,1,0,1,4,1,-14,1,0,1
1289,8,1,17,1,9,1,-12,1,0,1,13,1,21,1,11,1,1,1,6,1,-13,1,1,1
1290,6,1,15,1,9,1,-10,1,-1,1,12,1,20,1,10,1,0,1,6,1,-15,1,0,1
1291,5,1,14,1,9,1,-9,1,-2,1,12,1,18,1,10,1,-1,1,5,1,-19,1,-3,1
1292,6,1,17,1,11,1,-11,1,-2,1,14,1,18,1,11,1,1,1,6,1,-19,1,-3,1
1293,5,1,20,1,15,1,-12,1,-5,1,18,1,21,1,15,1,5,1,9,1,-16,1,0,1
1294,3,1,19,1,16,1,-11,1,-6,1,18,1,23,1,16,1,7,1,8,1,-14,1,1,1
1295,6,1,20,1,14,1,-13,1,-4,1,17,1,25,1,17,1,6,1,9,1,-13,1,2,1
1296,14,1,22,1,8,1,-18,1,3,1,15,1,26,1,17,1,5,1,9,1,-12,1,1,1
1297,12,1,21,1,9,1,-16,1,2,1,15,1,28,1,18,1,5,1,11,1,-11,1,2,1
1298,15,1,22,1,7,1,-18,1,4,1,15,1,25,1,17,1,6,1,12,1,-10,1,1,1
1299,16,1,23,1,7,1,-19,1,5,1,15,1,25,1,17,1,10,1,17,1,-6,1,5,1
1300,11,1,25,1,14,1,-18,1,-1,1,20,1,24,1,19,1,15,1,26,1,1,1,11,1
1301,9,1,28,1,19,1,-18,1,-5,1,24,1,24,1,23,1,23,1,39,1,12,1,19,1
1302,10,1,33,1,23,1,-21,1,-6,1,28,1,23,1,27,1,39,1,58,1,24,1,27,1
1303,16,1,40,1,24,1,-28,1,-4,1,32,1,22,1,32,1,60,1,78,1,39,1,37,1
1304,22,1,46,1,24,1,-34,1,-1,1,35,1,20,1,37,1,82,1,96,1,55,1,49,1
1305,25,1,52,1,27,1,-38,1,-1,1,40,1,17,1,39,1,95,1,106,1,73,1,63,1
1306,27,1,58,1,31,1,-42,1,-2,1,45,1,15,1,41,1,98,1,114,1,97,1,85,1
1307,30,1,69,1,39,1,-49,1,-4,1,54,1,11,1,41,1,96,1,125,1,129,1,112,1
1308,35,1,82,1,47,1,-58,1,-6,1,65,1,6,1,39,1,95,1,141,1,163,1,142,1
1309,44,1,100,1,56,1,-72,1,-6,1,78,1,0,1,36,1,91,1,160,1,201,1,175,1
1310,51,1,118,1,67,1,-84,1,-8,1,93,1,-5,1,31,1,79,1,174,1,235,1,205,1
1311,62,1,132,1,70,1,-97,1,-4,1,101,1,-15,1,20,1,58,1,178,1,260,1,229,1
1312,69,1,143,1,74,1,-106,1,-2,1,109,1,-26,1,7,1,32,1,176,1,275,1,247,1
1313,76,1,149,1,73,1,-112,1,2,1,111,1,-35,1,-9,1,2,1,170,1,284,1,258,1
1314,84,1,149,1,65,1,-116,1,10,1,107,1,-47,1,-33,1,-29,1,158,1,283,1,262,1
1315,91,1,142,1,51,1,-116,1,20,1,97,1,-62,1,-63,1,-64,1,135,1,267,1,254,1
1316,94,1,132,1,38,1,-113,1,28,1,85,1,-78,1,-93,1,-103,1,96,1,229,1,232,1
1317,91,1,122,1,31,1,-106,1,30,1,77,1,-90,1,-118,1,-146,1,34,1,165,1,193,1
1318,82,1,113,1,31,1,-97,1,26,1,72,1,-97,1,-137,1,-187,1,-40,1,89,1,147,1
1319,73,1,106,1,33,1,-89,1,20,1,70,1,-101,1,-149,1,-218,1,-102,1,25,1,106,1
1320,66,1,95,1,29,1,-80,1,19,1,62,1,-102,1,-152,1,-230,1,-141,1,-21,1,73,1
1321,60,1,83,1,23,1,-71,1,19,1,53,1,-98,1,-145,1,-224,1,-154,1,-48,1,49,1
1322,54,1,73,1,19,1,-63,1,18,1,46,1,-90,1,-131,1,-202,1,-146,1,-57,1,34,1
1323,45,1,63,1,18,1,-54,1,14,1,41,1,-79,1,-117,1,-177,1,-129,1,-56,1,26,1
1324,36,1,55,1,19,1,-45,1,9,1,37,1,-68,1,-103,1,-154,1,-111,1,-53,1,18,1
1325,27,1,49,1,22,1,-38,1,3,1,36,1,-57,1,-89,1,-132,1,-93,1,-49,1,10,1
1326,19,1,46,1,27,1,-32,1,-4,1,37,1,-45,1,-73,1,-109,1,-74,1,-43,1,8,1
1327,15,1,43,1,28,1,-29,1,-6,1,36,1,-33,1,-55,1,-85,1,-56,1,-37,1,6,1
1328,14,1,40,1,26,1,-27,1,-6,1,33,1,-22,1,-39,1,-63,1,-41,1,-33,1,3,1
1329,11,1,38,1,27,1,-24,1,-8,1,33,1,-14,1,-24,1,-46,1,-30,1,-30,1,1,1
1330,11,1,38,1,27,1,-24,1,-8,1,33,1,-9,1,-14,1,-32,1,-22,1,-29,1,0,1
1331,9,1,37,1,28,1,-23,1,-9,1,33,1,-3,1,-6,1,-22,1,-17,1,-29,1,-2,1
1332,7,1,34,1,27,1,-20,1,-10,1,31,1,0,1,-1,1,-16,1,-13,1,-31,1,-4,1
1333,6,1,28,1,22,1,-17,1,-8,1,25,1,1,1,2,1,-14,1,-12,1,-32,1,-8,1
1334,2,1,22,1,20,1,-12,1,-9,1,21,1,3,1,3,1,-12,1,-11,1,-33,1,-10,1
1335,0,1,19,1,19,1,-9,1,-9,1,19,1,8,1,7,1,-10,1,-8,1,-31,1,-11,1
1336,3,1,18,1,15,1,-10,1,-6,1,17,1,10,1,9,1,-7,1,-5,1,-30,1,-11,1
1337,7,1,17,1,10,1,-12,1,-1,1,14,1,13,1,12,1,-3,1,-1,1,-28,1,-9,1
1338,6,1,16,1,10,1,-11,1,-2,1,13,1,16,1,17,1,2,1,3,1,-23,1,-6,1
1339,6,1,14,1,8,1,-10,1,-1,1,11,1,18,1,19,1,5,1,6,1,-20,1,-4,1
1340,4,1,13,1,9,1,-8,1,-2,1,11,1,19,1,20,1,8,1,8,1,-19,1,-2,1
1341,2,1,13,1,11,1,-7,1,-4,1,12,1,19,1,21,1,9,1,8,1,-19,1,-1,1
1342,5,1,13,1,8,1,-9,1,-1,1,11,1,17,1,20,1,8,1,7,1,-19,1,-1,1
1343,3,1,12,1,9,1,-7,1,-3,1,11,1,18,1,21,1,9,1,8,1,-19,1,-1,1
1344,-1,1,10,1,11,1,-4,1,-6,1,10,1,19,1,23,1,10,1,8,1,-19,1,-2,1
1345,1,1,9,1,8,1,-5,1,-3,1,9,1,20,1,23,1,9,1,6,1,-21,1,-5,1
1346,4,1,7,1,3,1,-5,1,1,1,5,1,19,1,25,1,9,1,3,1,-23,1,-7,1
1347,5,1,5,1,0,1,-5,1,3,1,3,1,20,1,28,1,10,1,3,1,-23,1,-8,1
1348,0,1,4,1,4,1,-2,1,-2,1,4,1,22,1,32,1,13,1,4,1,-21,1,-8,1
1349,-5,1,5,1,10,1,0,1,-7,1,7,1,23,1,33,1,16,1,6,1,-21,1,-8,1
1350,-7,1,3,1,10,1,2,1,-8,1,6,1,21,1,33,1,16,1,4,1,-24,1,-8,1
1351,-5,1,3,1,8,1,1,1,-6,1,5,1,20,1,32,1,14,1,1,1,-26,1,-9,1
1352,-5,1,3,1,8,1,1,1,-6,1,5,1,21,1,32,1,13,1,1,1,-26,1,-8,1
1353,-2,1,2,1,4,1,0,1,-3,1,3,1,20,1,29,1,11,1,1,1,-25,1,-8,1
1354,0,1,2,1,2,1,-1,1,-1,1,2,1,21,1,27,1,10,1,1,1,-24,1,-7,1
1355,-1,1,0,1,1,1,0,1,-1,1,0,1,21,1,25,1,10,1,3,1,-22,1,-6,1
1356,-4,1,-1,1,3,1,2,1,-4,1,1,1,23,1,27,1,13,1,7,1,-19,1,-4,1
1357,-5,1,-2,1,3,1,3,1,-4,1,0,1,25,1,28,1,15,1,8,1,-18,1,-4,1
1358,-4,1,-2,1,2,1,3,1,-3,1,0,1,25,1,28,1,17,1,9,1,-18,1,-4,1
1359,-5,1,-2,1,3,1,3,1,-4,1,0,1,25,1,29,1,18,1,11,1,-18,1,-5,1
1360,-5,1,-2,1,3,1,3,1,-4,1,0,1,24,1,29,1,17,1,12,1,-18,1,-5,1
1361,-3,1,0,1,3,1,1,1,-3,1,1,1,24,1,30,1,17,1,12,1,-19,1,-5,1
1362,0,1,1,1,1,1,0,1,0,1,1,1,24,1,30,1,16,1,11,1,-21,1,-7,1
1363,0,1,0,1,0,1,0,1,0,1,0,1,25,1,32,1,17,1,12,1,-20,1,-7,1
1364,-3,1,0,1,3,1,1,1,-3,1,1,1,25,1,33,1,18,1,12,1,-20,1,-7,1
1365,-4,1,-2,1,2,1,3,1,-3,1,0,1,24,1,32,1,19,1,12,1,-21,1,-9,1
1366,0,1,-2,1,-2,1,1,1,1,1,-2,1,24,1,31,1,20,1,12,1,-22,1,-11,1
1367,5,1,0,1,-5,1,-2,1,5,1,-2,1,25,1,34,1,24,1,15,1,-22,1,-11,1
1368,5,1,1,1,-4,1,-3,1,5,1,-1,1,26,1,37,1,27,1,17,1,-21,1,-10,1
1369,3,1,1,1,-2,1,-2,1,3,1,0,1,29,1,41,1,31,1,19,1,-19,1,-9,1
1370,0,1,1,1,1,1,0,1,0,1,1,1,31,1,43,1,33,1,21,1,-17,1,-7,1
1371,-1,1,2,1,3,1,0,1,-2,1,2,1,32,1,44,1,35,1,22,1,-15,1,-6,1
1372,-1,1,2,1,3,1,0,1,-2,1,2,1,30,1,43,1,36,1,23,1,-14,1,-5,1
1373,0,1,1,1,1,1,0,1,0,1,1,1,28,1,43,1,35,1,25,1,-12,1,-4,1
1374,-1,1,1,1,2,1,0,1,-1,1,1,1,28,1,45,1,37,1,29,1,-9,1,-2,1
1375,0,1,1,1,1,1,0,1,0,1,1,1,27,1,44,1,39,1,31,1,-7,1,-2,1
1376,3,1,0,1,-3,1,-1,1,3,1,-1,1,25,1,43,1,40,1,32,1,-7,1,-1,1
1377,6,1,-1,1,-7,1,-2,1,6,1,-4,1,25,1,42,1,42,1,33,1,-6,1,-1,1
1378,1,1,-1,1,-2,1,0,1,1,1,-1,1,28,1,45,1,46,1,36,1,-3,1,0,1
1379,-3,1,-1,1,2,1,2,1,-3,1,0,1,30,1,48,1,48,1,38,1,-1,1,0,1
1380,-4,1,0,1,4,1,2,1,-4,1,2,1,31,1,50,1,51,1,40,1,-1,1,0,1
1381,-2,1,2,1,4,1,0,1,-3,1,3,1,31,1,52,1,53,1,42,1,-2,1,-1,1
1382,-1,1,2,1,3,1,0,1,-2,1,2,1,31,1,51,1,55,1,42,1,-4,1,-3,1
1383,0,1,1,1,1,1,0,1,0,1,1,1,30,1,53,1,58,1,45,1,-2,1,-2,1
1384,-1,1,1,1,2,1,0,1,-1,1,1,1,32,1,56,1,62,1,49,1,-1,1,0,1
1385,0,1,2,1,2,1,-1,1,-1,1,2,1,34,1,58,1,66,1,52,1,0,1,1,1
1386,5,1,4,1,-1,1,-4,1,3,1,2,1,35,1,58,1,68,1,53,1,1,1,1,1
1387,8,1,4,1,-4,1,-6,1,6,1,0,1,34,1,60,1,68,1,54,1,2,1,2,1
1388,10,1,4,1,-6,1,-7,1,8,1,-1,1,34,1,61,1,71,1,57,1,6,1,3,1
1389,8,1,5,1,-3,1,-6,1,6,1,1,1,35,1,63,1,75,1,62,1,11,1,6,1
1390,7,1,6,1,-1,1,-6,1,4,1,3,1,36,1,65,1,79,1,68,1,16,1,7,1
1391,5,1,5,1,0,1,-5,1,3,1,3,1,36,1,67,1,82,1,73,1,19,1,9,1
1392,2,1,5,1,3,1,-3,1,0,1,4,1,37,1,69,1,86,1,76,1,22,1,11,1
1393,2,1,7,1,5,1,-4,1,-1,1,6,1,39,1,71,1,89,1,78,1,25,1,13,1
1394,0,1,8,1,8,1,-4,1,-4,1,8,1,43,1,75,1,93,1,81,1,28,1,16,1
1395,1,1,9,1,8,1,-5,1,-3,1,9,1,45,1,77,1,96,1,81,1,30,1,18,1
1396,2,1,8,1,6,1,-5,1,-2,1,7,1,47,1,79,1,98,1,83,1,32,1,20,1
1397,1,1,5,1,4,1,-3,1,-1,1,5,1,47,1,80,1,99,1,86,1,35,1,22,1
1398,1,1,6,1,5,1,-3,1,-2,1,6,1,46,1,81,1,101,1,90,1,37,1,23,1
1399,4,1,8,1,4,1,-6,1,0,1,6,1,44,1,79,1,103,1,92,1,39,1,24,1
1400,8,1,9,1,1,1,-8,1,4,1,5,1,41,1,75,1,103,1,93,1,39,1,23,1
1401,6,1,10,1,4,1,-8,1,1,1,7,1,40,1,73,1,102,1,94,1,39,1,22,1
1402,4,1,12,1,8,1,-8,1,-2,1,10,1,38,1,71,1,103,1,96,1,41,1,24,1
1403,6,1,15,1,9,1,-10,1,-1,1,12,1,35,1,68,1,103,1,96,1,43,1,25,1
1404,7,1,17,1,10,1,-12,1,-1,1,14,1,32,1,65,1,102,1,96,1,43,1,27,1
1405,6,1,18,1,12,1,-12,1,-3,1,15,1,28,1,61,1,101,1,95,1,44,1,27,1
1406,6,1,18,1,12,1,-12,1,-3,1,15,1,24,1,56,1,100,1,95,1,45,1,28,1
1407,7,1,22,1,15,1,-14,1,-4,1,19,1,23,1,54,1,100,1,97,1,49,1,32,1
1408,8,1,23,1,15,1,-15,1,-3,1,19,1,19,1,50,1,97,1,96,1,49,1,33,1
1409,7,1,21,1,14,1,-14,1,-3,1,18,1,14,1,45,1,93,1,94,1,48,1,32,1
1410,8,1,21,1,13,1,-14,1,-2,1,17,1,11,1,42,1,91,1,92,1,49,1,34,1
1411,8,1,22,1,14,1,-15,1,-3,1,18,1,7,1,38,1,89,1,91,1,49,1,35,1
1412,9,1,25,1,16,1,-17,1,-3,1,21,1,5,1,36,1,86,1,90,1,50,1,35,1
1413,12,1,27,1,15,1,-19,1,-1,1,21,1,4,1,34,1,85,1,90,1,50,1,35,1
1414,11,1,29,1,18,1,-20,1,-3,1,24,1,3,1,33,1,84,1,89,1,51,1,36,1
1415,15,1,31,1,16,1,-23,1,0,1,24,1,2,1,31,1,82,1,88,1,53,1,38,1
1416,21,1,33,1,12,1,-27,1,5,1,23,1,0,1,30,1,79,1,87,1,54,1,39,1
1417,24,1,33,1,9,1,-28,1,8,1,21,1,-1,1,28,1,76,1,85,1,56,1,41,1
1418,25,1,33,1,8,1,-29,1,9,1,21,1,-3,1,24,1,72,1,82,1,55,1,42,1
1419,20,1,31,1,11,1,-25,1,5,1,21,1,-5,1,20,1,69,1,78,1,54,1,42,1
1420,15,1,30,1,15,1,-22,1,0,1,23,1,-5,1,19,1,65,1,74,1,53,1,42,1
1421,14,1,32,1,18,1,-23,1,-2,1,25,1,-5,1,20,1,62,1,68,1,51,1,41,1
1422,16,1,34,1,18,1,-25,1,-1,1,26,1,-7,1,18,1,55,1,62,1,47,1,39,1
1423,13,1,33,1,20,1,-23,1,-3,1,27,1,-6,1,19,1,52,1,58,1,44,1,39,1
1424,6,1,29,1,23,1,-17,1,-8,1,26,1,-5,1,19,1,49,1,55,1,41,1,37,1
1425,4,1,29,1,25,1,-16,1,-10,1,27,1,-4,1,18,1,45,1,51,1,37,1,34,1
1426,5,1,27,1,22,1,-16,1,-8,1,25,1,-5,1,17,1,41,1,46,1,31,1,30,1
1427,1,1,26,1,25,1,-13,1,-12,1,26,1,-3,1,18,1,39,1,42,1,28,1,27,1
1428,0,1,26,1,26,1,-13,1,-13,1,26,1,-1,1,20,1,36,1,39,1,25,1,25,1
1429,1,1,27,1,26,1,-14,1,-12,1,27,1,0,1,21,1,33,1,36,1,25,1,25,1
1430,1,1,27,1,26,1,-14,1,-12,1,27,1,1,1,21,1,30,1,34,1,24,1,24,1
1431,3,1,25,1,22,1,-14,1,-9,1,24,1,1,1,20,1,26,1,30,1,22,1,22,1
1432,2,1,22,1,20,1,-12,1,-9,1,21,1,1,1,19,1,23,1,26,1,19,1,21,1
1433,-4,1,20,1,24,1,-8,1,-14,1,22,1,4,1,21,1,23,1,23,1,17,1,20,1
1434,-6,1,18,1,24,1,-6,1,-15,1,21,1,6,1,22,1,20,1,19,1,13,1,17,1
1435,-3,1,14,1,17,1,-5,1,-10,1,15,1,3,1,20,1,15,1,13,1,7,1,10,1
1436,2,1,11,1,9,1,-6,1,-3,1,10,1,1,1,18,1,12,1,8,1,0,1,3,1
1437,3,1,10,1,7,1,-6,1,-2,1,9,1,1,1,17,1,9,1,3,1,-6,1,-1,1
1438,0,1,8,1,8,1,-4,1,-4,1,8,1,2,1,18,1,7,1,-1,1,-9,1,-3,1
1439,-4,1,6,1,10,1,-1,1,-7,1,8,1,2,1,18,1,6,1,-2,1,-9,1,-3,1
1440,-5,1,6,1,11,1,0,1,-8,1,8,1,3,1,18,1,6,1,-2,1,-9,1,-3,1
1441,-3,1,7,1,10,1,-2,1,-6,1,8,1,4,1,18,1,5,1,-4,1,-9,1,-2,1
1442,-11,1,5,1,16,1,3,1,-13,1,10,1,8,1,22,1,6,1,-3,1,-7,1,0,1
1443,-13,1,5,1,18,1,4,1,-15,1,11,1,11,1,25,1,6,1,-4,1,-6,1,2,1
1444,-12,1,8,1,20,1,2,1,-16,1,14,1,14,1,27,1,6,1,-4,1,-5,1,3,1
1445,-12,1,8,1,20,1,2,1,-16,1,14,1,14,1,28,1,5,1,-4,1,-4,1,3,1
1446,-14,1,7,1,21,1,3,1,-17,1,14,1,14,1,28,1,5,1,-3,1,-4,1,4,1
1447,-11,1,7,1,18,1,2,1,-14,1,12,1,14,1,26,1,3,1,-3,1,-4,1,2,1
1448,-6,1,5,1,11,1,0,1,-8,1,8,1,13,1,24,1,2,1,-5,1,-7,1,0,1
1449,0,1,5,1,5,1,-2,1,-2,1,5,1,13,1,23,1,1,1,-7,1,-9,1,-3,1
1450,-2,1,3,1,5,1,0,1,-3,1,4,1,14,1,25,1,3,1,-9,1,-11,1,-5,1
1451,-5,1,1,1,6,1,2,1,-5,1,3,1,14,1,27,1,4,1,-12,1,-15,1,-8,1
1452,-6,1,0,1,6,1,3,1,-6,1,3,1,13,1,29,1,3,1,-15,1,-19,1,-10,1
1453,-3,1,0,1,3,1,1,1,-3,1,1,1,13,1,29,1,0,1,-17,1,-20,1,-11,1
1454,-4,1,-2,1,2,1,3,1,-3,1,0,1,13,1,27,1,-2,1,-18,1,-22,1,-12,1
1455,-8,1,-1,1,7,1,4,1,-8,1,3,1,12,1,26,1,-1,1,-16,1,-19,1,-10,1
1456,-9,1,-2,1,7,1,5,1,-8,1,2,1,10,1,24,1,-2,1,-16,1,-17,1,-9,1
1457,-7,1,-3,1,4,1,5,1,-6,1,0,1,10,1,23,1,-3,1,-15,1,-15,1,-8,1
1458,-8,1,-3,1,5,1,5,1,-7,1,1,1,11,1,22,1,-1,1,-14,1,-13,1,-7,1
1459,-7,1,-3,1,4,1,5,1,-6,1,0,1,12,1,21,1,-1,1,-14,1,-13,1,-7,1
1460,-9,1,-5,1,4,1,7,1,-7,1,-1,1,12,1,21,1,0,1,-14,1,-12,1,-7,1
1461,-14,1,-4,1,10,1,9,1,-12,1,3,1,14,1,25,1,2,1,-11,1,-11,1,-6,1
1462,-16,1,-3,1,13,1,9,1,-15,1,5,1,15,1,27,1,3,1,-10,1,-11,1,-6,1
1463,-12,1,-1,1,11,1,6,1,-12,1,5,1,15,1,29,1,4,1,-10,1,-12,1,-7,1
1464,-6,1,-1,1,5,1,3,1,-6,1,2,1,13,1,29,1,3,1,-11,1,-14,1,-8,1
1465,-7,1,-2,1,5,1,4,1,-6,1,1,1,13,1,30,1,4,1,-11,1,-16,1,-10,1
1466,-9,1,-2,1,7,1,5,1,-8,1,2,1,14,1,31,1,6,1,-11,1,-17,1,-10,1
1467,-6,1,0,1,6,1,3,1,-6,1,3,1,15,1,31,1,7,1,-13,1,-17,1,-10,1
1468,-2,1,0,1,2,1,1,1,-2,1,1,1,16,1,31,1,7,1,-14,1,-15,1,-9,1
1469,-3,1,1,1,4,1,1,1,-3,1,2,1,18,1,32,1,9,1,-12,1,-11,1,-7,1
1470,-6,1,-1,1,5,1,3,1,-6,1,2,1,21,1,33,1,10,1,-11,1,-8,1,-6,1
1471,-12,1,-2,1,10,1,7,1,-11,1,4,1,23,1,36,1,10,1,-8,1,-6,1,-3,1
1472,-17,1,-5,1,12,1,11,1,-15,1,3,1,23,1,37,1,9,1,-8,1,-5,1,-2,1
1473,-16,1,-6,1,10,1,11,1,-13,1,2,1,22,1,37,1,9,1,-7,1,-5,1,-1,1
1474,-13,1,-6,1,7,1,9,1,-10,1,0,1,21,1,36,1,10,1,-7,1,-5,1,-2,1
1475,-11,1,-5,1,6,1,8,1,-9,1,0,1,21,1,38,1,11,1,-6,1,-7,1,-3,1
1476,-13,1,-3,1,10,1,8,1,-12,1,3,1,24,1,42,1,14,1,-4,1,-5,1,-1,1
1477,-15,1,-3,1,12,1,9,1,-14,1,4,1,28,1,44,1,16,1,-3,1,-4,1,0,1
1478,-11,1,-4,1,7,1,7,1,-9,1,1,1,29,1,43,1,15,1,-5,1,-6,1,-3,1
1479,-10,1,-3,1,7,1,6,1,-9,1,2,1,30,1,44,1,15,1,-6,1,-6,1,-4,1
1480,-4,1,-1,1,3,1,2,1,-4,1,1,1,29,1,44,1,14,1,-7,1,-8,1,-6,1
1481,-1,1,-1,1,0,1,1,1,-1,1,-1,1,28,1,43,1,12,1,-10,1,-11,1,-8,1
1482,-4,1,-2,1,2,1,3,1,-3,1,0,1,29,1,44,1,12,1,-11,1,-12,1,-8,1
1483,-9,1,-4,1,5,1,6,1,-7,1,0,1,30,1,46,1,11,1,-12,1,-12,1,-8,1
1484,-11,1,-5,1,6,1,8,1,-9,1,0,1,33,1,47,1,10,1,-13,1,-13,1,-9,1
1485,-13,1,-6,1,7,1,9,1,-10,1,0,1,34,1,49,1,11,1,-12,1,-13,1,-9,1
1486,-15,1,-7,1,8,1,11,1,-12,1,0,1,33,1,48,1,12,1,-12,1,-13,1,-9,1
1487,-12,1,-6,1,6,1,9,1,-9,1,0,1,33,1,48,1,13,1,-12,1,-12,1,-9,1
1488,-12,1,-4,1,8,1,8,1,-10,1,2,1,33,1,48,1,13,1,-12,1,-12,1,-8,1
1489,-10,1,-4,1,6,1,7,1,-8,1,1,1,31,1,44,1,11,1,-13,1,-12,1,-9,1
1490,-9,1,-3,1,6,1,6,1,-8,1,1,1,28,1,40,1,9,1,-14,1,-12,1,-9,1
1491,-11,1,-1,1,10,1,6,1,-11,1,4,1,25,1,36,1,6,1,-13,1,-11,1,-8,1
1492,-7,1,2,1,9,1,2,1,-8,1,5,1,21,1,32,1,4,1,-13,1,-11,1,-7,1
1493,-5,1,3,1,8,1,1,1,-6,1,5,1,16,1,28,1,3,1,-11,1,-10,1,-6,1
1494,-11,1,2,1,13,1,4,1,-12,1,7,1,16,1,26,1,4,1,-10,1,-9,1,-5,1
1495,-12,1,2,1,14,1,5,1,-13,1,8,1,14,1,24,1,5,1,-10,1,-9,1,-4,1
1496,-9,1,4,1,13,1,2,1,-11,1,8,1,13,1,22,1,6,1,-11,1,-9,1,-5,1
1497,-11,1,3,1,14,1,4,1,-12,1,8,1,9,1,20,1,5,1,-13,1,-11,1,-6,1
1498,-11,1,2,1,13,1,4,1,-12,1,7,1,7,1,18,1,2,1,-16,1,-13,1,-7,1
1499,-9,1,4,1,13,1,2,1,-11,1,8,1,7,1,17,1,2,1,-17,1,-12,1,-8,1
1500,-9,1,6,1,15,1,1,1,-12,1,10,1,9,1,17,1,2,1,-16,1,-12,1,-8,1
1501,-9,1,7,1,16,1,1,1,-12,1,11,1,10,1,17,1,1,1,-17,1,-11,1,-8,1
1502,-7,1,7,1,14,1,0,1,-10,1,10,1,10,1,17,1,0,1,-16,1,-10,1,-8,1
1503,-4,1,6,1,10,1,-1,1,-7,1,8,1,9,1,17,1,-1,1,-16,1,-10,1,-8,1
1504,0,1,5,1,5,1,-2,1,-2,1,5,1,4,1,15,1,-1,1,-17,1,-13,1,-9,1
1505,-3,1,4,1,7,1,0,1,-5,1,5,1,2,1,14,1,0,1,-17,1,-12,1,-7,1
1506,-7,1,5,1,12,1,1,1,-9,1,8,1,3,1,16,1,1,1,-17,1,-8,1,-3,1
1507,-8,1,6,1,14,1,1,1,-11,1,10,1,4,1,16,1,2,1,-17,1,-5,1,-1,1
1508,-7,1,5,1,12,1,1,1,-9,1,8,1,3,1,14,1,0,1,-17,1,-4,1,-1,1
1509,-3,1,4,1,7,1,0,1,-5,1,5,1,0,1,12,1,-3,1,-18,1,-5,1,-3,1
1510,-2,1,4,1,6,1,-1,1,-4,1,5,1,-1,1,12,1,-3,1,-17,1,-5,1,-3,1
1511,-6,1,4,1,10,1,1,1,-8,1,7,1,0,1,12,1,-2,1,-15,1,-3,1,-1,1
1512,-9,1,4,1,13,1,2,1,-11,1,8,1,1,1,14,1,0,1,-12,1,-1,1,1,1
1513,-11,1,5,1,16,1,3,1,-13,1,10,1,2,1,16,1,1,1,-10,1,0,1,3,1
1514,-10,1,7,1,17,1,1,1,-13,1,12,1,5,1,17,1,1,1,-10,1,-1,1,2,1
1515,-11,1,6,1,17,1,2,1,-14,1,11,1,7,1,18,1,1,1,-12,1,-3,1,0,1
1516,-12,1,4,1,16,1,4,1,-14,1,10,1,7,1,18,1,1,1,-14,1,-7,1,-3,1
1517,-10,1,3,1,13,1,3,1,-11,1,8,1,6,1,17,1,0,1,-18,1,-11,1,-7,1
1518,-7,1,3,1,10,1,2,1,-8,1,6,1,5,1,16,1,-2,1,-22,1,-14,1,-10,1
1519,-10,1,5,1,15,1,2,1,-12,1,10,1,6,1,17,1,-2,1,-22,1,-14,1,-11,1
1520,-11,1,5,1,16,1,3,1,-13,1,10,1,8,1,17,1,-3,1,-22,1,-13,1,-10,1
1521,-13,1,4,1,17,1,4,1,-15,1,10,1,8,1,17,1,-4,1,-21,1,-11,1,-8,1
1522,-14,1,3,1,17,1,5,1,-15,1,10,1,9,1,17,1,-5,1,-21,1,-10,1,-7,1
1523,-13,1,3,1,16,1,5,1,-14,1,9,1,9,1,18,1,-5,1,-20,1,-10,1,-6,1
1524,-11,1,2,1,13,1,4,1,-12,1,7,1,8,1,16,1,-7,1,-22,1,-10,1,-6,1
1525,-6,1,1,1,7,1,2,1,-6,1,4,1,7,1,15,1,-8,1,-24,1,-12,1,-8,1
1526,-7,1,1,1,8,1,3,1,-7,1,4,1,7,1,16,1,-7,1,-23,1,-12,1,-9,1
1527,-8,1,1,1,9,1,3,1,-8,1,5,1,9,1,19,1,-4,1,-23,1,-11,1,-8,1
1528,-10,1,2,1,12,1,4,1,-11,1,7,1,11,1,20,1,-3,1,-23,1,-13,1,-10,1
1529,-8,1,2,1,10,1,3,1,-9,1,6,1,12,1,21,1,-3,1,-25,1,-16,1,-12,1
1530,-8,1,2,1,10,1,3,1,-9,1,6,1,12,1,20,1,-4,1,-26,1,-17,1,-14,1
1531,-9,1,2,1,11,1,3,1,-10,1,6,1,12,1,19,1,-7,1,-27,1,-15,1,-13,1
1532,-7,1,3,1,10,1,2,1,-8,1,6,1,12,1,19,1,-8,1,-25,1,-14,1,-12,1
1533,-9,1,2,1,11,1,3,1,-10,1,6,1,12,1,20,1,-6,1,-24,1,-13,1,-11,1
1534,-11,1,0,1,11,1,5,1,-11,1,5,1,12,1,20,1,-5,1,-24,1,-13,1,-11,1
1535,-12,1,0,1,12,1,6,1,-12,1,6,1,11,1,20,1,-5,1,-24,1,-13,1,-11,1
1536,-10,1,-1,1,9,1,5,1,-10,1,4,1,10,1,19,1,-6,1,-24,1,-12,1,-10,1
1537,-10,1,0,1,10,1,5,1,-10,1,5,1,10,1,19,1,-5,1,-23,1,-11,1,-8,1
1538,-13,1,1,1,14,1,6,1,-13,1,7,1,12,1,19,1,-4,1,-22,1,-10,1,-8,1
1539,-14,1,1,1,15,1,6,1,-14,1,8,1,12,1,18,1,-5,1,-23,1,-10,1,-9,1
1540,-10,1,1,1,11,1,4,1,-10,1,6,1,10,1,16,1,-5,1,-24,1,-12,1,-11,1
1541,-2,1,0,1,2,1,1,1,-2,1,1,1,7,1,15,1,-9,1,-27,1,-16,1,-14,1
1542,-3,1,1,1,4,1,1,1,-3,1,2,1,9,1,18,1,-7,1,-26,1,-16,1,-13,1
1543,-9,1,2,1,11,1,3,1,-10,1,6,1,13,1,23,1,-3,1,-22,1,-12,1,-9,1
1544,-13,1,3,1,16,1,5,1,-14,1,9,1,17,1,25,1,-1,1,-20,1,-9,1,-6,1
1545,-12,1,2,1,14,1,5,1,-13,1,8,1,16,1,24,1,-2,1,-20,1,-8,1,-5,1
1546,-5,1,2,1,7,1,1,1,-6,1,4,1,14,1,21,1,-5,1,-23,1,-10,1,-7,1
1547,2,1,2,1,0,1,-2,1,1,1,1,1,13,1,18,1,-8,1,-25,1,-13,1,-10,1
1548,2,1,0,1,-2,1,-1,1,2,1,-1,1,12,1,17,1,-9,1,-27,1,-15,1,-12,1
1549,-1,1,-1,1,0,1,1,1,-1,1,-1,1,12,1,17,1,-9,1,-29,1,-16,1,-14,1
1550,-2,1,0,1,2,1,1,1,-2,1,1,1,14,1,19,1,-8,1,-29,1,-16,1,-14,1
1551,-4,1,3,1,7,1,0,1,-5,1,5,1,15,1,22,1,-8,1,-28,1,-15,1,-12,1
1552,-8,1,3,1,11,1,2,1,-9,1,7,1,15,1,24,1,-5,1,-25,1,-14,1,-12,1
1553,-13,1,1,1,14,1,6,1,-13,1,7,1,15,1,25,1,-2,1,-23,1,-14,1,-12,1
1554,-13,1,0,1,13,1,6,1,-13,1,6,1,14,1,24,1,-2,1,-24,1,-16,1,-13,1
1555,-10,1,-2,1,8,1,6,1,-9,1,3,1,14,1,21,1,-4,1,-26,1,-18,1,-16,1
1556,-9,1,-1,1,8,1,5,1,-9,1,3,1,14,1,20,1,-4,1,-25,1,-17,1,-16,1
1557,-10,1,-1,1,9,1,5,1,-10,1,4,1,17,1,21,1,-3,1,-22,1,-13,1,-13,1
1558,-9,1,0,1,9,1,4,1,-9,1,4,1,17,1,23,1,-2,1,-20,1,-10,1,-10,1
1559,-6,1,3,1,9,1,1,1,-7,1,6,1,19,1,25,1,0,1,-18,1,-7,1,-7,1
1560,-5,1,6,1,11,1,0,1,-8,1,8,1,21,1,26,1,0,1,-18,1,-6,1,-6,1
1561,-1,1,6,1,7,1,-2,1,-4,1,6,1,21,1,25,1,-1,1,-19,1,-8,1,-7,1
1562,-1,1,4,1,5,1,-1,1,-3,1,4,1,21,1,25,1,-1,1,-21,1,-12,1,-9,1
1563,-4,1,2,1,6,1,1,1,-5,1,4,1,22,1,26,1,0,1,-22,1,-14,1,-10,1
1564,-6,1,1,1,7,1,2,1,-6,1,4,1,22,1,27,1,1,1,-22,1,-14,1,-10,1
1565,-8,1,1,1,9,1,3,1,-8,1,5,1,21,1,28,1,2,1,-21,1,-12,1,-10,1
1566,-3,1,0,1,3,1,1,1,-3,1,1,1,20,1,28,1,0,1,-21,1,-12,1,-11,1
1567,-6,1,-2,1,4,1,4,1,-5,1,1,1,21,1,29,1,0,1,-20,1,-10,1,-10,1
1568,-6,1,-3,1,3,1,4,1,-5,1,0,1,23,1,29,1,0,1,-20,1,-8,1,-11,1
1569,-7,1,-2,1,5,1,4,1,-6,1,1,1,24,1,27,1,1,1,-19,1,-7,1,-11,1
1570,-9,1,-3,1,6,1,6,1,-8,1,1,1,26,1,27,1,2,1,-19,1,-7,1,-11,1
1571,-9,1,-3,1,6,1,6,1,-8,1,1,1,28,1,27,1,2,1,-20,1,-9,1,-12,1
1572,-13,1,-4,1,9,1,8,1,-11,1,2,1,30,1,29,1,2,1,-19,1,-8,1,-10,1
1573,-16,1,-3,1,13,1,9,1,-15,1,5,1,33,1,32,1,4,1,-16,1,-5,1,-6,1
1574,-17,1,-3,1,14,1,10,1,-16,1,5,1,34,1,34,1,5,1,-15,1,-5,1,-6,1
1575,-16,1,-3,1,13,1,9,1,-15,1,5,1,35,1,35,1,3,1,-16,1,-6,1,-7,1
1576,-10,1,-1,1,9,1,5,1,-10,1,4,1,34,1,34,1,3,1,-17,1,-8,1,-8,1
1577,-2,1,3,1,5,1,0,1,-3,1,4,1,32,1,32,1,1,1,-21,1,-11,1,-11,1
1578,0,1,4,1,4,1,-2,1,-2,1,4,1,32,1,32,1,0,1,-23,1,-12,1,-13,1
1579,-3,1,5,1,8,1,-1,1,-5,1,6,1,34,1,32,1,2,1,-22,1,-11,1,-13,1
1580,-5,1,5,1,10,1,0,1,-7,1,7,1,34,1,31,1,3,1,-22,1,-12,1,-14,1
1581,-6,1,4,1,10,1,1,1,-8,1,7,1,31,1,28,1,2,1,-23,1,-15,1,-16,1
1582,-8,1,4,1,12,1,2,1,-10,1,8,1,29,1,24,1,2,1,-23,1,-16,1,-16,1
1583,-10,1,2,1,12,1,4,1,-11,1,7,1,25,1,23,1,0,1,-24,1,-16,1,-16,1
1584,-10,1,1,1,11,1,4,1,-10,1,6,1,22,1,22,1,0,1,-23,1,-14,1,-15,1
1585,-9,1,2,1,11,1,3,1,-10,1,6,1,17,1,20,1,-2,1,-22,1,-13,1,-14,1
1586,-13,1,0,1,13,1,6,1,-13,1,6,1,13,1,18,1,-4,1,-23,1,-12,1,-13,1
1587,-16,1,0,1,16,1,8,1,-16,1,8,1,12,1,17,1,-5,1,-23,1,-11,1,-13,1
1588,-9,1,2,1,11,1,3,1,-10,1,6,1,11,1,13,1,-6,1,-24,1,-13,1,-14,1
1589,-5,1,4,1,9,1,0,1,-7,1,6,1,13,1,13,1,-4,1,-23,1,-11,1,-12,1
1590,-2,1,4,1,6,1,-1,1,-4,1,5,1,14,1,12,1,-4,1,-23,1,-11,1,-12,1
1591,1,1,4,1,3,1,-2,1,-1,1,4,1,13,1,12,1,-4,1,-25,1,-13,1,-12,1
1592,-4,1,4,1,8,1,0,1,-6,1,6,1,14,1,12,1,-2,1,-25,1,-13,1,-13,1
1593,-5,1,6,1,11,1,0,1,-8,1,8,1,15,1,14,1,-1,1,-25,1,-13,1,-14,1
1594,-2,1,8,1,10,1,-3,1,-6,1,9,1,14,1,13,1,-3,1,-25,1,-14,1,-15,1
1595,0,1,8,1,8,1,-4,1,-4,1,8,1,11,1,13,1,-5,1,-25,1,-14,1,-16,1
1596,-6,1,8,1,14,1,-1,1,-10,1,11,1,11,1,15,1,-4,1,-23,1,-13,1,-13,1
1597,-6,1,8,1,14,1,-1,1,-10,1,11,1,11,1,13,1,-5,1,-23,1,-13,1,-12,1
1598,-6,1,7,1,13,1,0,1,-9,1,10,1,10,1,12,1,-7,1,-25,1,-14,1,-13,1
1599,-2,1,7,1,9,1,-2,1,-5,1,8,1,10,1,11,1,-7,1,-26,1,-15,1,-14,1
1600,0,1,8,1,8,1,-4,1,-4,1,8,1,10,1,10,1,-7,1,-26,1,-15,1,-14,1
1601,-2,1,7,1,9,1,-2,1,-5,1,8,1,9,1,10,1,-8,1,-27,1,-16,1,-15,1
1602,-3,1,7,1,10,1,-2,1,-6,1,8,1,8,1,10,1,-8,1,-25,1,-15,1,-14,1
1603,-6,1,5,1,11,1,0,1,-8,1,8,1,7,1,9,1,-8,1,-24,1,-13,1,-13,1
1604,-8,1,5,1,13,1,1,1,-10,1,9,1,7,1,9,1,-9,1,-25,1,-13,1,-12,1
1605,-8,1,5,1,13,1,1,1,-10,1,9,1,7,1,8,1,-8,1,-24,1,-13,1,-11,1
1606,-5,1,7,1,12,1,-1,1,-8,1,9,1,7,1,7,1,-9,1,-24,1,-11,1,-10,1
1607,-2,1,8,1,10,1,-3,1,-6,1,9,1,8,1,6,1,-8,1,-23,1,-10,1,-8,1
1608,2,1,9,1,7,1,-5,1,-2,1,8,1,8,1,6,1,-8,1,-23,1,-10,1,-8,1
1609,2,1,10,1,8,1,-6,1,-3,1,9,1,10,1,10,1,-5,1,-21,1,-7,1,-7,1
1610,6,1,12,1,6,1,-9,1,0,1,9,1,10,1,12,1,-5,1,-21,1,-6,1,-7,1
1611,2,1,11,1,9,1,-6,1,-3,1,10,1,9,1,14,1,-4,1,-21,1,-7,1,-9,1
1612,-3,1,6,1,9,1,-1,1,-6,1,7,1,7,1,12,1,-6,1,-23,1,-10,1,-12,1
1613,-6,1,4,1,10,1,1,1,-8,1,7,1,8,1,10,1,-7,1,-24,1,-13,1,-14,1
1614,-6,1,6,1,12,1,0,1,-9,1,9,1,8,1,10,1,-7,1,-25,1,-16,1,-15,1
1615,-11,1,6,1,17,1,2,1,-14,1,11,1,10,1,11,1,-6,1,-26,1,-17,1,-14,1
1616,-12,1,6,1,18,1,3,1,-15,1,12,1,11,1,11,1,-7,1,-27,1,-16,1,-13,1
1617,-12,1,6,1,18,1,3,1,-15,1,12,1,13,1,10,1,-8,1,-28,1,-14,1,-13,1
1618,-8,1,8,1,16,1,0,1,-12,1,12,1,13,1,10,1,-9,1,-28,1,-13,1,-13,1
1619,-5,1,8,1,13,1,-1,1,-9,1,10,1,11,1,9,1,-8,1,-29,1,-14,1,-16,1
1620,-4,1,8,1,12,1,-2,1,-8,1,10,1,12,1,12,1,-7,1,-29,1,-14,1,-17,1
1621,-5,1,6,1,11,1,0,1,-8,1,8,1,12,1,13,1,-8,1,-31,1,-16,1,-19,1
1622,-5,1,6,1,11,1,0,1,-8,1,8,1,12,1,14,1,-8,1,-31,1,-16,1,-17,1
1623,-1,1,8,1,9,1,-3,1,-5,1,8,1,13,1,15,1,-8,1,-29,1,-13,1,-14,1
1624,-2,1,6,1,8,1,-2,1,-5,1,7,1,11,1,12,1,-9,1,-29,1,-13,1,-13,1
1625,-3,1,4,1,7,1,0,1,-5,1,5,1,11,1,9,1,-10,1,-28,1,-13,1,-12,1
1626,-1,1,6,1,7,1,-2,1,-4,1,6,1,10,1,8,1,-9,1,-27,1,-13,1,-12,1
1627,-1,1,8,1,9,1,-3,1,-5,1,8,1,10,1,8,1,-7,1,-26,1,-13,1,-11,1
1628,-6,1,9,1,15,1,-1,1,-10,1,12,1,12,1,9,1,-6,1,-26,1,-12,1,-11,1
1629,-9,1,10,1,19,1,0,1,-14,1,14,1,14,1,11,1,-5,1,-27,1,-12,1,-12,1
1630,-8,1,10,1,18,1,-1,1,-13,1,14,1,15,1,10,1,-7,1,-29,1,-13,1,-13,1
1631,-8,1,10,1,18,1,-1,1,-13,1,14,1,15,1,10,1,-8,1,-29,1,-12,1,-13,1
1632,-10,1,8,1,18,1,1,1,-14,1,13,1,14,1,11,1,-7,1,-27,1,-10,1,-12,1
1633,-6,1,9,1,15,1,-1,1,-10,1,12,1,13,1,11,1,-6,1,-26,1,-9,1,-11,1
1634,-6,1,7,1,13,1,0,1,-9,1,10,1,12,1,11,1,-5,1,-24,1,-8,1,-9,1
1635,-6,1,10,1,16,1,-2,1,-11,1,13,1,15,1,12,1,-3,1,-20,1,-6,1,-6,1
1636,-4,1,10,1,14,1,-3,1,-9,1,12,1,15,1,9,1,-5,1,-21,1,-6,1,-7,1
1637,-3,1,7,1,10,1,-2,1,-6,1,8,1,12,1,5,1,-9,1,-24,1,-8,1,-10,1
1638,-1,1,6,1,7,1,-2,1,-4,1,6,1,11,1,3,1,-12,1,-27,1,-11,1,-13,1
1639,1,1,9,1,8,1,-5,1,-3,1,9,1,11,1,4,1,-12,1,-27,1,-10,1,-12,1
1640,0,1,11,1,11,1,-5,1,-5,1,11,1,12,1,6,1,-9,1,-24,1,-7,1,-11,1
1641,-3,1,9,1,12,1,-3,1,-7,1,10,1,12,1,6,1,-8,1,-24,1,-7,1,-12,1
1642,-2,1,9,1,11,1,-3,1,-6,1,10,1,12,1,6,1,-7,1,-25,1,-10,1,-14,1
1643,2,1,8,1,6,1,-5,1,-2,1,7,1,11,1,5,1,-7,1,-27,1,-15,1,-17,1
1644,3,1,9,1,6,1,-6,1,-1,1,8,1,12,1,5,1,-6,1,-29,1,-17,1,-18,1
1645,4,1,9,1,5,1,-6,1,0,1,7,1,12,1,5,1,-7,1,-30,1,-18,1,-19,1
1646,3,1,8,1,5,1,-5,1,-1,1,7,1,10,1,4,1,-9,1,-31,1,-18,1,-19,1
1647,5,1,9,1,4,1,-7,1,1,1,7,1,10,1,5,1,-10,1,-31,1,-16,1,-17,1
1648,2,1,9,1,7,1,-5,1,-2,1,8,1,12,1,7,1,-10,1,-30,1,-13,1,-15,1
1649,1,1,12,1,11,1,-6,1,-5,1,12,1,13,1,9,1,-8,1,-27,1,-10,1,-13,1
1650,3,1,13,1,10,1,-8,1,-3,1,12,1,13,1,9,1,-6,1,-26,1,-10,1,-13,1
1651,1,1,12,1,11,1,-6,1,-5,1,12,1,13,1,9,1,-3,1,-24,1,-9,1,-13,1
1652,0,1,12,1,12,1,-6,1,-6,1,12,1,14,1,10,1,-1,1,-19,1,-5,1,-9,1
1653,1,1,13,1,12,1,-7,1,-5,1,13,1,15,1,12,1,4,1,-12,1,2,1,-4,1
1654,2,1,12,1,10,1,-7,1,-4,1,11,1,15,1,12,1,8,1,-5,1,10,1,1,1
1655,7,1,14,1,7,1,-10,1,0,1,11,1,15,1,16,1,18,1,3,1,17,1,6,1
1656,7,1,18,1,11,1,-12,1,-2,1,15,1,18,1,26,1,40,1,19,1,29,1,14,1
1657,9,1,24,1,15,1,-16,1,-3,1,20,1,20,1,37,1,68,1,41,1,47,1,27,1
1658,12,1,31,1,19,1,-21,1,-3,1,25,1,19,1,44,1,88,1,61,1,68,1,42,1
1659,14,1,43,1,29,1,-28,1,-7,1,36,1,20,1,51,1,103,1,83,1,95,1,64,1
1660,20,1,57,1,37,1,-38,1,-8,1,47,1,22,1,57,1,115,1,109,1,132,1,93,1
1661,27,1,73,1,46,1,-50,1,-9,1,60,1,21,1,62,1,128,1,140,1,177,1,128,1
1662,29,1,94,1,65,1,-61,1,-18,1,80,1,19,1,66,1,140,1,177,1,229,1,170,1
1663,35,1,116,1,81,1,-75,1,-23,1,99,1,12,1,64,1,142,1,212,1,283,1,216,1
1664,49,1,136,1,87,1,-92,1,-19,1,112,1,-1,1,56,1,137,1,240,1,334,1,260,1
1665,62,1,151,1,89,1,-106,1,-13,1,120,1,-16,1,43,1,122,1,255,1,370,1,291,1
1666,76,1,157,1,81,1,-116,1,-2,1,119,1,-31,1,25,1,98,1,256,1,387,1,306,1
1667,82,1,154,1,72,1,-118,1,5,1,113,1,-40,1,6,1,74,1,251,1,388,1,308,1
1668,85,1,149,1,64,1,-117,1,11,1,107,1,-48,1,-13,1,48,1,238,1,375,1,300,1
1669,90,1,137,1,47,1,-113,1,22,1,92,1,-62,1,-43,1,10,1,205,1,338,1,274,1
1670,86,1,119,1,33,1,-102,1,27,1,76,1,-75,1,-75,1,-39,1,145,1,270,1,228,1
1671,77,1,99,1,22,1,-88,1,28,1,61,1,-86,1,-106,1,-99,1,56,1,171,1,161,1
1672,62,1,76,1,14,1,-69,1,24,1,45,1,-90,1,-125,1,-151,1,-31,1,72,1,92,1
1673,52,1,52,1,0,1,-52,1,26,1,26,1,-86,1,-129,1,-181,1,-96,1,0,1,38,1
1674,39,1,30,1,-9,1,-34,1,24,1,11,1,-78,1,-123,1,-193,1,-140,1,-50,1,0,1
1675,21,1,11,1,-10,1,-16,1,16,1,1,1,-66,1,-110,1,-194,1,-163,1,-82,1,-27,1
1676,5,1,-1,1,-6,1,-2,1,5,1,-3,1,-53,1,-95,1,-184,1,-168,1,-96,1,-42,1
1677,-3,1,-7,1,-4,1,5,1,0,1,-6,1,-41,1,-79,1,-166,1,-160,1,-97,1,-50,1
1678,-2,1,-7,1,-5,1,4,1,1,1,-6,1,-32,1,-66,1,-145,1,-146,1,-93,1,-52,1
1679,0,1,-5,1,-5,1,2,1,2,1,-5,1,-24,1,-54,1,-123,1,-128,1,-86,1,-52,1
1680,-4,1,-6,1,-2,1,5,1,-1,1,-4,1,-17,1,-43,1,-100,1,-110,1,-77,1,-50,1
1681,-11,1,-5,1,6,1,8,1,-9,1,0,1,-10,1,-33,1,-80,1,-92,1,-67,1,-46,1
1682,-14,1,-4,1,10,1,9,1,-12,1,3,1,-3,1,-25,1,-62,1,-77,1,-56,1,-42,1
1683,-15,1,-4,1,11,1,9,1,-13,1,3,1,0,1,-19,1,-50,1,-67,1,-49,1,-40,1
1684,-14,1,-2,1,12,1,8,1,-13,1,5,1,2,1,-14,1,-41,1,-59,1,-43,1,-38,1
1685,-14,1,0,1,14,1,7,1,-14,1,7,1,3,1,-8,1,-32,1,-53,1,-38,1,-34,1
1686,-15,1,3,1,18,1,6,1,-16,1,10,1,5,1,-4,1,-26,1,-49,1,-35,1,-31,1
1687,-16,1,4,1,20,1,6,1,-18,1,12,1,7,1,-3,1,-23,1,-47,1,-33,1,-29,1
1688,-15,1,5,1,20,1,5,1,-17,1,12,1,6,1,-3,1,-22,1,-45,1,-33,1,-28,1
1689,-13,1,7,1,20,1,3,1,-16,1,13,1,5,1,-3,1,-18,1,-40,1,-30,1,-28,1
1690,-6,1,6,1,12,1,0,1,-9,1,9,1,2,1,-6,1,-15,1,-39,1,-31,1,-31,1
1691,-8,1,5,1,13,1,1,1,-10,1,9,1,2,1,-3,1,-10,1,-37,1,-32,1,-33,1
1692,-7,1,5,1,12,1,1,1,-9,1,8,1,3,1,-1,1,-7,1,-36,1,-32,1,-33,1
1693,-7,1,4,1,11,1,1,1,-9,1,7,1,4,1,0,1,-6,1,-33,1,-28,1,-31,1
1694,-9,1,3,1,12,1,3,1,-10,1,7,1,6,1,2,1,-6,1,-30,1,-23,1,-26,1
1695,-8,1,3,1,11,1,2,1,-9,1,7,1,4,1,0,1,-7,1,-29,1,-19,1,-23,1
1696,-3,1,5,1,8,1,-1,1,-5,1,6,1,5,1,-1,1,-8,1,-28,1,-18,1,-22,1
1697,-6,1,7,1,13,1,0,1,-9,1,10,1,5,1,-1,1,-7,1,-26,1,-16,1,-19,1
1698,-10,1,8,1,18,1,1,1,-14,1,13,1,5,1,-2,1,-4,1,-23,1,-15,1,-18,1
1699,-9,1,8,1,17,1,0,1,-13,1,12,1,4,1,-2,1,-4,1,-22,1,-15,1,-19,1
1700,-5,1,7,1,12,1,-1,1,-8,1,9,1,2,1,-4,1,-4,1,-23,1,-18,1,-22,1
1701,-8,1,5,1,13,1,1,1,-10,1,9,1,0,1,-4,1,-3,1,-23,1,-20,1,-24,1
1702,-12,1,2,1,14,1,5,1,-13,1,8,1,1,1,-2,1,-1,1,-23,1,-19,1,-24,1
1703,-17,1,2,1,19,1,7,1,-18,1,10,1,3,1,1,1,-1,1,-23,1,-18,1,-24,1
1704,-14,1,5,1,19,1,4,1,-16,1,12,1,5,1,2,1,0,1,-24,1,-18,1,-23,1
1705,-12,1,7,1,19,1,2,1,-15,1,13,1,7,1,4,1,0,1,-25,1,-18,1,-23,1
1706,-6,1,7,1,13,1,0,1,-9,1,10,1,7,1,2,1,-2,1,-28,1,-22,1,-24,1
1707,-2,1,7,1,9,1,-2,1,-5,1,8,1,7,1,2,1,-3,1,-30,1,-25,1,-26,1
1708,-5,1,5,1,10,1,0,1,-7,1,7,1,6,1,1,1,-4,1,-30,1,-27,1,-27,1
1709,-4,1,4,1,8,1,0,1,-6,1,6,1,5,1,1,1,-4,1,-30,1,-26,1,-27,1
1710,-9,1,1,1,10,1,4,1,-9,1,5,1,6,1,1,1,-3,1,-29,1,-24,1,-26,1
1711,-11,1,-1,1,10,1,6,1,-11,1,4,1,4,1,0,1,-4,1,-29,1,-23,1,-26,1
1712,-14,1,-1,1,13,1,7,1,-14,1,6,1,4,1,0,1,-3,1,-27,1,-19,1,-25,1
1713,-13,1,-2,1,11,1,7,1,-12,1,4,1,4,1,0,1,-3,1,-26,1,-17,1,-25,1
1714,-15,1,-2,1,13,1,8,1,-14,1,5,1,4,1,0,1,-2,1,-25,1,-15,1,-23,1
1715,-17,1,-2,1,15,1,9,1,-16,1,6,1,6,1,1,1,-1,1,-24,1,-14,1,-21,1
1716,-20,1,-3,1,17,1,11,1,-19,1,7,1,5,1,2,1,0,1,-24,1,-15,1,-20,1
1717,-19,1,-5,1,14,1,12,1,-17,1,4,1,4,1,3,1,0,1,-24,1,-15,1,-20,1
1718,-19,1,-5,1,14,1,12,1,-17,1,4,1,6,1,4,1,0,1,-22,1,-15,1,-19,1
1719,-17,1,-3,1,14,1,10,1,-16,1,5,1,8,1,7,1,2,1,-20,1,-13,1,-18,1
1720,-15,1,-3,1,12,1,9,1,-14,1,4,1,10,1,9,1,4,1,-19,1,-12,1,-18,1
1721,-14,1,-4,1,10,1,9,1,-12,1,3,1,12,1,9,1,6,1,-20,1,-12,1,-18,1
1722,-11,1,-5,1,6,1,8,1,-9,1,0,1,12,1,9,1,6,1,-20,1,-13,1,-20,1
1723,-9,1,-5,1,4,1,7,1,-7,1,-1,1,13,1,10,1,7,1,-18,1,-13,1,-21,1
1724,-12,1,-3,1,9,1,7,1,-11,1,3,1,16,1,13,1,10,1,-15,1,-12,1,-20,1
1725,-13,1,-2,1,11,1,7,1,-12,1,4,1,16,1,13,1,11,1,-15,1,-12,1,-20,1
1726,-9,1,0,1,9,1,4,1,-9,1,4,1,14,1,12,1,12,1,-15,1,-14,1,-20,1
1727,-5,1,2,1,7,1,1,1,-6,1,4,1,14,1,13,1,14,1,-14,1,-15,1,-20,1
1728,-5,1,2,1,7,1,1,1,-6,1,4,1,12,1,14,1,15,1,-13,1,-14,1,-20,1
1729,-1,1,2,1,3,1,0,1,-2,1,2,1,11,1,14,1,15,1,-14,1,-15,1,-20,1
1730,0,1,2,1,2,1,-1,1,-1,1,2,1,11,1,15,1,16,1,-14,1,-15,1,-22,1
1731,1,1,1,1,0,1,-1,1,1,1,1,1,11,1,15,1,17,1,-15,1,-16,1,-24,1
1732,-4,1,0,1,4,1,2,1,-4,1,2,1,13,1,16,1,19,1,-13,1,-14,1,-22,1
1733,-9,1,-3,1,6,1,6,1,-8,1,1,1,14,1,15,1,20,1,-10,1,-12,1,-20,1
1734,-9,1,-3,1,6,1,6,1,-8,1,1,1,13,1,14,1,20,1,-8,1,-10,1,-17,1
1735,-7,1,-1,1,6,1,4,1,-7,1,2,1,13,1,14,1,21,1,-4,1,-6,1,-15,1
1736,-5,1,1,1,6,1,2,1,-5,1,3,1,15,1,16,1,23,1,-2,1,-2,1,-12,1
1737,-7,1,1,1,8,1,3,1,-7,1,4,1,15,1,16,1,24,1,0,1,1,1,-10,1
1738,-11,1,0,1,11,1,5,1,-11,1,5,1,16,1,19,1,27,1,2,1,4,1,-8,1
1739,-11,1,-1,1,10,1,6,1,-11,1,4,1,16,1,20,1,31,1,4,1,5,1,-8,1
1740,-7,1,-1,1,6,1,4,1,-7,1,2,1,15,1,21,1,35,1,6,1,5,1,-9,1
1741,-5,1,0,1,5,1,2,1,-5,1,2,1,17,1,21,1,39,1,8,1,6,1,-8,1
1742,-5,1,1,1,6,1,2,1,-5,1,3,1,17,1,22,1,41,1,12,1,8,1,-6,1
1743,-6,1,2,1,8,1,2,1,-7,1,5,1,19,1,24,1,44,1,18,1,12,1,-3,1
1744,-5,1,4,1,9,1,0,1,-7,1,6,1,20,1,24,1,45,1,21,1,12,1,-3,1
1745,-1,1,5,1,6,1,-2,1,-3,1,5,1,19,1,24,1,46,1,22,1,12,1,-3,1
1746,-2,1,6,1,8,1,-2,1,-5,1,7,1,20,1,27,1,50,1,24,1,15,1,-1,1
1747,0,1,5,1,5,1,-2,1,-2,1,5,1,21,1,29,1,53,1,27,1,18,1,0,1
1748,-6,1,2,1,8,1,2,1,-7,1,5,1,21,1,32,1,57,1,29,1,21,1,2,1
1749,-4,1,2,1,6,1,1,1,-5,1,4,1,21,1,33,1,59,1,31,1,22,1,2,1
1750,0,1,1,1,1,1,0,1,0,1,1,1,21,1,33,1,59,1,33,1,22,1,2,1
1751,1,1,1,1,0,1,-1,1,1,1,1,1,20,1,32,1,61,1,36,1,22,1,3,1
1752,-2,1,3,1,5,1,0,1,-3,1,4,1,20,1,33,1,64,1,40,1,26,1,6,1
1753,-5,1,1,1,6,1,2,1,-5,1,3,1,18,1,33,1,66,1,42,1,28,1,8,1
1754,-5,1,0,1,5,1,2,1,-5,1,2,1,18,1,33,1,67,1,44,1,28,1,8,1
1755,-4,1,0,1,4,1,2,1,-4,1,2,1,18,1,33,1,69,1,46,1,30,1,8,1
1756,2,1,3,1,1,1,-2,1,1,1,2,1,17,1,33,1,71,1,47,1,31,1,8,1
1757,5,1,4,1,-1,1,-4,1,3,1,2,1,17,1,34,1,72,1,49,1,34,1,8,1
1758,4,1,5,1,1,1,-4,1,2,1,3,1,17,1,35,1,73,1,51,1,36,1,10,1
1759,5,1,7,1,2,1,-6,1,2,1,5,1,18,1,36,1,74,1,54,1,37,1,12,1
1760,2,1,6,1,4,1,-4,1,-1,1,5,1,21,1,38,1,77,1,57,1,38,1,13,1
1761,2,1,6,1,4,1,-4,1,-1,1,5,1,22,1,39,1,79,1,59,1,39,1,14,1
1762,2,1,8,1,6,1,-5,1,-2,1,7,1,24,1,43,1,82,1,60,1,40,1,14,1
1763,3,1,9,1,6,1,-6,1,-1,1,8,1,27,1,47,1,85,1,61,1,41,1,15,1
1764,5,1,8,1,3,1,-6,1,1,1,6,1,28,1,50,1,86,1,60,1,39,1,12,1
1765,13,1,8,1,-5,1,-10,1,9,1,2,1,26,1,49,1,84,1,57,1,33,1,8,1
1766,12,1,8,1,-4,1,-10,1,8,1,2,1,27,1,50,1,84,1,57,1,32,1,6,1
1767,4,1,8,1,4,1,-6,1,0,1,6,1,28,1,50,1,85,1,59,1,35,1,9,1
1768,-2,1,8,1,10,1,-3,1,-6,1,9,1,29,1,50,1,85,1,60,1,39,1,13,1
1769,-6,1,8,1,14,1,-1,1,-10,1,11,1,27,1,47,1,83,1,62,1,41,1,15,1
1770,-2,1,11,1,13,1,-4,1,-7,1,12,1,25,1,43,1,81,1,61,1,42,1,17,1
1771,0,1,14,1,14,1,-7,1,-7,1,14,1,23,1,39,1,79,1,61,1,42,1,17,1
1772,3,1,16,1,13,1,-9,1,-5,1,15,1,19,1,34,1,78,1,60,1,42,1,18,1
1773,7,1,19,1,12,1,-13,1,-2,1,16,1,16,1,31,1,77,1,60,1,42,1,18,1
1774,3,1,18,1,15,1,-10,1,-6,1,17,1,13,1,29,1,76,1,60,1,42,1,18,1
1775,1,1,18,1,17,1,-9,1,-8,1,18,1,10,1,25,1,73,1,57,1,40,1,17,1
1776,2,1,20,1,18,1,-11,1,-8,1,19,1,8,1,21,1,69,1,55,1,39,1,16,1
1777,1,1,20,1,19,1,-10,1,-9,1,20,1,6,1,18,1,65,1,52,1,37,1,16,1
1778,0,1,19,1,19,1,-9,1,-9,1,19,1,2,1,14,1,60,1,48,1,35,1,14,1
1779,-1,1,19,1,20,1,-9,1,-10,1,19,1,0,1,10,1,56,1,44,1,32,1,13,1
1780,-2,1,19,1,21,1,-8,1,-11,1,20,1,0,1,8,1,54,1,42,1,30,1,12,1
1781,0,1,19,1,19,1,-9,1,-9,1,19,1,-2,1,6,1,52,1,39,1,26,1,11,1
1782,2,1,21,1,19,1,-11,1,-8,1,20,1,-2,1,6,1,50,1,35,1,25,1,10,1
1783,3,1,19,1,16,1,-11,1,-6,1,18,1,-4,1,5,1,48,1,32,1,23,1,8,1
1784,6,1,19,1,13,1,-12,1,-3,1,16,1,-6,1,4,1,43,1,28,1,21,1,7,1
1785,7,1,21,1,14,1,-14,1,-3,1,18,1,-8,1,3,1,41,1,25,1,20,1,5,1
1786,11,1,23,1,12,1,-17,1,0,1,18,1,-10,1,2,1,38,1,21,1,17,1,3,1
1787,13,1,25,1,12,1,-19,1,1,1,19,1,-11,1,1,1,35,1,16,1,15,1,2,1
1788,9,1,25,1,16,1,-17,1,-3,1,21,1,-12,1,0,1,30,1,13,1,15,1,2,1
1789,6,1,25,1,19,1,-15,1,-6,1,22,1,-13,1,-3,1,25,1,11,1,15,1,2,1
1790,4,1,25,1,21,1,-14,1,-8,1,23,1,-13,1,-5,1,22,1,11,1,15,1,4,1
1791,2,1,25,1,23,1,-13,1,-10,1,24,1,-14,1,-7,1,19,1,9,1,15,1,5,1
1792,0,1,24,1,24,1,-12,1,-12,1,24,1,-14,1,-9,1,17,1,7,1,14,1,4,1
1793,2,1,25,1,23,1,-13,1,-10,1,24,1,-12,1,-8,1,16,1,5,1,12,1,2,1
1794,2,1,26,1,24,1,-14,1,-11,1,25,1,-11,1,-6,1,15,1,4,1,10,1,0,1
1795,1,1,24,1,23,1,-12,1,-11,1,24,1,-11,1,-6,1,12,1,-2,1,6,1,-1,1
1796,-1,1,21,1,22,1,-10,1,-11,1,21,1,-10,1,-6,1,10,1,-5,1,4,1,-3,1
1797,-5,1,18,1,23,1,-6,1,-14,1,20,1,-9,1,-6,1,8,1,-8,1,3,1,-5,1
1798,-9,1,15,1,24,1,-3,1,-16,1,19,1,-10,1,-6,1,6,1,-10,1,2,1,-6,1
1799,-9,1,15,1,24,1,-3,1,-16,1,19,1,-11,1,-5,1,5,1,-11,1,0,1,-7,1
1800,-6,1,13,1,19,1,-3,1,-12,1,16,1,-12,1,-5,1,2,1,-15,1,-4,1,-11,1
1801,-6,1,11,1,17,1,-2,1,-11,1,14,1,-10,1,-4,1,1,1,-17,1,-7,1,-13,1
1802,-4,1,13,1,17,1,-4,1,-10,1,15,1,-7,1,-3,1,1,1,-18,1,-7,1,-13,1
1803,-4,1,12,1,16,1,-4,1,-10,1,14,1,-6,1,-3,1,-1,1,-19,1,-7,1,-13,1
1804,-3,1,10,1,13,1,-3,1,-8,1,11,1,-6,1,-6,1,-4,1,-22,1,-8,1,-14,1
1805,-5,1,10,1,15,1,-2,1,-10,1,12,1,-6,1,-4,1,-4,1,-21,1,-6,1,-11,1
1806,0,1,10,1,10,1,-5,1,-5,1,10,1,-7,1,-3,1,-4,1,-20,1,-5,1,-10,1
1807,-1,1,6,1,7,1,-2,1,-4,1,6,1,-7,1,-2,1,-4,1,-20,1,-5,1,-11,1
1808,-1,1,3,1,4,1,-1,1,-2,1,3,1,-6,1,-2,1,-5,1,-22,1,-6,1,-12,1
1809,-2,1,4,1,6,1,-1,1,-4,1,5,1,-3,1,0,1,-3,1,-21,1,-6,1,-12,1
1810,-5,1,3,1,8,1,1,1,-6,1,5,1,0,1,2,1,-3,1,-21,1,-6,1,-11,1
1811,-6,1,1,1,7,1,2,1,-6,1,4,1,0,1,0,1,-3,1,-22,1,-7,1,-12,1
1812,-7,1,1,1,8,1,3,1,-7,1,4,1,-1,1,0,1,-4,1,-23,1,-8,1,-13,1
1813,-5,1,2,1,7,1,1,1,-6,1,4,1,-2,1,-2,1,-5,1,-25,1,-10,1,-15,1
1814,-4,1,3,1,7,1,0,1,-5,1,5,1,-1,1,-2,1,-5,1,-26,1,-11,1,-16,1
1815,-2,1,3,1,5,1,0,1,-3,1,4,1,-2,1,-3,1,-8,1,-28,1,-14,1,-17,1
1816,-2,1,4,1,6,1,-1,1,-4,1,5,1,-1,1,-3,1,-8,1,-27,1,-14,1,-17,1
1817,-9,1,2,1,11,1,3,1,-10,1,6,1,1,1,-1,1,-4,1,-24,1,-11,1,-15,1
1818,-9,1,1,1,10,1,4,1,-9,1,5,1,0,1,0,1,-4,1,-25,1,-11,1,-15,1
1819,-5,1,0,1,5,1,2,1,-5,1,2,1,-2,1,-2,1,-5,1,-28,1,-13,1,-18,1
1820,-4,1,-1,1,3,1,2,1,-4,1,1,1,-4,1,-1,1,-5,1,-28,1,-13,1,-18,1
1821,0,1,-1,1,-1,1,0,1,0,1,-1,1,-5,1,-2,1,-7,1,-29,1,-14,1,-20,1
1822,1,1,0,1,-1,1,0,1,1,1,0,1,-5,1,-1,1,-8,1,-28,1,-14,1,-20,1
1823,0,1,0,1,0,1,0,1,0,1,0,1,-3,1,0,1,-6,1,-27,1,-14,1,-19,1
1824,-5,1,0,1,5,1,2,1,-5,1,2,1,0,1,1,1,-4,1,-25,1,-12,1,-17,1
1825,-8,1,2,1,10,1,3,1,-9,1,6,1,2,1,2,1,-3,1,-24,1,-9,1,-15,1
1826,-5,1,3,1,8,1,1,1,-6,1,5,1,1,1,1,1,-3,1,-24,1,-9,1,-15,1
1827,-6,1,1,1,7,1,2,1,-6,1,4,1,1,1,1,1,-3,1,-23,1,-9,1,-15,1
1828,-5,1,0,1,5,1,2,1,-5,1,2,1,0,1,1,1,-2,1,-22,1,-8,1,-16,1
1829,-7,1,-1,1,6,1,4,1,-7,1,2,1,2,1,4,1,1,1,-20,1,-8,1,-15,1
1830,-8,1,-2,1,6,1,5,1,-7,1,2,1,4,1,7,1,3,1,-19,1,-9,1,-15,1
1831,-7,1,-5,1,2,1,6,1,-5,1,-2,1,2,1,7,1,1,1,-21,1,-13,1,-18,1
1832,-6,1,-5,1,1,1,5,1,-4,1,-2,1,3,1,9,1,2,1,-21,1,-12,1,-17,1
1833,-7,1,-5,1,2,1,6,1,-5,1,-2,1,7,1,12,1,5,1,-19,1,-11,1,-15,1
1834,-9,1,-7,1,2,1,8,1,-6,1,-3,1,9,1,12,1,5,1,-20,1,-11,1,-16,1
1835,-6,1,-8,1,-2,1,7,1,-2,1,-5,1,7,1,10,1,3,1,-24,1,-13,1,-19,1
1836,-4,1,-9,1,-5,1,6,1,0,1,-7,1,7,1,10,1,3,1,-25,1,-14,1,-20,1
1837,-6,1,-8,1,-2,1,7,1,-2,1,-5,1,8,1,11,1,5,1,-23,1,-11,1,-18,1
1838,-7,1,-7,1,0,1,7,1,-4,1,-4,1,8,1,12,1,5,1,-23,1,-11,1,-17,1
1839,-8,1,-7,1,1,1,7,1,-5,1,-3,1,8,1,11,1,4,1,-24,1,-11,1,-16,1
1840,-10,1,-8,1,2,1,9,1,-6,1,-3,1,7,1,10,1,2,1,-24,1,-12,1,-16,1
1841,-9,1,-10,1,-1,1,9,1,-4,1,-6,1,7,1,10,1,2,1,-25,1,-13,1,-17,1
1842,-7,1,-7,1,0,1,7,1,-4,1,-4,1,7,1,10,1,2,1,-25,1,-14,1,-18,1
1843,-8,1,-7,1,1,1,7,1,-5,1,-3,1,7,1,10,1,1,1,-26,1,-15,1,-20,1
1844,-9,1,-7,1,2,1,8,1,-6,1,-3,1,8,1,10,1,1,1,-25,1,-15,1,-20,1
1845,-8,1,-4,1,4,1,6,1,-6,1,0,1,11,1,11,1,2,1,-24,1,-13,1,-17,1
1846,-8,1,-1,1,7,1,4,1,-8,1,3,1,15,1,14,1,4,1,-22,1,-8,1,-14,1
1847,-5,1,-2,1,3,1,3,1,-4,1,0,1,16,1,14,1,2,1,-22,1,-8,1,-15,1
1848,-2,1,-2,1,0,1,2,1,-1,1,-1,1,17,1,16,1,1,1,-22,1,-9,1,-16,1
1849,-1,1,-1,1,0,1,1,1,-1,1,-1,1,19,1,19,1,0,1,-21,1,-10,1,-17,1
1850,1,1,-4,1,-5,1,1,1,3,1,-4,1,18,1,19,1,-1,1,-23,1,-14,1,-20,1
1851,-4,1,-8,1,-4,1,6,1,0,1,-6,1,18,1,20,1,0,1,-25,1,-16,1,-21,1
1852,-8,1,-7,1,1,1,7,1,-5,1,-3,1,18,1,21,1,0,1,-26,1,-16,1,-21,1
1853,-11,1,-6,1,5,1,8,1,-8,1,-1,1,18,1,21,1,2,1,-25,1,-14,1,-19,1
1854,-14,1,-4,1,10,1,9,1,-12,1,3,1,18,1,21,1,4,1,-25,1,-13,1,-18,1
1855,-14,1,-3,1,11,1,8,1,-13,1,4,1,18,1,20,1,4,1,-25,1,-13,1,-18,1
1856,-16,1,-2,1,14,1,9,1,-15,1,6,1,20,1,21,1,5,1,-23,1,-11,1,-16,1
1857,-19,1,-2,1,17,1,10,1,-18,1,7,1,19,1,20,1,5,1,-22,1,-11,1,-16,1
