TS,I,If,II,IIf,III,IIIf,aVR,aVRf,aVL,aVLf,aVF,aVFf,V1,V1f,V2,V2f,V3,V3f,V4,V4f,V5,V5f,V6,V6f
1,-19,1,-20,1,-1,1,19,1,-9,1,-11,1,9,1,-17,1,-21,1,-19,1,-17,1,-29,1
2,-19,1,-20,1,-1,1,19,1,-9,1,-11,1,8,1,-18,1,-21,1,-19,1,-17,1,-28,1
3,-19,1,-20,1,-1,1,19,1,-9,1,-11,1,8,1,-18,1,-21,1,-18,1,-17,1,-28,1
4,-19,1,-20,1,-1,1,19,1,-9,1,-11,1,8,1,-18,1,-21,1,-18,1,-17,1,-28,1
5,-19,1,-21,1,-2,1,20,1,-9,1,-12,1,8,1,-17,1,-21,1,-18,1,-17,1,-29,1
6,-18,1,-21,1,-3,1,19,1,-8,1,-12,1,9,1,-15,1,-20,1,-18,1,-18,1,-28,1
7,-17,1,-22,1,-5,1,19,1,-6,1,-14,1,9,1,-10,1,-18,1,-18,1,-18,1,-28,1
8,-15,1,-23,1,-8,1,19,1,-4,1,-16,1,10,1,-4,1,-16,1,-17,1,-18,1,-28,1
9,-14,1,-23,1,-9,1,18,1,-3,1,-16,1,12,1,4,1,-13,1,-15,1,-18,1,-29,1
10,-12,1,-22,1,-10,1,17,1,-1,1,-16,1,15,1,16,1,-8,1,-13,1,-18,1,-28,1
11,-10,1,-21,1,-11,1,15,1,0,1,-16,1,19,1,30,1,-1,1,-10,1,-16,1,-27,1
12,-7,1,-17,1,-10,1,12,1,1,1,-14,1,23,1,45,1,7,1,-5,1,-14,1,-26,1
13,-4,1,-11,1,-7,1,7,1,1,1,-9,1,28,1,63,1,19,1,2,1,-8,1,-22,1
14,-1,1,-4,1,-3,1,2,1,1,1,-4,1,34,1,85,1,32,1,12,1,-1,1,-15,1
15,4,1,3,1,-1,1,-3,1,3,1,1,1,39,1,108,1,48,1,25,1,9,1,-7,1
16,10,1,15,1,5,1,-12,1,3,1,10,1,40,1,123,1,64,1,41,1,23,1,5,1
17,16,1,32,1,16,1,-24,1,0,1,24,1,39,1,128,1,78,1,58,1,41,1,23,1
18,18,1,52,1,34,1,-35,1,-8,1,43,1,38,1,121,1,91,1,77,1,62,1,44,1
19,18,1,73,1,55,1,-45,1,-18,1,64,1,37,1,107,1,102,1,95,1,85,1,67,1
20,18,1,92,1,74,1,-55,1,-28,1,83,1,30,1,79,1,109,1,111,1,107,1,89,1
21,18,1,105,1,87,1,-61,1,-34,1,96,1,14,1,38,1,109,1,122,1,126,1,109,1
22,16,1,115,1,99,1,-65,1,-41,1,107,1,-4,1,-13,1,103,1,130,1,142,1,126,1
23,12,1,122,1,110,1,-67,1,-49,1,116,1,-20,1,-66,1,97,1,135,1,154,1,136,1
24,6,1,128,1,122,1,-67,1,-58,1,125,1,-32,1,-117,1,87,1,136,1,161,1,141,1
25,0,1,128,1,128,1,-64,1,-64,1,128,1,-40,1,-162,1,73,1,131,1,160,1,141,1
26,-8,1,115,1,123,1,-53,1,-65,1,119,1,-45,1,-196,1,52,1,115,1,145,1,130,1
27,-14,1,89,1,103,1,-37,1,-58,1,96,1,-51,1,-216,1,25,1,89,1,119,1,110,1
28,-18,1,59,1,77,1,-20,1,-47,1,68,1,-53,1,-226,1,-2,1,58,1,87,1,82,1
29,-24,1,29,1,53,1,-2,1,-38,1,41,1,-51,1,-228,1,-29,1,24,1,52,1,51,1
30,-26,1,6,1,32,1,10,1,-29,1,19,1,-51,1,-226,1,-51,1,-4,1,22,1,24,1
31,-28,1,-12,1,16,1,20,1,-22,1,2,1,-52,1,-220,1,-66,1,-24,1,0,1,1,1
32,-28,1,-28,1,0,1,28,1,-14,1,-14,1,-52,1,-209,1,-72,1,-37,1,-16,1,-17,1
33,-29,1,-42,1,-13,1,35,1,-8,1,-28,1,-51,1,-194,1,-73,1,-46,1,-28,1,-31,1
34,-29,1,-52,1,-23,1,40,1,-3,1,-38,1,-50,1,-176,1,-73,1,-51,1,-36,1,-40,1
35,-28,1,-58,1,-30,1,43,1,1,1,-44,1,-48,1,-158,1,-72,1,-53,1,-42,1,-47,1
36,-26,1,-59,1,-33,1,42,1,3,1,-46,1,-45,1,-137,1,-70,1,-53,1,-43,1,-49,1
37,-24,1,-58,1,-34,1,41,1,5,1,-46,1,-41,1,-119,1,-66,1,-52,1,-43,1,-50,1
38,-21,1,-55,1,-34,1,38,1,6,1,-45,1,-37,1,-103,1,-63,1,-50,1,-42,1,-48,1
39,-19,1,-51,1,-32,1,35,1,6,1,-42,1,-32,1,-89,1,-59,1,-48,1,-40,1,-47,1
40,-17,1,-47,1,-30,1,32,1,6,1,-39,1,-26,1,-74,1,-53,1,-45,1,-37,1,-45,1
41,-14,1,-44,1,-30,1,29,1,8,1,-37,1,-19,1,-60,1,-46,1,-40,1,-33,1,-42,1
42,-13,1,-41,1,-28,1,27,1,7,1,-35,1,-15,1,-47,1,-40,1,-36,1,-30,1,-38,1
43,-12,1,-39,1,-27,1,25,1,7,1,-33,1,-10,1,-37,1,-35,1,-33,1,-26,1,-35,1
44,-11,1,-36,1,-25,1,23,1,7,1,-31,1,-7,1,-29,1,-30,1,-30,1,-23,1,-33,1
45,-11,1,-33,1,-22,1,22,1,5,1,-28,1,-3,1,-22,1,-26,1,-26,1,-20,1,-31,1
46,-10,1,-30,1,-20,1,20,1,5,1,-25,1,0,1,-17,1,-22,1,-23,1,-19,1,-28,1
47,-10,1,-27,1,-17,1,18,1,3,1,-22,1,1,1,-13,1,-19,1,-19,1,-17,1,-26,1
48,-10,1,-25,1,-15,1,17,1,2,1,-20,1,3,1,-9,1,-16,1,-16,1,-16,1,-25,1
49,-10,1,-23,1,-13,1,16,1,1,1,-18,1,5,1,-7,1,-14,1,-15,1,-15,1,-24,1
50,-10,1,-22,1,-12,1,16,1,1,1,-17,1,6,1,-5,1,-13,1,-15,1,-14,1,-22,1
51,-10,1,-22,1,-12,1,16,1,1,1,-17,1,7,1,-4,1,-12,1,-15,1,-13,1,-22,1
52,-10,1,-21,1,-11,1,15,1,0,1,-16,1,8,1,-3,1,-12,1,-15,1,-13,1,-22,1
53,-10,1,-21,1,-11,1,15,1,0,1,-16,1,9,1,-2,1,-11,1,-14,1,-13,1,-22,1
54,-11,1,-21,1,-10,1,16,1,-1,1,-16,1,9,1,-1,1,-11,1,-13,1,-13,1,-20,1
55,-10,1,-20,1,-10,1,15,1,0,1,-15,1,10,1,0,1,-11,1,-12,1,-13,1,-21,1
56,-10,1,-20,1,-10,1,15,1,0,1,-15,1,10,1,0,1,-11,1,-12,1,-13,1,-21,1
57,-10,1,-20,1,-10,1,15,1,0,1,-15,1,11,1,1,1,-11,1,-11,1,-12,1,-21,1
58,-10,1,-20,1,-10,1,15,1,0,1,-15,1,11,1,2,1,-11,1,-11,1,-12,1,-20,1
59,-11,1,-19,1,-8,1,15,1,-2,1,-14,1,11,1,3,1,-11,1,-11,1,-11,1,-20,1
60,-11,1,-19,1,-8,1,15,1,-2,1,-14,1,11,1,3,1,-11,1,-12,1,-11,1,-21,1
61,-10,1,-19,1,-9,1,14,1,-1,1,-14,1,11,1,3,1,-10,1,-12,1,-11,1,-20,1
62,-10,1,-19,1,-9,1,14,1,-1,1,-14,1,11,1,4,1,-10,1,-12,1,-11,1,-20,1
63,-10,1,-18,1,-8,1,14,1,-1,1,-13,1,12,1,4,1,-10,1,-12,1,-10,1,-19,1
64,-10,1,-18,1,-8,1,14,1,-1,1,-13,1,12,1,4,1,-9,1,-11,1,-10,1,-19,1
65,-10,1,-18,1,-8,1,14,1,-1,1,-13,1,12,1,5,1,-9,1,-11,1,-10,1,-19,1
66,-10,1,-17,1,-7,1,13,1,-2,1,-12,1,12,1,5,1,-9,1,-11,1,-10,1,-18,1
67,-9,1,-17,1,-8,1,13,1,-1,1,-13,1,12,1,6,1,-9,1,-10,1,-10,1,-17,1
68,-8,1,-16,1,-8,1,12,1,0,1,-12,1,11,1,7,1,-9,1,-10,1,-9,1,-17,1
69,-8,1,-16,1,-8,1,12,1,0,1,-12,1,12,1,7,1,-9,1,-9,1,-9,1,-17,1
70,-7,1,-15,1,-8,1,11,1,0,1,-12,1,11,1,7,1,-9,1,-9,1,-8,1,-17,1
71,-7,1,-15,1,-8,1,11,1,0,1,-12,1,11,1,8,1,-9,1,-8,1,-7,1,-17,1
72,-7,1,-15,1,-8,1,11,1,0,1,-12,1,11,1,9,1,-9,1,-8,1,-6,1,-18,1
73,-7,1,-15,1,-8,1,11,1,0,1,-12,1,11,1,9,1,-9,1,-8,1,-6,1,-18,1
74,-7,1,-14,1,-7,1,10,1,0,1,-11,1,11,1,9,1,-8,1,-8,1,-6,1,-17,1
75,-7,1,-14,1,-7,1,10,1,0,1,-11,1,11,1,10,1,-8,1,-7,1,-6,1,-16,1
76,-7,1,-13,1,-6,1,10,1,-1,1,-10,1,11,1,11,1,-8,1,-7,1,-6,1,-15,1
77,-7,1,-13,1,-6,1,10,1,-1,1,-10,1,11,1,11,1,-7,1,-6,1,-6,1,-15,1
78,-7,1,-12,1,-5,1,9,1,-1,1,-9,1,11,1,11,1,-7,1,-5,1,-6,1,-15,1
79,-6,1,-12,1,-6,1,9,1,0,1,-9,1,11,1,12,1,-7,1,-5,1,-5,1,-15,1
80,-6,1,-12,1,-6,1,9,1,0,1,-9,1,11,1,13,1,-6,1,-5,1,-5,1,-14,1
81,-5,1,-12,1,-7,1,8,1,1,1,-10,1,11,1,13,1,-5,1,-4,1,-4,1,-14,1
82,-5,1,-11,1,-6,1,8,1,0,1,-9,1,11,1,14,1,-4,1,-4,1,-4,1,-14,1
83,-4,1,-11,1,-7,1,7,1,1,1,-9,1,11,1,14,1,-4,1,-4,1,-3,1,-13,1
84,-4,1,-10,1,-6,1,7,1,1,1,-8,1,11,1,15,1,-3,1,-4,1,-3,1,-13,1
85,-4,1,-10,1,-6,1,7,1,1,1,-8,1,11,1,15,1,-3,1,-5,1,-3,1,-13,1
86,-4,1,-9,1,-5,1,6,1,0,1,-7,1,11,1,16,1,-3,1,-5,1,-3,1,-13,1
87,-4,1,-8,1,-4,1,6,1,0,1,-6,1,11,1,18,1,-3,1,-5,1,-3,1,-13,1
88,-3,1,-7,1,-4,1,5,1,0,1,-6,1,11,1,18,1,-3,1,-5,1,-3,1,-12,1
89,-3,1,-7,1,-4,1,5,1,0,1,-6,1,11,1,18,1,-2,1,-4,1,-2,1,-12,1
90,-3,1,-6,1,-3,1,4,1,0,1,-5,1,11,1,19,1,-1,1,-4,1,-2,1,-11,1
91,-3,1,-6,1,-3,1,4,1,0,1,-5,1,10,1,19,1,-1,1,-3,1,-2,1,-11,1
92,-3,1,-6,1,-3,1,4,1,0,1,-5,1,10,1,20,1,0,1,-2,1,-1,1,-9,1
93,-3,1,-6,1,-3,1,4,1,0,1,-5,1,9,1,21,1,0,1,-2,1,-1,1,-9,1
94,-3,1,-6,1,-3,1,4,1,0,1,-5,1,9,1,21,1,1,1,-1,1,0,1,-8,1
95,-2,1,-5,1,-3,1,3,1,0,1,-4,1,9,1,22,1,1,1,-1,1,0,1,-7,1
96,-2,1,-4,1,-2,1,3,1,0,1,-3,1,9,1,22,1,2,1,0,1,1,1,-6,1
97,-2,1,-4,1,-2,1,3,1,0,1,-3,1,9,1,23,1,2,1,0,1,1,1,-5,1
98,-1,1,-3,1,-2,1,2,1,0,1,-3,1,9,1,24,1,3,1,1,1,1,1,-5,1
99,-1,1,-2,1,-1,1,1,1,0,1,-2,1,8,1,25,1,4,1,1,1,2,1,-4,1
100,0,1,-1,1,-1,1,0,1,0,1,-1,1,7,1,26,1,5,1,2,1,3,1,-3,1
101,1,1,0,1,-1,1,0,1,1,1,0,1,6,1,27,1,7,1,4,1,3,1,-2,1
102,2,1,0,1,-2,1,-1,1,2,1,-1,1,5,1,28,1,8,1,5,1,4,1,-1,1
103,2,1,0,1,-2,1,-1,1,2,1,-1,1,5,1,29,1,8,1,6,1,5,1,0,1
104,3,1,1,1,-2,1,-2,1,3,1,0,1,5,1,30,1,9,1,7,1,6,1,0,1
105,4,1,2,1,-2,1,-3,1,3,1,0,1,5,1,31,1,10,1,8,1,7,1,2,1
106,4,1,3,1,-1,1,-3,1,3,1,1,1,5,1,32,1,11,1,10,1,8,1,3,1
107,5,1,4,1,-1,1,-4,1,3,1,2,1,5,1,33,1,12,1,11,1,9,1,4,1
108,5,1,5,1,0,1,-5,1,3,1,3,1,5,1,34,1,13,1,12,1,11,1,5,1
109,6,1,5,1,-1,1,-5,1,4,1,2,1,5,1,35,1,14,1,13,1,12,1,7,1
110,7,1,6,1,-1,1,-6,1,4,1,3,1,4,1,36,1,14,1,14,1,13,1,8,1
111,8,1,7,1,-1,1,-7,1,5,1,3,1,3,1,37,1,15,1,16,1,14,1,9,1
112,9,1,8,1,-1,1,-8,1,5,1,4,1,3,1,38,1,16,1,17,1,15,1,10,1
113,10,1,10,1,0,1,-10,1,5,1,5,1,2,1,40,1,17,1,18,1,16,1,11,1
114,10,1,11,1,1,1,-10,1,5,1,6,1,1,1,41,1,18,1,19,1,18,1,14,1
115,11,1,12,1,1,1,-11,1,5,1,7,1,0,1,42,1,19,1,20,1,19,1,15,1
116,12,1,12,1,0,1,-12,1,6,1,6,1,-1,1,43,1,20,1,20,1,20,1,16,1
117,13,1,14,1,1,1,-13,1,6,1,8,1,-2,1,44,1,20,1,21,1,22,1,18,1
118,15,1,15,1,0,1,-15,1,8,1,8,1,-3,1,45,1,21,1,22,1,23,1,20,1
119,15,1,16,1,1,1,-15,1,7,1,9,1,-3,1,46,1,22,1,24,1,25,1,22,1
120,17,1,18,1,1,1,-17,1,8,1,10,1,-4,1,47,1,23,1,25,1,27,1,23,1
121,18,1,19,1,1,1,-18,1,9,1,10,1,-5,1,48,1,24,1,26,1,29,1,25,1
122,19,1,20,1,1,1,-19,1,9,1,11,1,-6,1,50,1,25,1,28,1,30,1,28,1
123,20,1,21,1,1,1,-20,1,10,1,11,1,-7,1,51,1,26,1,30,1,32,1,30,1
124,22,1,23,1,1,1,-22,1,11,1,12,1,-7,1,52,1,27,1,31,1,34,1,31,1
125,23,1,24,1,1,1,-23,1,11,1,13,1,-8,1,53,1,28,1,32,1,35,1,33,1
126,23,1,25,1,2,1,-24,1,11,1,14,1,-9,1,54,1,29,1,33,1,37,1,35,1
127,24,1,26,1,2,1,-25,1,11,1,14,1,-11,1,54,1,30,1,35,1,39,1,37,1
128,26,1,28,1,2,1,-27,1,12,1,15,1,-12,1,55,1,31,1,36,1,40,1,39,1
129,27,1,30,1,3,1,-28,1,12,1,17,1,-13,1,56,1,32,1,37,1,42,1,40,1
130,28,1,32,1,4,1,-30,1,12,1,18,1,-14,1,57,1,33,1,38,1,44,1,42,1
131,29,1,33,1,4,1,-31,1,13,1,19,1,-15,1,57,1,33,1,40,1,46,1,45,1
132,30,1,34,1,4,1,-32,1,13,1,19,1,-16,1,58,1,33,1,40,1,48,1,46,1
133,31,1,35,1,4,1,-33,1,14,1,20,1,-18,1,58,1,34,1,41,1,49,1,48,1
134,33,1,37,1,4,1,-35,1,15,1,21,1,-19,1,59,1,34,1,42,1,51,1,50,1
135,34,1,38,1,4,1,-36,1,15,1,21,1,-19,1,60,1,34,1,43,1,52,1,52,1
136,35,1,39,1,4,1,-37,1,16,1,22,1,-21,1,60,1,35,1,43,1,54,1,53,1
137,36,1,40,1,4,1,-38,1,16,1,22,1,-22,1,60,1,35,1,44,1,55,1,55,1
138,37,1,41,1,4,1,-39,1,17,1,23,1,-23,1,61,1,35,1,45,1,55,1,57,1
139,38,1,43,1,5,1,-40,1,17,1,24,1,-24,1,61,1,36,1,45,1,56,1,59,1
140,38,1,44,1,6,1,-41,1,16,1,25,1,-25,1,61,1,36,1,46,1,57,1,61,1
141,39,1,45,1,6,1,-42,1,17,1,26,1,-26,1,61,1,37,1,47,1,59,1,62,1
142,39,1,46,1,7,1,-42,1,16,1,27,1,-26,1,61,1,37,1,47,1,60,1,63,1
143,39,1,46,1,7,1,-42,1,16,1,27,1,-27,1,61,1,37,1,47,1,61,1,64,1
144,40,1,46,1,6,1,-43,1,17,1,26,1,-27,1,61,1,38,1,48,1,62,1,66,1
145,41,1,47,1,6,1,-44,1,18,1,27,1,-27,1,61,1,38,1,48,1,63,1,67,1
146,42,1,47,1,5,1,-44,1,19,1,26,1,-27,1,61,1,38,1,49,1,64,1,68,1
147,43,1,48,1,5,1,-45,1,19,1,27,1,-28,1,61,1,38,1,50,1,64,1,69,1
148,44,1,48,1,4,1,-46,1,20,1,26,1,-29,1,60,1,38,1,51,1,65,1,71,1
149,44,1,49,1,5,1,-46,1,20,1,27,1,-30,1,59,1,37,1,51,1,66,1,72,1
150,44,1,49,1,5,1,-46,1,20,1,27,1,-31,1,58,1,37,1,51,1,66,1,72,1
151,43,1,50,1,7,1,-46,1,18,1,29,1,-31,1,57,1,36,1,51,1,66,1,72,1
152,43,1,50,1,7,1,-46,1,18,1,29,1,-31,1,57,1,36,1,50,1,66,1,72,1
153,42,1,50,1,8,1,-46,1,17,1,29,1,-31,1,56,1,35,1,50,1,65,1,71,1
154,41,1,50,1,9,1,-45,1,16,1,30,1,-30,1,55,1,35,1,49,1,65,1,70,1
155,40,1,50,1,10,1,-45,1,15,1,30,1,-30,1,54,1,34,1,48,1,65,1,68,1
156,39,1,50,1,11,1,-44,1,14,1,31,1,-29,1,53,1,33,1,47,1,64,1,66,1
157,37,1,49,1,12,1,-43,1,13,1,31,1,-27,1,51,1,33,1,46,1,63,1,65,1
158,35,1,48,1,13,1,-41,1,11,1,31,1,-26,1,49,1,31,1,44,1,62,1,62,1
159,33,1,48,1,15,1,-40,1,9,1,32,1,-24,1,48,1,30,1,43,1,60,1,60,1
160,31,1,46,1,15,1,-38,1,8,1,31,1,-23,1,46,1,28,1,42,1,58,1,57,1
161,29,1,45,1,16,1,-37,1,7,1,31,1,-21,1,44,1,26,1,41,1,55,1,54,1
162,27,1,43,1,16,1,-35,1,6,1,30,1,-19,1,42,1,25,1,39,1,53,1,51,1
163,25,1,41,1,16,1,-33,1,5,1,29,1,-17,1,40,1,23,1,38,1,50,1,47,1
164,23,1,38,1,15,1,-30,1,4,1,27,1,-15,1,38,1,21,1,36,1,47,1,43,1
165,19,1,35,1,16,1,-27,1,2,1,26,1,-13,1,35,1,18,1,33,1,43,1,40,1
166,16,1,32,1,16,1,-24,1,0,1,24,1,-11,1,33,1,17,1,31,1,40,1,36,1
167,13,1,29,1,16,1,-21,1,-1,1,23,1,-9,1,30,1,15,1,28,1,36,1,32,1
168,10,1,27,1,17,1,-18,1,-3,1,22,1,-6,1,28,1,13,1,25,1,34,1,28,1
169,7,1,25,1,18,1,-16,1,-5,1,22,1,-4,1,26,1,11,1,23,1,31,1,26,1
170,5,1,23,1,18,1,-14,1,-6,1,21,1,-2,1,24,1,9,1,20,1,28,1,22,1
171,4,1,20,1,16,1,-12,1,-6,1,18,1,-1,1,23,1,8,1,18,1,25,1,19,1
172,2,1,18,1,16,1,-10,1,-7,1,17,1,0,1,21,1,6,1,17,1,22,1,16,1
173,1,1,16,1,15,1,-8,1,-7,1,16,1,2,1,20,1,6,1,16,1,20,1,14,1
174,0,1,14,1,14,1,-7,1,-7,1,14,1,3,1,18,1,5,1,14,1,18,1,12,1
175,-1,1,12,1,13,1,-5,1,-7,1,12,1,4,1,16,1,4,1,12,1,16,1,9,1
176,-3,1,10,1,13,1,-3,1,-8,1,11,1,6,1,14,1,2,1,10,1,14,1,6,1
177,-5,1,8,1,13,1,-1,1,-9,1,10,1,7,1,12,1,1,1,9,1,12,1,4,1
178,-7,1,6,1,13,1,0,1,-10,1,9,1,6,1,10,1,1,1,8,1,11,1,1,1
179,-9,1,5,1,14,1,2,1,-11,1,9,1,7,1,9,1,0,1,7,1,9,1,0,1
180,-10,1,4,1,14,1,3,1,-12,1,9,1,8,1,8,1,-1,1,5,1,7,1,-2,1
181,-10,1,3,1,13,1,3,1,-11,1,8,1,9,1,7,1,-2,1,4,1,5,1,-3,1
182,-11,1,2,1,13,1,4,1,-12,1,7,1,9,1,6,1,-3,1,3,1,4,1,-5,1
183,-11,1,1,1,12,1,5,1,-11,1,6,1,10,1,5,1,-3,1,3,1,3,1,-6,1
184,-11,1,0,1,11,1,5,1,-11,1,5,1,11,1,4,1,-3,1,2,1,2,1,-7,1
185,-11,1,0,1,11,1,5,1,-11,1,5,1,11,1,3,1,-4,1,2,1,1,1,-8,1
186,-12,1,-1,1,11,1,6,1,-12,1,5,1,11,1,2,1,-4,1,2,1,1,1,-9,1
187,-12,1,-2,1,10,1,7,1,-11,1,4,1,11,1,1,1,-4,1,2,1,1,1,-11,1
188,-12,1,-3,1,9,1,7,1,-11,1,3,1,11,1,1,1,-5,1,2,1,1,1,-12,1
189,-12,1,-3,1,9,1,7,1,-11,1,3,1,11,1,0,1,-6,1,2,1,0,1,-12,1
190,-13,1,-4,1,9,1,8,1,-11,1,2,1,12,1,0,1,-6,1,1,1,0,1,-13,1
191,-14,1,-4,1,10,1,9,1,-12,1,3,1,12,1,0,1,-7,1,0,1,0,1,-13,1
192,-14,1,-5,1,9,1,9,1,-12,1,2,1,12,1,-1,1,-8,1,0,1,0,1,-14,1
193,-15,1,-5,1,10,1,10,1,-13,1,2,1,12,1,-1,1,-9,1,0,1,-1,1,-13,1
194,-15,1,-6,1,9,1,10,1,-12,1,1,1,12,1,-2,1,-9,1,0,1,-2,1,-14,1
195,-15,1,-6,1,9,1,10,1,-12,1,1,1,12,1,-2,1,-9,1,0,1,-2,1,-14,1
196,-16,1,-6,1,10,1,11,1,-13,1,2,1,12,1,-3,1,-10,1,-1,1,-2,1,-14,1
197,-16,1,-7,1,9,1,11,1,-13,1,1,1,13,1,-4,1,-10,1,-1,1,-2,1,-14,1
198,-15,1,-8,1,7,1,11,1,-11,1,-1,1,13,1,-4,1,-9,1,-1,1,-2,1,-14,1
199,-15,1,-8,1,7,1,11,1,-11,1,-1,1,13,1,-5,1,-10,1,-1,1,-3,1,-15,1
200,-15,1,-8,1,7,1,11,1,-11,1,-1,1,13,1,-5,1,-10,1,-1,1,-3,1,-15,1
201,-15,1,-8,1,7,1,11,1,-11,1,-1,1,13,1,-5,1,-10,1,-1,1,-3,1,-14,1
202,-15,1,-8,1,7,1,11,1,-11,1,-1,1,13,1,-5,1,-9,1,-2,1,-4,1,-14,1
203,-15,1,-9,1,6,1,12,1,-11,1,-2,1,13,1,-6,1,-9,1,-2,1,-4,1,-15,1
204,-15,1,-9,1,6,1,12,1,-11,1,-2,1,13,1,-6,1,-10,1,-2,1,-5,1,-15,1
205,-16,1,-8,1,8,1,12,1,-12,1,0,1,14,1,-6,1,-9,1,-3,1,-5,1,-14,1
206,-16,1,-8,1,8,1,12,1,-12,1,0,1,14,1,-6,1,-9,1,-3,1,-5,1,-14,1
207,-16,1,-8,1,8,1,12,1,-12,1,0,1,14,1,-5,1,-9,1,-3,1,-5,1,-15,1
208,-16,1,-8,1,8,1,12,1,-12,1,0,1,14,1,-5,1,-9,1,-3,1,-5,1,-15,1
209,-16,1,-8,1,8,1,12,1,-12,1,0,1,13,1,-5,1,-9,1,-3,1,-5,1,-14,1
210,-15,1,-7,1,8,1,11,1,-12,1,0,1,13,1,-4,1,-10,1,-3,1,-5,1,-15,1
211,-15,1,-8,1,7,1,11,1,-11,1,-1,1,13,1,-3,1,-10,1,-2,1,-5,1,-15,1
212,-15,1,-8,1,7,1,11,1,-11,1,-1,1,13,1,-3,1,-9,1,-2,1,-4,1,-15,1
213,-14,1,-8,1,6,1,11,1,-10,1,-1,1,12,1,-3,1,-9,1,-2,1,-4,1,-16,1
214,-14,1,-8,1,6,1,11,1,-10,1,-1,1,11,1,-3,1,-9,1,-2,1,-4,1,-16,1
215,-14,1,-8,1,6,1,11,1,-10,1,-1,1,12,1,-3,1,-9,1,-2,1,-4,1,-16,1
216,-14,1,-8,1,6,1,11,1,-10,1,-1,1,12,1,-4,1,-10,1,-3,1,-4,1,-17,1
217,-14,1,-8,1,6,1,11,1,-10,1,-1,1,12,1,-3,1,-9,1,-3,1,-4,1,-17,1
218,-14,1,-8,1,6,1,11,1,-10,1,-1,1,13,1,-3,1,-9,1,-3,1,-4,1,-17,1
219,-15,1,-8,1,7,1,11,1,-11,1,-1,1,13,1,-3,1,-9,1,-4,1,-5,1,-17,1
220,-15,1,-8,1,7,1,11,1,-11,1,-1,1,12,1,-3,1,-9,1,-4,1,-4,1,-17,1
221,-15,1,-8,1,7,1,11,1,-11,1,-1,1,12,1,-3,1,-9,1,-4,1,-4,1,-17,1
222,-15,1,-8,1,7,1,11,1,-11,1,-1,1,12,1,-3,1,-9,1,-4,1,-4,1,-16,1
223,-14,1,-8,1,6,1,11,1,-10,1,-1,1,12,1,-3,1,-9,1,-4,1,-4,1,-16,1
224,-14,1,-8,1,6,1,11,1,-10,1,-1,1,11,1,-3,1,-8,1,-4,1,-4,1,-17,1
225,-15,1,-7,1,8,1,11,1,-12,1,0,1,11,1,-2,1,-9,1,-4,1,-4,1,-17,1
226,-15,1,-7,1,8,1,11,1,-12,1,0,1,11,1,-2,1,-9,1,-3,1,-4,1,-16,1
227,-15,1,-6,1,9,1,10,1,-12,1,1,1,11,1,-2,1,-9,1,-3,1,-4,1,-17,1
228,-15,1,-6,1,9,1,10,1,-12,1,1,1,11,1,-2,1,-9,1,-3,1,-5,1,-17,1
229,-15,1,-6,1,9,1,10,1,-12,1,1,1,11,1,-1,1,-9,1,-2,1,-5,1,-17,1
230,-15,1,-6,1,9,1,10,1,-12,1,1,1,12,1,-1,1,-9,1,-2,1,-5,1,-17,1
231,-15,1,-6,1,9,1,10,1,-12,1,1,1,11,1,0,1,-9,1,-2,1,-5,1,-17,1
232,-15,1,-7,1,8,1,11,1,-12,1,0,1,11,1,0,1,-9,1,-3,1,-6,1,-17,1
233,-15,1,-7,1,8,1,11,1,-12,1,0,1,11,1,0,1,-10,1,-3,1,-5,1,-18,1
234,-15,1,-7,1,8,1,11,1,-12,1,0,1,11,1,0,1,-10,1,-3,1,-5,1,-18,1
235,-14,1,-7,1,7,1,10,1,-11,1,0,1,11,1,0,1,-10,1,-3,1,-5,1,-17,1
236,-14,1,-7,1,7,1,10,1,-11,1,0,1,12,1,0,1,-10,1,-3,1,-5,1,-17,1
237,-14,1,-8,1,6,1,11,1,-10,1,-1,1,12,1,-1,1,-10,1,-4,1,-5,1,-18,1
238,-14,1,-7,1,7,1,10,1,-11,1,0,1,13,1,-1,1,-10,1,-3,1,-5,1,-18,1
239,-14,1,-7,1,7,1,10,1,-11,1,0,1,13,1,-2,1,-10,1,-3,1,-5,1,-16,1
240,-14,1,-7,1,7,1,10,1,-11,1,0,1,13,1,-2,1,-10,1,-3,1,-5,1,-17,1
241,-14,1,-8,1,6,1,11,1,-10,1,-1,1,12,1,-1,1,-10,1,-3,1,-6,1,-17,1
242,-14,1,-8,1,6,1,11,1,-10,1,-1,1,12,1,-1,1,-9,1,-3,1,-5,1,-17,1
243,-14,1,-7,1,7,1,10,1,-11,1,0,1,11,1,-1,1,-9,1,-3,1,-5,1,-16,1
244,-13,1,-7,1,6,1,10,1,-10,1,-1,1,11,1,-1,1,-10,1,-3,1,-5,1,-16,1
245,-13,1,-6,1,7,1,9,1,-10,1,0,1,11,1,-1,1,-10,1,-3,1,-5,1,-17,1
246,-13,1,-6,1,7,1,9,1,-10,1,0,1,11,1,-1,1,-10,1,-4,1,-5,1,-17,1
247,-13,1,-6,1,7,1,9,1,-10,1,0,1,11,1,-1,1,-10,1,-4,1,-5,1,-17,1
248,-13,1,-5,1,8,1,9,1,-11,1,1,1,11,1,-1,1,-9,1,-5,1,-5,1,-16,1
249,-13,1,-5,1,8,1,9,1,-11,1,1,1,12,1,-1,1,-9,1,-5,1,-5,1,-16,1
250,-13,1,-5,1,8,1,9,1,-11,1,1,1,11,1,-2,1,-9,1,-5,1,-4,1,-17,1
251,-13,1,-5,1,8,1,9,1,-11,1,1,1,11,1,-2,1,-10,1,-5,1,-4,1,-17,1
252,-12,1,-6,1,6,1,9,1,-9,1,0,1,11,1,-3,1,-10,1,-5,1,-4,1,-17,1
253,-12,1,-6,1,6,1,9,1,-9,1,0,1,11,1,-3,1,-10,1,-5,1,-4,1,-17,1
254,-12,1,-6,1,6,1,9,1,-9,1,0,1,11,1,-3,1,-10,1,-5,1,-4,1,-18,1
255,-12,1,-6,1,6,1,9,1,-9,1,0,1,12,1,-2,1,-10,1,-5,1,-4,1,-18,1
256,-12,1,-5,1,7,1,8,1,-10,1,1,1,12,1,-2,1,-11,1,-5,1,-4,1,-19,1
257,-12,1,-5,1,7,1,8,1,-10,1,1,1,12,1,-3,1,-11,1,-5,1,-4,1,-18,1
258,-12,1,-5,1,7,1,8,1,-10,1,1,1,12,1,-3,1,-11,1,-6,1,-4,1,-19,1
259,-13,1,-5,1,8,1,9,1,-11,1,1,1,12,1,-3,1,-11,1,-6,1,-5,1,-19,1
260,-13,1,-6,1,7,1,9,1,-10,1,0,1,12,1,-4,1,-11,1,-6,1,-5,1,-20,1
261,-13,1,-6,1,7,1,9,1,-10,1,0,1,12,1,-4,1,-12,1,-5,1,-5,1,-19,1
262,-13,1,-6,1,7,1,9,1,-10,1,0,1,13,1,-5,1,-12,1,-6,1,-5,1,-19,1
263,-13,1,-7,1,6,1,10,1,-10,1,-1,1,12,1,-6,1,-12,1,-6,1,-6,1,-19,1
264,-14,1,-8,1,6,1,11,1,-10,1,-1,1,12,1,-6,1,-13,1,-7,1,-7,1,-20,1
265,-14,1,-8,1,6,1,11,1,-10,1,-1,1,12,1,-7,1,-13,1,-7,1,-7,1,-20,1
266,-14,1,-8,1,6,1,11,1,-10,1,-1,1,12,1,-7,1,-13,1,-7,1,-8,1,-19,1
267,-14,1,-7,1,7,1,10,1,-11,1,0,1,12,1,-7,1,-14,1,-7,1,-7,1,-19,1
268,-14,1,-8,1,6,1,11,1,-10,1,-1,1,13,1,-7,1,-14,1,-7,1,-7,1,-20,1
269,-14,1,-8,1,6,1,11,1,-10,1,-1,1,12,1,-7,1,-15,1,-7,1,-7,1,-21,1
270,-14,1,-8,1,6,1,11,1,-10,1,-1,1,12,1,-8,1,-15,1,-7,1,-8,1,-21,1
271,-15,1,-8,1,7,1,11,1,-11,1,-1,1,12,1,-8,1,-14,1,-8,1,-8,1,-21,1
272,-15,1,-8,1,7,1,11,1,-11,1,-1,1,11,1,-8,1,-14,1,-8,1,-7,1,-21,1
273,-16,1,-9,1,7,1,12,1,-12,1,-1,1,11,1,-9,1,-15,1,-9,1,-7,1,-22,1
274,-16,1,-9,1,7,1,12,1,-12,1,-1,1,11,1,-9,1,-15,1,-10,1,-7,1,-22,1
275,-16,1,-9,1,7,1,12,1,-12,1,-1,1,11,1,-9,1,-16,1,-11,1,-7,1,-22,1
276,-16,1,-9,1,7,1,12,1,-12,1,-1,1,11,1,-9,1,-17,1,-11,1,-6,1,-22,1
277,-16,1,-9,1,7,1,12,1,-12,1,-1,1,11,1,-9,1,-17,1,-11,1,-6,1,-22,1
278,-16,1,-8,1,8,1,12,1,-12,1,0,1,11,1,-10,1,-17,1,-11,1,-6,1,-22,1
279,-16,1,-8,1,8,1,12,1,-12,1,0,1,11,1,-10,1,-18,1,-11,1,-6,1,-22,1
280,-17,1,-8,1,9,1,12,1,-13,1,0,1,12,1,-10,1,-18,1,-11,1,-6,1,-22,1
281,-16,1,-8,1,8,1,12,1,-12,1,0,1,11,1,-10,1,-17,1,-11,1,-6,1,-22,1
282,-16,1,-8,1,8,1,12,1,-12,1,0,1,11,1,-10,1,-17,1,-11,1,-6,1,-22,1
283,-16,1,-8,1,8,1,12,1,-12,1,0,1,11,1,-10,1,-17,1,-12,1,-7,1,-23,1
284,-17,1,-8,1,9,1,12,1,-13,1,0,1,11,1,-11,1,-17,1,-12,1,-7,1,-22,1
285,-16,1,-7,1,9,1,11,1,-13,1,1,1,11,1,-10,1,-17,1,-12,1,-7,1,-22,1
286,-16,1,-7,1,9,1,11,1,-13,1,1,1,11,1,-11,1,-17,1,-13,1,-7,1,-22,1
287,-16,1,-8,1,8,1,12,1,-12,1,0,1,11,1,-11,1,-17,1,-13,1,-7,1,-23,1
288,-16,1,-8,1,8,1,12,1,-12,1,0,1,10,1,-12,1,-17,1,-13,1,-7,1,-22,1
289,-16,1,-8,1,8,1,12,1,-12,1,0,1,9,1,-13,1,-17,1,-13,1,-7,1,-22,1
290,-16,1,-8,1,8,1,12,1,-12,1,0,1,9,1,-13,1,-17,1,-13,1,-7,1,-23,1
291,-16,1,-9,1,7,1,12,1,-12,1,-1,1,9,1,-14,1,-17,1,-13,1,-7,1,-23,1
292,-16,1,-9,1,7,1,12,1,-12,1,-1,1,9,1,-14,1,-18,1,-13,1,-7,1,-23,1
293,-16,1,-9,1,7,1,12,1,-12,1,-1,1,9,1,-13,1,-18,1,-13,1,-7,1,-22,1
294,-16,1,-9,1,7,1,12,1,-12,1,-1,1,9,1,-13,1,-18,1,-13,1,-8,1,-23,1
295,-16,1,-9,1,7,1,12,1,-12,1,-1,1,9,1,-13,1,-18,1,-14,1,-8,1,-23,1
296,-15,1,-9,1,6,1,12,1,-11,1,-2,1,9,1,-13,1,-18,1,-14,1,-8,1,-23,1
297,-16,1,-9,1,7,1,12,1,-12,1,-1,1,9,1,-13,1,-19,1,-14,1,-8,1,-22,1
298,-16,1,-8,1,8,1,12,1,-12,1,0,1,9,1,-13,1,-19,1,-14,1,-9,1,-23,1
299,-15,1,-8,1,7,1,11,1,-11,1,-1,1,9,1,-14,1,-19,1,-15,1,-9,1,-23,1
300,-15,1,-8,1,7,1,11,1,-11,1,-1,1,9,1,-14,1,-19,1,-14,1,-9,1,-23,1
301,-15,1,-8,1,7,1,11,1,-11,1,-1,1,10,1,-14,1,-19,1,-14,1,-8,1,-23,1
302,-15,1,-8,1,7,1,11,1,-11,1,-1,1,9,1,-14,1,-19,1,-14,1,-8,1,-23,1
303,-15,1,-8,1,7,1,11,1,-11,1,-1,1,9,1,-14,1,-19,1,-14,1,-8,1,-24,1
304,-15,1,-8,1,7,1,11,1,-11,1,-1,1,9,1,-14,1,-19,1,-14,1,-8,1,-25,1
305,-15,1,-7,1,8,1,11,1,-12,1,0,1,9,1,-13,1,-19,1,-14,1,-8,1,-26,1
306,-15,1,-7,1,8,1,11,1,-12,1,0,1,9,1,-13,1,-19,1,-14,1,-8,1,-26,1
307,-15,1,-7,1,8,1,11,1,-12,1,0,1,8,1,-14,1,-18,1,-14,1,-8,1,-25,1
308,-15,1,-8,1,7,1,11,1,-11,1,-1,1,9,1,-13,1,-18,1,-14,1,-8,1,-25,1
309,-15,1,-8,1,7,1,11,1,-11,1,-1,1,9,1,-13,1,-18,1,-14,1,-8,1,-25,1
310,-15,1,-9,1,6,1,12,1,-11,1,-2,1,9,1,-14,1,-19,1,-14,1,-9,1,-25,1
311,-16,1,-9,1,7,1,12,1,-12,1,-1,1,9,1,-14,1,-19,1,-14,1,-9,1,-24,1
312,-16,1,-8,1,8,1,12,1,-12,1,0,1,9,1,-15,1,-20,1,-14,1,-10,1,-24,1
313,-16,1,-8,1,8,1,12,1,-12,1,0,1,9,1,-15,1,-19,1,-15,1,-10,1,-24,1
314,-15,1,-8,1,7,1,11,1,-11,1,-1,1,9,1,-14,1,-19,1,-14,1,-9,1,-23,1
315,-15,1,-8,1,7,1,11,1,-11,1,-1,1,9,1,-14,1,-19,1,-15,1,-9,1,-23,1
316,-15,1,-8,1,7,1,11,1,-11,1,-1,1,10,1,-14,1,-19,1,-15,1,-9,1,-23,1
317,-15,1,-7,1,8,1,11,1,-12,1,0,1,10,1,-14,1,-19,1,-15,1,-9,1,-23,1
318,-16,1,-7,1,9,1,11,1,-13,1,1,1,10,1,-14,1,-19,1,-16,1,-9,1,-24,1
319,-15,1,-7,1,8,1,11,1,-12,1,0,1,10,1,-14,1,-19,1,-16,1,-9,1,-24,1
320,-15,1,-7,1,8,1,11,1,-12,1,0,1,10,1,-14,1,-19,1,-17,1,-10,1,-25,1
321,-16,1,-8,1,8,1,12,1,-12,1,0,1,10,1,-14,1,-19,1,-17,1,-10,1,-25,1
322,-17,1,-9,1,8,1,13,1,-13,1,-1,1,11,1,-14,1,-19,1,-17,1,-10,1,-25,1
323,-17,1,-9,1,8,1,13,1,-13,1,-1,1,11,1,-15,1,-20,1,-17,1,-11,1,-25,1
324,-17,1,-9,1,8,1,13,1,-13,1,-1,1,11,1,-15,1,-20,1,-17,1,-11,1,-25,1
325,-17,1,-9,1,8,1,13,1,-13,1,-1,1,11,1,-14,1,-20,1,-16,1,-10,1,-24,1
326,-17,1,-9,1,8,1,13,1,-13,1,-1,1,9,1,-14,1,-20,1,-16,1,-10,1,-23,1
327,-16,1,-8,1,8,1,12,1,-12,1,0,1,9,1,-14,1,-20,1,-16,1,-10,1,-23,1
328,-16,1,-8,1,8,1,12,1,-12,1,0,1,9,1,-14,1,-19,1,-16,1,-9,1,-23,1
329,-16,1,-8,1,8,1,12,1,-12,1,0,1,10,1,-14,1,-19,1,-16,1,-9,1,-24,1
330,-16,1,-8,1,8,1,12,1,-12,1,0,1,10,1,-14,1,-19,1,-16,1,-8,1,-23,1
331,-16,1,-9,1,7,1,12,1,-12,1,-1,1,10,1,-14,1,-19,1,-16,1,-8,1,-23,1
332,-16,1,-10,1,6,1,13,1,-11,1,-2,1,9,1,-13,1,-19,1,-16,1,-9,1,-23,1
333,-16,1,-10,1,6,1,13,1,-11,1,-2,1,9,1,-14,1,-19,1,-16,1,-10,1,-24,1
334,-16,1,-10,1,6,1,13,1,-11,1,-2,1,9,1,-14,1,-20,1,-17,1,-10,1,-24,1
335,-17,1,-11,1,6,1,14,1,-12,1,-3,1,9,1,-14,1,-20,1,-17,1,-10,1,-24,1
336,-17,1,-10,1,7,1,13,1,-12,1,-2,1,9,1,-14,1,-20,1,-16,1,-10,1,-24,1
337,-17,1,-10,1,7,1,13,1,-12,1,-2,1,9,1,-14,1,-20,1,-16,1,-10,1,-24,1
338,-17,1,-10,1,7,1,13,1,-12,1,-2,1,9,1,-14,1,-21,1,-16,1,-10,1,-25,1
339,-18,1,-10,1,8,1,14,1,-13,1,-1,1,9,1,-14,1,-21,1,-16,1,-10,1,-25,1
340,-18,1,-10,1,8,1,14,1,-13,1,-1,1,10,1,-14,1,-21,1,-17,1,-10,1,-24,1
341,-18,1,-10,1,8,1,14,1,-13,1,-1,1,9,1,-14,1,-21,1,-17,1,-10,1,-24,1
342,-18,1,-10,1,8,1,14,1,-13,1,-1,1,9,1,-15,1,-21,1,-17,1,-10,1,-25,1
343,-18,1,-10,1,8,1,14,1,-13,1,-1,1,10,1,-15,1,-21,1,-17,1,-10,1,-26,1
344,-18,1,-10,1,8,1,14,1,-13,1,-1,1,9,1,-15,1,-20,1,-17,1,-10,1,-26,1
345,-18,1,-10,1,8,1,14,1,-13,1,-1,1,10,1,-15,1,-20,1,-16,1,-10,1,-24,1
346,-18,1,-10,1,8,1,14,1,-13,1,-1,1,10,1,-16,1,-20,1,-16,1,-9,1,-25,1
347,-18,1,-9,1,9,1,13,1,-14,1,0,1,9,1,-15,1,-20,1,-16,1,-9,1,-24,1
348,-18,1,-9,1,9,1,13,1,-14,1,0,1,9,1,-15,1,-20,1,-16,1,-9,1,-24,1
349,-18,1,-8,1,10,1,13,1,-14,1,1,1,10,1,-14,1,-21,1,-15,1,-8,1,-23,1
350,-17,1,-6,1,11,1,11,1,-14,1,2,1,11,1,-13,1,-20,1,-14,1,-8,1,-22,1
351,-17,1,-5,1,12,1,11,1,-15,1,3,1,12,1,-11,1,-18,1,-12,1,-7,1,-21,1
352,-16,1,-3,1,13,1,9,1,-15,1,5,1,14,1,-10,1,-16,1,-11,1,-6,1,-20,1
353,-16,1,-1,1,15,1,8,1,-16,1,7,1,15,1,-9,1,-15,1,-10,1,-5,1,-20,1
354,-16,1,0,1,16,1,8,1,-16,1,8,1,16,1,-8,1,-14,1,-9,1,-3,1,-20,1
355,-16,1,2,1,18,1,7,1,-17,1,10,1,17,1,-8,1,-13,1,-8,1,-1,1,-18,1
356,-16,1,3,1,19,1,6,1,-17,1,11,1,18,1,-7,1,-12,1,-7,1,0,1,-17,1
357,-16,1,4,1,20,1,6,1,-18,1,12,1,19,1,-6,1,-12,1,-6,1,0,1,-16,1
358,-16,1,5,1,21,1,5,1,-18,1,13,1,19,1,-6,1,-12,1,-5,1,1,1,-15,1
359,-15,1,6,1,21,1,4,1,-18,1,13,1,21,1,-5,1,-11,1,-5,1,1,1,-15,1
360,-15,1,7,1,22,1,4,1,-18,1,14,1,22,1,-4,1,-11,1,-4,1,1,1,-14,1
361,-15,1,8,1,23,1,3,1,-19,1,15,1,24,1,-3,1,-10,1,-4,1,2,1,-13,1
362,-15,1,9,1,24,1,3,1,-19,1,16,1,25,1,-3,1,-10,1,-3,1,2,1,-14,1
363,-15,1,10,1,25,1,2,1,-20,1,17,1,25,1,-3,1,-9,1,-2,1,2,1,-14,1
364,-15,1,11,1,26,1,2,1,-20,1,18,1,25,1,-3,1,-8,1,-1,1,3,1,-14,1
365,-16,1,13,1,29,1,1,1,-22,1,21,1,25,1,-3,1,-7,1,0,1,4,1,-12,1
366,-15,1,14,1,29,1,0,1,-22,1,21,1,25,1,-2,1,-6,1,0,1,5,1,-12,1
367,-15,1,15,1,30,1,0,1,-22,1,22,1,24,1,-2,1,-6,1,1,1,6,1,-11,1
368,-15,1,16,1,31,1,0,1,-23,1,23,1,24,1,-2,1,-6,1,1,1,7,1,-10,1
369,-14,1,16,1,30,1,-1,1,-22,1,23,1,21,1,-2,1,-6,1,2,1,7,1,-10,1
370,-13,1,18,1,31,1,-2,1,-22,1,24,1,20,1,-3,1,-6,1,2,1,8,1,-9,1
371,-13,1,19,1,32,1,-3,1,-22,1,25,1,18,1,-4,1,-5,1,2,1,8,1,-8,1
372,-12,1,20,1,32,1,-4,1,-22,1,26,1,17,1,-4,1,-5,1,2,1,9,1,-8,1
373,-11,1,22,1,33,1,-5,1,-22,1,27,1,16,1,-5,1,-4,1,2,1,9,1,-7,1
374,-9,1,23,1,32,1,-7,1,-20,1,27,1,15,1,-6,1,-4,1,3,1,10,1,-6,1
375,-8,1,24,1,32,1,-8,1,-20,1,28,1,13,1,-7,1,-4,1,3,1,10,1,-5,1
376,-8,1,25,1,33,1,-8,1,-20,1,29,1,11,1,-8,1,-4,1,2,1,10,1,-5,1
377,-7,1,26,1,33,1,-9,1,-20,1,29,1,11,1,-8,1,-5,1,2,1,11,1,-6,1
378,-7,1,26,1,33,1,-9,1,-20,1,29,1,10,1,-8,1,-5,1,2,1,10,1,-6,1
379,-7,1,25,1,32,1,-9,1,-19,1,28,1,10,1,-8,1,-6,1,1,1,10,1,-7,1
380,-7,1,24,1,31,1,-8,1,-19,1,27,1,10,1,-8,1,-7,1,1,1,10,1,-7,1
381,-7,1,23,1,30,1,-8,1,-18,1,26,1,10,1,-9,1,-8,1,1,1,9,1,-7,1
382,-7,1,21,1,28,1,-7,1,-17,1,24,1,10,1,-9,1,-9,1,0,1,8,1,-7,1
383,-8,1,19,1,27,1,-5,1,-17,1,23,1,10,1,-10,1,-9,1,0,1,8,1,-8,1
384,-9,1,16,1,25,1,-3,1,-17,1,20,1,9,1,-10,1,-10,1,-1,1,7,1,-9,1
385,-10,1,13,1,23,1,-1,1,-16,1,18,1,10,1,-11,1,-10,1,-2,1,7,1,-9,1
386,-11,1,10,1,21,1,0,1,-16,1,15,1,10,1,-11,1,-11,1,-3,1,5,1,-11,1
387,-13,1,7,1,20,1,3,1,-16,1,13,1,10,1,-11,1,-11,1,-4,1,4,1,-12,1
388,-14,1,4,1,18,1,5,1,-16,1,11,1,10,1,-11,1,-13,1,-5,1,2,1,-13,1
389,-14,1,1,1,15,1,6,1,-14,1,8,1,10,1,-11,1,-14,1,-6,1,1,1,-14,1
390,-15,1,-1,1,14,1,8,1,-15,1,6,1,10,1,-11,1,-15,1,-7,1,0,1,-15,1
391,-15,1,-3,1,12,1,9,1,-14,1,4,1,10,1,-11,1,-16,1,-9,1,-1,1,-16,1
392,-16,1,-6,1,10,1,11,1,-13,1,2,1,9,1,-12,1,-17,1,-11,1,-2,1,-18,1
393,-16,1,-8,1,8,1,12,1,-12,1,0,1,8,1,-14,1,-19,1,-13,1,-4,1,-20,1
394,-17,1,-10,1,7,1,13,1,-12,1,-2,1,8,1,-15,1,-21,1,-15,1,-5,1,-22,1
395,-17,1,-12,1,5,1,14,1,-11,1,-4,1,8,1,-17,1,-22,1,-16,1,-6,1,-23,1
396,-18,1,-14,1,4,1,16,1,-11,1,-5,1,8,1,-17,1,-23,1,-17,1,-6,1,-25,1
397,-19,1,-15,1,4,1,17,1,-12,1,-6,1,8,1,-19,1,-24,1,-17,1,-7,1,-25,1
398,-19,1,-16,1,3,1,17,1,-11,1,-7,1,8,1,-19,1,-25,1,-17,1,-7,1,-25,1
399,-19,1,-17,1,2,1,18,1,-11,1,-8,1,8,1,-19,1,-25,1,-17,1,-7,1,-25,1
400,-19,1,-18,1,1,1,18,1,-10,1,-9,1,9,1,-19,1,-25,1,-17,1,-7,1,-24,1
401,-19,1,-18,1,1,1,18,1,-10,1,-9,1,9,1,-19,1,-25,1,-17,1,-7,1,-24,1
402,-19,1,-19,1,0,1,19,1,-10,1,-10,1,8,1,-20,1,-25,1,-17,1,-7,1,-24,1
403,-19,1,-19,1,0,1,19,1,-10,1,-10,1,8,1,-20,1,-26,1,-17,1,-7,1,-24,1
404,-19,1,-20,1,-1,1,19,1,-9,1,-11,1,9,1,-20,1,-26,1,-17,1,-7,1,-24,1
405,-19,1,-20,1,-1,1,19,1,-9,1,-11,1,9,1,-20,1,-25,1,-17,1,-8,1,-24,1
406,-18,1,-19,1,-1,1,18,1,-9,1,-10,1,9,1,-20,1,-26,1,-17,1,-8,1,-24,1
407,-19,1,-19,1,0,1,19,1,-10,1,-10,1,9,1,-21,1,-26,1,-17,1,-9,1,-25,1
408,-18,1,-19,1,-1,1,18,1,-9,1,-10,1,10,1,-21,1,-26,1,-17,1,-9,1,-26,1
409,-18,1,-19,1,-1,1,18,1,-9,1,-10,1,10,1,-21,1,-26,1,-17,1,-9,1,-26,1
410,-19,1,-19,1,0,1,19,1,-10,1,-10,1,10,1,-21,1,-25,1,-17,1,-9,1,-25,1
411,-19,1,-20,1,-1,1,19,1,-9,1,-11,1,10,1,-21,1,-25,1,-17,1,-9,1,-26,1
412,-19,1,-19,1,0,1,19,1,-10,1,-10,1,10,1,-21,1,-25,1,-17,1,-8,1,-26,1
413,-19,1,-19,1,0,1,19,1,-10,1,-10,1,11,1,-20,1,-24,1,-17,1,-9,1,-26,1
414,-18,1,-19,1,-1,1,18,1,-9,1,-10,1,11,1,-20,1,-23,1,-17,1,-9,1,-26,1
415,-18,1,-20,1,-2,1,19,1,-8,1,-11,1,11,1,-20,1,-23,1,-17,1,-9,1,-24,1
416,-18,1,-19,1,-1,1,18,1,-9,1,-10,1,11,1,-20,1,-23,1,-17,1,-9,1,-25,1
417,-18,1,-19,1,-1,1,18,1,-9,1,-10,1,10,1,-20,1,-22,1,-17,1,-8,1,-25,1
418,-17,1,-19,1,-2,1,18,1,-8,1,-11,1,10,1,-19,1,-22,1,-17,1,-8,1,-25,1
419,-17,1,-20,1,-3,1,18,1,-7,1,-12,1,10,1,-17,1,-21,1,-17,1,-8,1,-25,1
420,-16,1,-20,1,-4,1,18,1,-6,1,-12,1,11,1,-14,1,-20,1,-17,1,-7,1,-24,1
421,-14,1,-22,1,-8,1,18,1,-3,1,-15,1,11,1,-8,1,-19,1,-17,1,-7,1,-24,1
422,-14,1,-23,1,-9,1,18,1,-3,1,-16,1,12,1,0,1,-17,1,-15,1,-7,1,-24,1
423,-12,1,-23,1,-11,1,17,1,-1,1,-17,1,15,1,10,1,-14,1,-13,1,-7,1,-24,1
424,-10,1,-22,1,-12,1,16,1,1,1,-17,1,19,1,23,1,-8,1,-11,1,-6,1,-23,1
425,-8,1,-20,1,-12,1,14,1,2,1,-16,1,24,1,39,1,0,1,-6,1,-4,1,-21,1
426,-5,1,-15,1,-10,1,10,1,2,1,-13,1,30,1,57,1,10,1,1,1,0,1,-17,1
427,-2,1,-7,1,-5,1,4,1,1,1,-6,1,37,1,78,1,23,1,10,1,7,1,-12,1
428,3,1,1,1,-2,1,-2,1,3,1,0,1,43,1,102,1,40,1,22,1,15,1,-4,1
429,10,1,12,1,2,1,-11,1,4,1,7,1,46,1,120,1,57,1,37,1,28,1,8,1
430,16,1,28,1,12,1,-22,1,2,1,20,1,44,1,128,1,73,1,54,1,45,1,25,1
431,19,1,47,1,28,1,-33,1,-4,1,38,1,43,1,124,1,86,1,72,1,66,1,45,1
432,19,1,68,1,49,1,-43,1,-15,1,59,1,41,1,112,1,97,1,91,1,89,1,66,1
433,20,1,86,1,66,1,-53,1,-23,1,76,1,36,1,90,1,105,1,109,1,113,1,89,1
434,20,1,101,1,81,1,-60,1,-30,1,91,1,23,1,54,1,107,1,122,1,133,1,110,1
435,18,1,111,1,93,1,-64,1,-37,1,102,1,4,1,7,1,104,1,131,1,149,1,128,1
436,15,1,121,1,106,1,-68,1,-45,1,114,1,-14,1,-45,1,98,1,136,1,161,1,140,1
437,9,1,127,1,118,1,-68,1,-54,1,123,1,-26,1,-96,1,90,1,138,1,168,1,146,1
438,3,1,129,1,126,1,-66,1,-61,1,128,1,-35,1,-143,1,79,1,135,1,168,1,147,1
439,-4,1,121,1,125,1,-58,1,-64,1,123,1,-40,1,-181,1,59,1,120,1,156,1,137,1
440,-10,1,97,1,107,1,-43,1,-58,1,102,1,-46,1,-206,1,33,1,95,1,133,1,118,1
441,-16,1,66,1,82,1,-25,1,-49,1,74,1,-50,1,-220,1,4,1,64,1,102,1,92,1
442,-23,1,34,1,57,1,-5,1,-40,1,45,1,-49,1,-225,1,-25,1,30,1,67,1,61,1
443,-28,1,9,1,37,1,9,1,-32,1,23,1,-48,1,-226,1,-50,1,0,1,36,1,31,1
444,-29,1,-9,1,20,1,19,1,-25,1,5,1,-48,1,-221,1,-66,1,-20,1,13,1,7,1
445,-30,1,-25,1,5,1,27,1,-18,1,-10,1,-46,1,-211,1,-74,1,-34,1,-5,1,-11,1
446,-29,1,-38,1,-9,1,33,1,-10,1,-24,1,-47,1,-196,1,-75,1,-42,1,-17,1,-24,1
447,-29,1,-48,1,-19,1,38,1,-5,1,-34,1,-46,1,-179,1,-74,1,-48,1,-26,1,-35,1
448,-27,1,-55,1,-28,1,41,1,0,1,-42,1,-46,1,-161,1,-73,1,-51,1,-32,1,-42,1
449,-25,1,-58,1,-33,1,41,1,4,1,-46,1,-44,1,-142,1,-71,1,-52,1,-34,1,-46,1
450,-22,1,-57,1,-35,1,39,1,6,1,-46,1,-41,1,-124,1,-68,1,-51,1,-35,1,-47,1
451,-21,1,-55,1,-34,1,38,1,6,1,-45,1,-37,1,-108,1,-66,1,-49,1,-33,1,-47,1
452,-19,1,-53,1,-34,1,36,1,7,1,-44,1,-31,1,-93,1,-62,1,-47,1,-32,1,-46,1
453,-18,1,-49,1,-31,1,33,1,6,1,-40,1,-25,1,-79,1,-56,1,-44,1,-29,1,-44,1
454,-16,1,-45,1,-29,1,30,1,6,1,-37,1,-18,1,-64,1,-49,1,-41,1,-25,1,-41,1
455,-14,1,-41,1,-27,1,27,1,6,1,-34,1,-12,1,-51,1,-42,1,-37,1,-21,1,-38,1
456,-13,1,-38,1,-25,1,25,1,6,1,-32,1,-7,1,-40,1,-37,1,-35,1,-19,1,-33,1
457,-11,1,-36,1,-25,1,23,1,7,1,-31,1,-4,1,-32,1,-32,1,-32,1,-16,1,-30,1
458,-10,1,-33,1,-23,1,21,1,6,1,-28,1,-1,1,-25,1,-29,1,-28,1,-14,1,-27,1
459,-9,1,-30,1,-21,1,19,1,6,1,-26,1,1,1,-19,1,-25,1,-24,1,-12,1,-25,1
460,-9,1,-28,1,-19,1,18,1,5,1,-24,1,4,1,-15,1,-22,1,-20,1,-10,1,-23,1
461,-9,1,-26,1,-17,1,17,1,4,1,-22,1,6,1,-11,1,-20,1,-17,1,-8,1,-22,1
462,-9,1,-24,1,-15,1,16,1,3,1,-20,1,8,1,-8,1,-18,1,-15,1,-7,1,-21,1
463,-9,1,-23,1,-14,1,16,1,2,1,-19,1,9,1,-6,1,-17,1,-14,1,-6,1,-20,1
464,-9,1,-21,1,-12,1,15,1,1,1,-17,1,10,1,-5,1,-15,1,-14,1,-5,1,-20,1
465,-9,1,-21,1,-12,1,15,1,1,1,-17,1,11,1,-4,1,-15,1,-14,1,-5,1,-20,1
466,-10,1,-21,1,-11,1,15,1,0,1,-16,1,12,1,-3,1,-14,1,-14,1,-5,1,-19,1
467,-10,1,-20,1,-10,1,15,1,0,1,-15,1,13,1,-2,1,-14,1,-15,1,-4,1,-19,1
468,-10,1,-21,1,-11,1,15,1,0,1,-16,1,13,1,-2,1,-14,1,-15,1,-4,1,-19,1
469,-11,1,-21,1,-10,1,16,1,-1,1,-16,1,14,1,-1,1,-14,1,-14,1,-4,1,-20,1
470,-11,1,-20,1,-9,1,15,1,-1,1,-15,1,14,1,-1,1,-14,1,-14,1,-4,1,-20,1
471,-11,1,-20,1,-9,1,15,1,-1,1,-15,1,15,1,0,1,-14,1,-13,1,-4,1,-20,1
472,-11,1,-19,1,-8,1,15,1,-2,1,-14,1,15,1,0,1,-14,1,-13,1,-4,1,-19,1
473,-11,1,-19,1,-8,1,15,1,-2,1,-14,1,15,1,1,1,-14,1,-12,1,-3,1,-19,1
474,-10,1,-19,1,-9,1,14,1,-1,1,-14,1,16,1,1,1,-14,1,-12,1,-3,1,-19,1
475,-10,1,-19,1,-9,1,14,1,-1,1,-14,1,15,1,2,1,-14,1,-12,1,-3,1,-19,1
476,-9,1,-19,1,-10,1,14,1,0,1,-15,1,15,1,3,1,-14,1,-12,1,-3,1,-19,1
477,-9,1,-18,1,-9,1,13,1,0,1,-14,1,16,1,3,1,-13,1,-11,1,-4,1,-19,1
478,-8,1,-18,1,-10,1,13,1,1,1,-14,1,16,1,4,1,-13,1,-11,1,-3,1,-18,1
479,-8,1,-18,1,-10,1,13,1,1,1,-14,1,16,1,5,1,-12,1,-11,1,-3,1,-18,1
480,-8,1,-17,1,-9,1,12,1,0,1,-13,1,16,1,5,1,-12,1,-11,1,-2,1,-17,1
481,-8,1,-17,1,-9,1,12,1,0,1,-13,1,16,1,6,1,-12,1,-10,1,-2,1,-17,1
482,-7,1,-17,1,-10,1,12,1,1,1,-14,1,16,1,7,1,-11,1,-10,1,-1,1,-15,1
483,-7,1,-17,1,-10,1,12,1,1,1,-14,1,16,1,7,1,-11,1,-9,1,-1,1,-15,1
484,-7,1,-16,1,-9,1,11,1,1,1,-13,1,16,1,7,1,-11,1,-9,1,-1,1,-15,1
485,-8,1,-16,1,-8,1,12,1,0,1,-12,1,16,1,8,1,-11,1,-9,1,-1,1,-15,1
486,-8,1,-15,1,-7,1,11,1,-1,1,-11,1,16,1,7,1,-11,1,-9,1,-1,1,-15,1
487,-8,1,-15,1,-7,1,11,1,-1,1,-11,1,17,1,8,1,-10,1,-8,1,-1,1,-14,1
488,-8,1,-14,1,-6,1,11,1,-1,1,-10,1,17,1,9,1,-9,1,-7,1,0,1,-13,1
489,-8,1,-14,1,-6,1,11,1,-1,1,-10,1,17,1,9,1,-9,1,-7,1,0,1,-13,1
490,-8,1,-13,1,-5,1,10,1,-2,1,-9,1,17,1,10,1,-8,1,-7,1,1,1,-13,1
491,-7,1,-12,1,-5,1,9,1,-1,1,-9,1,17,1,11,1,-7,1,-7,1,1,1,-14,1
492,-7,1,-12,1,-5,1,9,1,-1,1,-9,1,18,1,12,1,-7,1,-6,1,1,1,-13,1
493,-6,1,-11,1,-5,1,8,1,-1,1,-8,1,18,1,13,1,-6,1,-6,1,2,1,-13,1
494,-6,1,-11,1,-5,1,8,1,-1,1,-8,1,18,1,14,1,-5,1,-6,1,2,1,-12,1
495,-6,1,-11,1,-5,1,8,1,-1,1,-8,1,17,1,14,1,-5,1,-6,1,3,1,-12,1
496,-6,1,-11,1,-5,1,8,1,-1,1,-8,1,17,1,14,1,-4,1,-6,1,3,1,-11,1
497,-5,1,-10,1,-5,1,7,1,0,1,-8,1,17,1,14,1,-5,1,-6,1,3,1,-11,1
498,-5,1,-10,1,-5,1,7,1,0,1,-8,1,17,1,15,1,-5,1,-6,1,4,1,-11,1
499,-5,1,-9,1,-4,1,7,1,-1,1,-7,1,17,1,16,1,-5,1,-6,1,4,1,-10,1
500,-5,1,-8,1,-3,1,6,1,-1,1,-6,1,17,1,16,1,-5,1,-6,1,4,1,-10,1
501,-4,1,-8,1,-4,1,6,1,0,1,-6,1,18,1,17,1,-4,1,-5,1,5,1,-10,1
502,-4,1,-7,1,-3,1,5,1,-1,1,-5,1,18,1,17,1,-4,1,-5,1,6,1,-10,1
503,-3,1,-7,1,-4,1,5,1,0,1,-6,1,18,1,18,1,-3,1,-4,1,6,1,-11,1
504,-3,1,-6,1,-3,1,4,1,0,1,-5,1,18,1,19,1,-2,1,-4,1,7,1,-9,1
505,-3,1,-6,1,-3,1,4,1,0,1,-5,1,18,1,20,1,-1,1,-4,1,8,1,-8,1
506,-2,1,-6,1,-4,1,4,1,1,1,-5,1,17,1,21,1,0,1,-3,1,8,1,-8,1
507,-2,1,-5,1,-3,1,3,1,0,1,-4,1,17,1,21,1,0,1,-3,1,9,1,-8,1
508,-2,1,-4,1,-2,1,3,1,0,1,-3,1,17,1,22,1,1,1,-2,1,9,1,-7,1
509,-2,1,-3,1,-1,1,2,1,-1,1,-2,1,16,1,22,1,2,1,-1,1,10,1,-6,1
510,-1,1,-3,1,-2,1,2,1,0,1,-3,1,16,1,23,1,3,1,0,1,10,1,-5,1
511,-1,1,-2,1,-1,1,1,1,0,1,-2,1,15,1,24,1,3,1,0,1,10,1,-5,1
512,0,1,-1,1,-1,1,0,1,0,1,-1,1,15,1,25,1,3,1,1,1,11,1,-5,1
513,0,1,-1,1,-1,1,0,1,0,1,-1,1,15,1,25,1,4,1,2,1,12,1,-5,1
514,1,1,0,1,-1,1,0,1,1,1,0,1,14,1,25,1,5,1,3,1,13,1,-4,1
515,2,1,0,1,-2,1,-1,1,2,1,-1,1,14,1,26,1,6,1,4,1,14,1,-2,1
516,3,1,1,1,-2,1,-2,1,3,1,0,1,13,1,27,1,6,1,5,1,14,1,-1,1
517,3,1,1,1,-2,1,-2,1,3,1,0,1,13,1,28,1,7,1,6,1,15,1,-1,1
518,3,1,3,1,0,1,-3,1,2,1,2,1,12,1,29,1,8,1,7,1,16,1,0,1
519,4,1,4,1,0,1,-4,1,2,1,2,1,12,1,31,1,9,1,9,1,17,1,0,1
520,4,1,5,1,1,1,-4,1,2,1,3,1,11,1,32,1,11,1,10,1,19,1,2,1
521,5,1,5,1,0,1,-5,1,3,1,3,1,10,1,33,1,12,1,12,1,20,1,4,1
522,5,1,6,1,1,1,-5,1,2,1,4,1,10,1,34,1,13,1,13,1,21,1,5,1
523,6,1,6,1,0,1,-6,1,3,1,3,1,9,1,35,1,14,1,14,1,22,1,6,1
524,8,1,7,1,-1,1,-7,1,5,1,3,1,8,1,37,1,14,1,15,1,23,1,7,1
525,8,1,8,1,0,1,-8,1,4,1,4,1,7,1,38,1,15,1,17,1,24,1,9,1
526,9,1,10,1,1,1,-9,1,4,1,6,1,7,1,38,1,16,1,18,1,26,1,10,1
527,10,1,11,1,1,1,-10,1,5,1,6,1,6,1,39,1,17,1,19,1,27,1,11,1
528,11,1,12,1,1,1,-11,1,5,1,7,1,6,1,41,1,18,1,20,1,29,1,13,1
529,11,1,13,1,2,1,-12,1,5,1,8,1,5,1,42,1,19,1,21,1,30,1,14,1
530,12,1,15,1,3,1,-13,1,5,1,9,1,5,1,44,1,20,1,22,1,31,1,16,1
531,14,1,16,1,2,1,-15,1,6,1,9,1,5,1,45,1,21,1,24,1,33,1,19,1
532,15,1,18,1,3,1,-16,1,6,1,11,1,4,1,46,1,22,1,26,1,35,1,20,1
533,16,1,19,1,3,1,-17,1,7,1,11,1,3,1,47,1,23,1,27,1,37,1,22,1
534,17,1,20,1,3,1,-18,1,7,1,12,1,2,1,48,1,24,1,28,1,38,1,24,1
535,19,1,22,1,3,1,-20,1,8,1,13,1,1,1,49,1,26,1,30,1,40,1,26,1
536,20,1,24,1,4,1,-22,1,8,1,14,1,0,1,50,1,27,1,31,1,41,1,28,1
537,21,1,25,1,4,1,-23,1,9,1,15,1,-1,1,52,1,28,1,32,1,43,1,30,1
538,22,1,26,1,4,1,-24,1,9,1,15,1,-2,1,53,1,29,1,34,1,45,1,32,1
539,23,1,27,1,4,1,-25,1,10,1,16,1,-2,1,54,1,30,1,35,1,47,1,33,1
540,24,1,29,1,5,1,-26,1,10,1,17,1,-4,1,56,1,31,1,36,1,49,1,36,1
541,26,1,30,1,4,1,-28,1,11,1,17,1,-5,1,56,1,31,1,37,1,51,1,38,1
542,27,1,32,1,5,1,-29,1,11,1,19,1,-6,1,57,1,32,1,38,1,52,1,41,1
543,28,1,33,1,5,1,-30,1,12,1,19,1,-7,1,57,1,32,1,39,1,52,1,42,1
544,29,1,34,1,5,1,-31,1,12,1,20,1,-8,1,57,1,33,1,39,1,54,1,44,1
545,31,1,35,1,4,1,-33,1,14,1,20,1,-9,1,58,1,34,1,40,1,55,1,45,1
546,32,1,36,1,4,1,-34,1,14,1,20,1,-10,1,58,1,34,1,41,1,57,1,47,1
547,34,1,38,1,4,1,-36,1,15,1,21,1,-11,1,58,1,34,1,42,1,59,1,49,1
548,35,1,39,1,4,1,-37,1,16,1,22,1,-12,1,58,1,34,1,43,1,60,1,50,1
549,35,1,40,1,5,1,-37,1,15,1,23,1,-13,1,58,1,35,1,44,1,62,1,52,1
550,36,1,41,1,5,1,-38,1,16,1,23,1,-15,1,58,1,35,1,45,1,63,1,54,1
551,37,1,42,1,5,1,-39,1,16,1,24,1,-15,1,58,1,36,1,45,1,64,1,55,1
552,37,1,43,1,6,1,-40,1,16,1,25,1,-16,1,58,1,36,1,46,1,66,1,57,1
553,38,1,44,1,6,1,-41,1,16,1,25,1,-17,1,58,1,37,1,47,1,67,1,59,1
554,38,1,45,1,7,1,-41,1,16,1,26,1,-18,1,58,1,37,1,47,1,68,1,60,1
555,39,1,46,1,7,1,-42,1,16,1,27,1,-18,1,59,1,37,1,48,1,69,1,61,1
556,39,1,46,1,7,1,-42,1,16,1,27,1,-19,1,58,1,37,1,48,1,70,1,62,1
557,40,1,48,1,8,1,-44,1,16,1,28,1,-20,1,58,1,37,1,49,1,71,1,64,1
558,40,1,49,1,9,1,-44,1,16,1,29,1,-20,1,58,1,37,1,49,1,72,1,65,1
559,41,1,50,1,9,1,-45,1,16,1,30,1,-21,1,58,1,38,1,50,1,73,1,66,1
560,42,1,51,1,9,1,-46,1,17,1,30,1,-22,1,58,1,38,1,50,1,74,1,67,1
561,42,1,51,1,9,1,-46,1,17,1,30,1,-23,1,57,1,38,1,50,1,74,1,68,1
562,43,1,52,1,9,1,-47,1,17,1,31,1,-23,1,57,1,38,1,50,1,75,1,69,1
563,43,1,52,1,9,1,-47,1,17,1,31,1,-24,1,57,1,37,1,51,1,75,1,70,1
564,43,1,52,1,9,1,-47,1,17,1,31,1,-24,1,56,1,37,1,51,1,75,1,70,1
565,43,1,52,1,9,1,-47,1,17,1,31,1,-24,1,56,1,37,1,51,1,76,1,70,1
566,42,1,52,1,10,1,-47,1,16,1,31,1,-24,1,55,1,37,1,50,1,77,1,71,1
567,41,1,52,1,11,1,-46,1,15,1,32,1,-23,1,54,1,36,1,50,1,77,1,70,1
568,41,1,52,1,11,1,-46,1,15,1,32,1,-22,1,53,1,36,1,50,1,77,1,71,1
569,39,1,51,1,12,1,-45,1,14,1,32,1,-22,1,51,1,35,1,49,1,75,1,70,1
570,38,1,51,1,13,1,-44,1,13,1,32,1,-21,1,50,1,34,1,48,1,74,1,68,1
571,36,1,50,1,14,1,-43,1,11,1,32,1,-19,1,49,1,31,1,46,1,73,1,66,1
572,34,1,49,1,15,1,-41,1,10,1,32,1,-18,1,47,1,30,1,45,1,71,1,63,1
573,32,1,47,1,15,1,-39,1,9,1,31,1,-16,1,45,1,27,1,42,1,69,1,60,1
574,29,1,45,1,16,1,-37,1,7,1,31,1,-14,1,43,1,26,1,41,1,67,1,57,1
575,26,1,43,1,17,1,-34,1,5,1,30,1,-11,1,41,1,24,1,39,1,64,1,53,1
576,24,1,41,1,17,1,-32,1,4,1,29,1,-10,1,39,1,22,1,37,1,61,1,50,1
577,23,1,39,1,16,1,-31,1,4,1,28,1,-8,1,37,1,20,1,35,1,58,1,46,1
578,20,1,37,1,17,1,-28,1,2,1,27,1,-6,1,35,1,18,1,33,1,55,1,43,1
579,18,1,35,1,17,1,-26,1,1,1,26,1,-3,1,33,1,16,1,31,1,52,1,39,1
580,16,1,33,1,17,1,-24,1,0,1,25,1,-1,1,31,1,15,1,28,1,49,1,35,1
581,13,1,30,1,17,1,-21,1,-2,1,24,1,0,1,29,1,14,1,27,1,47,1,31,1
582,11,1,28,1,17,1,-19,1,-3,1,23,1,2,1,26,1,12,1,25,1,44,1,29,1
583,8,1,25,1,17,1,-16,1,-4,1,21,1,4,1,24,1,10,1,22,1,41,1,25,1
584,6,1,22,1,16,1,-14,1,-5,1,19,1,6,1,21,1,8,1,20,1,38,1,22,1
585,4,1,20,1,16,1,-12,1,-6,1,18,1,7,1,19,1,7,1,19,1,36,1,18,1
586,2,1,18,1,16,1,-10,1,-7,1,17,1,9,1,18,1,5,1,17,1,33,1,15,1
587,0,1,16,1,16,1,-8,1,-8,1,16,1,11,1,16,1,4,1,15,1,31,1,13,1
588,0,1,14,1,14,1,-7,1,-7,1,14,1,13,1,15,1,3,1,14,1,29,1,10,1
589,-2,1,12,1,14,1,-5,1,-8,1,13,1,14,1,13,1,2,1,12,1,27,1,7,1
590,-4,1,10,1,14,1,-3,1,-9,1,12,1,15,1,12,1,2,1,11,1,25,1,5,1
591,-5,1,8,1,13,1,-1,1,-9,1,10,1,16,1,11,1,1,1,10,1,23,1,4,1
592,-7,1,6,1,13,1,0,1,-10,1,9,1,17,1,9,1,1,1,9,1,21,1,2,1
593,-8,1,5,1,13,1,1,1,-10,1,9,1,17,1,7,1,0,1,9,1,20,1,0,1
594,-8,1,4,1,12,1,2,1,-10,1,8,1,18,1,6,1,-1,1,8,1,18,1,-1,1
595,-9,1,3,1,12,1,3,1,-10,1,7,1,19,1,5,1,-1,1,7,1,17,1,-3,1
596,-10,1,2,1,12,1,4,1,-11,1,7,1,19,1,4,1,-2,1,6,1,15,1,-5,1
597,-10,1,1,1,11,1,4,1,-10,1,6,1,19,1,3,1,-3,1,5,1,14,1,-5,1
598,-11,1,0,1,11,1,5,1,-11,1,5,1,20,1,2,1,-4,1,4,1,14,1,-7,1
599,-11,1,0,1,11,1,5,1,-11,1,5,1,20,1,1,1,-4,1,3,1,13,1,-8,1
600,-11,1,-1,1,10,1,6,1,-11,1,4,1,20,1,0,1,-5,1,2,1,12,1,-9,1
601,-12,1,-2,1,10,1,7,1,-11,1,4,1,20,1,0,1,-5,1,2,1,12,1,-9,1
602,-12,1,-2,1,10,1,7,1,-11,1,4,1,20,1,-1,1,-5,1,2,1,11,1,-10,1
603,-13,1,-3,1,10,1,8,1,-12,1,3,1,21,1,-1,1,-6,1,1,1,10,1,-11,1
604,-13,1,-4,1,9,1,8,1,-11,1,2,1,21,1,-2,1,-6,1,1,1,10,1,-11,1
605,-14,1,-5,1,9,1,9,1,-12,1,2,1,21,1,-2,1,-6,1,2,1,10,1,-12,1
606,-14,1,-6,1,8,1,10,1,-11,1,1,1,21,1,-3,1,-7,1,1,1,9,1,-11,1
607,-14,1,-6,1,8,1,10,1,-11,1,1,1,21,1,-3,1,-8,1,1,1,9,1,-12,1
608,-14,1,-6,1,8,1,10,1,-11,1,1,1,21,1,-4,1,-9,1,1,1,9,1,-12,1
609,-14,1,-6,1,8,1,10,1,-11,1,1,1,21,1,-4,1,-9,1,0,1,9,1,-12,1
610,-14,1,-6,1,8,1,10,1,-11,1,1,1,21,1,-5,1,-10,1,0,1,8,1,-13,1
611,-13,1,-6,1,7,1,9,1,-10,1,0,1,21,1,-5,1,-10,1,-1,1,8,1,-13,1
612,-13,1,-6,1,7,1,9,1,-10,1,0,1,21,1,-6,1,-11,1,-1,1,7,1,-14,1
613,-14,1,-6,1,8,1,10,1,-11,1,1,1,21,1,-6,1,-11,1,-2,1,6,1,-14,1
614,-14,1,-6,1,8,1,10,1,-11,1,1,1,21,1,-6,1,-11,1,-3,1,6,1,-15,1
615,-14,1,-6,1,8,1,10,1,-11,1,1,1,21,1,-6,1,-11,1,-3,1,5,1,-14,1
616,-15,1,-6,1,9,1,10,1,-12,1,1,1,21,1,-7,1,-11,1,-3,1,5,1,-14,1
617,-15,1,-6,1,9,1,10,1,-12,1,1,1,22,1,-6,1,-11,1,-3,1,5,1,-14,1
618,-15,1,-7,1,8,1,11,1,-12,1,0,1,22,1,-6,1,-11,1,-4,1,5,1,-14,1
619,-14,1,-7,1,7,1,10,1,-11,1,0,1,22,1,-6,1,-12,1,-4,1,5,1,-14,1
620,-14,1,-7,1,7,1,10,1,-11,1,0,1,22,1,-7,1,-12,1,-3,1,5,1,-14,1
621,-14,1,-7,1,7,1,10,1,-11,1,0,1,23,1,-7,1,-12,1,-3,1,6,1,-14,1
622,-14,1,-7,1,7,1,10,1,-11,1,0,1,23,1,-7,1,-11,1,-2,1,6,1,-14,1
623,-14,1,-7,1,7,1,10,1,-11,1,0,1,23,1,-7,1,-11,1,-1,1,7,1,-14,1
624,-15,1,-7,1,8,1,11,1,-12,1,0,1,23,1,-7,1,-10,1,-1,1,7,1,-14,1
625,-15,1,-6,1,9,1,10,1,-12,1,1,1,23,1,-7,1,-10,1,-2,1,7,1,-13,1
626,-15,1,-6,1,9,1,10,1,-12,1,1,1,23,1,-7,1,-10,1,-2,1,6,1,-13,1
627,-15,1,-6,1,9,1,10,1,-12,1,1,1,23,1,-6,1,-10,1,-3,1,6,1,-13,1
628,-16,1,-6,1,10,1,11,1,-13,1,2,1,23,1,-6,1,-10,1,-3,1,5,1,-14,1
629,-15,1,-6,1,9,1,10,1,-12,1,1,1,23,1,-6,1,-11,1,-3,1,4,1,-14,1
630,-15,1,-6,1,9,1,10,1,-12,1,1,1,23,1,-6,1,-11,1,-3,1,4,1,-14,1
631,-15,1,-7,1,8,1,11,1,-12,1,0,1,23,1,-5,1,-11,1,-2,1,4,1,-14,1
632,-15,1,-6,1,9,1,10,1,-12,1,1,1,23,1,-5,1,-11,1,-2,1,4,1,-15,1
633,-15,1,-6,1,9,1,10,1,-12,1,1,1,23,1,-4,1,-10,1,-2,1,4,1,-15,1
634,-15,1,-6,1,9,1,10,1,-12,1,1,1,23,1,-4,1,-10,1,-1,1,4,1,-15,1
635,-16,1,-6,1,10,1,11,1,-13,1,2,1,23,1,-4,1,-9,1,-2,1,4,1,-15,1
636,-16,1,-5,1,11,1,10,1,-14,1,3,1,23,1,-3,1,-9,1,-2,1,4,1,-15,1
637,-16,1,-6,1,10,1,11,1,-13,1,2,1,23,1,-3,1,-9,1,-2,1,4,1,-15,1
638,-15,1,-6,1,9,1,10,1,-12,1,1,1,23,1,-3,1,-9,1,-2,1,4,1,-15,1
639,-15,1,-6,1,9,1,10,1,-12,1,1,1,22,1,-3,1,-10,1,-3,1,4,1,-14,1
640,-15,1,-6,1,9,1,10,1,-12,1,1,1,22,1,-3,1,-10,1,-4,1,4,1,-15,1
641,-15,1,-6,1,9,1,10,1,-12,1,1,1,22,1,-3,1,-10,1,-4,1,4,1,-15,1
642,-14,1,-6,1,8,1,10,1,-11,1,1,1,22,1,-3,1,-10,1,-4,1,4,1,-15,1
643,-14,1,-6,1,8,1,10,1,-11,1,1,1,23,1,-3,1,-11,1,-5,1,3,1,-15,1
644,-14,1,-7,1,7,1,10,1,-11,1,0,1,22,1,-3,1,-11,1,-5,1,3,1,-15,1
645,-14,1,-7,1,7,1,10,1,-11,1,0,1,23,1,-3,1,-12,1,-6,1,3,1,-15,1
646,-14,1,-7,1,7,1,10,1,-11,1,0,1,23,1,-3,1,-12,1,-5,1,3,1,-15,1
647,-14,1,-7,1,7,1,10,1,-11,1,0,1,23,1,-3,1,-11,1,-5,1,4,1,-15,1
648,-14,1,-7,1,7,1,10,1,-11,1,0,1,22,1,-2,1,-11,1,-5,1,4,1,-16,1
649,-14,1,-7,1,7,1,10,1,-11,1,0,1,21,1,-2,1,-11,1,-4,1,4,1,-15,1
650,-14,1,-7,1,7,1,10,1,-11,1,0,1,21,1,-2,1,-11,1,-4,1,4,1,-15,1
651,-14,1,-7,1,7,1,10,1,-11,1,0,1,21,1,-2,1,-10,1,-4,1,4,1,-16,1
652,-14,1,-7,1,7,1,10,1,-11,1,0,1,20,1,-1,1,-10,1,-3,1,3,1,-16,1
653,-14,1,-7,1,7,1,10,1,-11,1,0,1,20,1,-1,1,-10,1,-3,1,3,1,-15,1
654,-14,1,-7,1,7,1,10,1,-11,1,0,1,20,1,-2,1,-10,1,-2,1,3,1,-15,1
655,-14,1,-7,1,7,1,10,1,-11,1,0,1,21,1,-2,1,-9,1,-2,1,3,1,-15,1
656,-14,1,-6,1,8,1,10,1,-11,1,1,1,22,1,-2,1,-9,1,-2,1,3,1,-15,1
657,-15,1,-6,1,9,1,10,1,-12,1,1,1,22,1,-2,1,-10,1,-3,1,3,1,-15,1
658,-15,1,-6,1,9,1,10,1,-12,1,1,1,22,1,-2,1,-10,1,-2,1,4,1,-14,1
659,-15,1,-6,1,9,1,10,1,-12,1,1,1,22,1,-3,1,-10,1,-2,1,4,1,-13,1
660,-14,1,-5,1,9,1,9,1,-12,1,2,1,22,1,-3,1,-11,1,-2,1,5,1,-14,1
661,-14,1,-5,1,9,1,9,1,-12,1,2,1,22,1,-3,1,-11,1,-2,1,5,1,-15,1
662,-14,1,-5,1,9,1,9,1,-12,1,2,1,22,1,-3,1,-11,1,-2,1,4,1,-16,1
663,-14,1,-5,1,9,1,9,1,-12,1,2,1,21,1,-3,1,-11,1,-3,1,4,1,-16,1
664,-14,1,-5,1,9,1,9,1,-12,1,2,1,20,1,-3,1,-11,1,-4,1,3,1,-16,1
665,-14,1,-6,1,8,1,10,1,-11,1,1,1,20,1,-3,1,-12,1,-4,1,3,1,-17,1
666,-14,1,-6,1,8,1,10,1,-11,1,1,1,20,1,-3,1,-13,1,-4,1,2,1,-18,1
667,-14,1,-6,1,8,1,10,1,-11,1,1,1,21,1,-4,1,-13,1,-4,1,2,1,-18,1
668,-14,1,-6,1,8,1,10,1,-11,1,1,1,21,1,-4,1,-13,1,-5,1,2,1,-17,1
669,-14,1,-6,1,8,1,10,1,-11,1,1,1,22,1,-5,1,-13,1,-4,1,2,1,-17,1
670,-15,1,-6,1,9,1,10,1,-12,1,1,1,22,1,-6,1,-13,1,-4,1,2,1,-18,1
671,-15,1,-6,1,9,1,10,1,-12,1,1,1,22,1,-6,1,-12,1,-5,1,2,1,-18,1
672,-15,1,-6,1,9,1,10,1,-12,1,1,1,22,1,-6,1,-12,1,-5,1,2,1,-18,1
673,-14,1,-6,1,8,1,10,1,-11,1,1,1,22,1,-7,1,-12,1,-5,1,2,1,-17,1
674,-14,1,-7,1,7,1,10,1,-11,1,0,1,22,1,-7,1,-12,1,-5,1,2,1,-17,1
675,-14,1,-7,1,7,1,10,1,-11,1,0,1,22,1,-7,1,-12,1,-6,1,2,1,-17,1
676,-14,1,-7,1,7,1,10,1,-11,1,0,1,22,1,-8,1,-12,1,-6,1,2,1,-17,1
677,-14,1,-7,1,7,1,10,1,-11,1,0,1,22,1,-8,1,-13,1,-7,1,1,1,-18,1
678,-14,1,-6,1,8,1,10,1,-11,1,1,1,22,1,-8,1,-13,1,-7,1,1,1,-18,1
679,-14,1,-6,1,8,1,10,1,-11,1,1,1,22,1,-8,1,-13,1,-7,1,1,1,-17,1
680,-14,1,-6,1,8,1,10,1,-11,1,1,1,22,1,-8,1,-13,1,-7,1,1,1,-18,1
681,-14,1,-6,1,8,1,10,1,-11,1,1,1,22,1,-8,1,-14,1,-8,1,0,1,-19,1
682,-14,1,-6,1,8,1,10,1,-11,1,1,1,21,1,-8,1,-14,1,-8,1,0,1,-19,1
683,-13,1,-6,1,7,1,9,1,-10,1,0,1,21,1,-8,1,-15,1,-8,1,0,1,-20,1
684,-13,1,-6,1,7,1,9,1,-10,1,0,1,21,1,-8,1,-15,1,-8,1,0,1,-19,1
685,-13,1,-7,1,6,1,10,1,-10,1,-1,1,21,1,-9,1,-16,1,-8,1,0,1,-19,1
686,-13,1,-7,1,6,1,10,1,-10,1,-1,1,21,1,-9,1,-16,1,-9,1,-1,1,-20,1
687,-14,1,-7,1,7,1,10,1,-11,1,0,1,20,1,-10,1,-17,1,-9,1,-2,1,-20,1
688,-14,1,-7,1,7,1,10,1,-11,1,0,1,20,1,-10,1,-17,1,-10,1,-2,1,-20,1
689,-16,1,-7,1,9,1,11,1,-13,1,1,1,20,1,-11,1,-17,1,-10,1,-2,1,-19,1
690,-16,1,-7,1,9,1,11,1,-13,1,1,1,20,1,-11,1,-18,1,-11,1,-2,1,-19,1
691,-17,1,-8,1,9,1,12,1,-13,1,0,1,21,1,-11,1,-18,1,-11,1,-2,1,-19,1
692,-17,1,-8,1,9,1,12,1,-13,1,0,1,21,1,-11,1,-18,1,-11,1,-2,1,-19,1
693,-17,1,-8,1,9,1,12,1,-13,1,0,1,21,1,-11,1,-17,1,-11,1,-2,1,-20,1
694,-16,1,-8,1,8,1,12,1,-12,1,0,1,21,1,-11,1,-17,1,-11,1,-1,1,-20,1
695,-17,1,-9,1,8,1,13,1,-13,1,-1,1,21,1,-11,1,-17,1,-11,1,-1,1,-20,1
696,-16,1,-9,1,7,1,12,1,-12,1,-1,1,21,1,-11,1,-17,1,-11,1,-2,1,-21,1
697,-16,1,-9,1,7,1,12,1,-12,1,-1,1,21,1,-11,1,-17,1,-11,1,-2,1,-21,1
698,-16,1,-8,1,8,1,12,1,-12,1,0,1,21,1,-12,1,-17,1,-11,1,-3,1,-22,1
699,-16,1,-8,1,8,1,12,1,-12,1,0,1,22,1,-12,1,-17,1,-11,1,-3,1,-22,1
700,-16,1,-9,1,7,1,12,1,-12,1,-1,1,22,1,-12,1,-18,1,-11,1,-3,1,-22,1
701,-16,1,-9,1,7,1,12,1,-12,1,-1,1,22,1,-12,1,-18,1,-12,1,-3,1,-22,1
702,-16,1,-9,1,7,1,12,1,-12,1,-1,1,21,1,-12,1,-19,1,-12,1,-3,1,-23,1
703,-17,1,-9,1,8,1,13,1,-13,1,-1,1,21,1,-12,1,-19,1,-12,1,-3,1,-23,1
704,-16,1,-10,1,6,1,13,1,-11,1,-2,1,21,1,-12,1,-19,1,-12,1,-4,1,-22,1
705,-16,1,-9,1,7,1,12,1,-12,1,-1,1,21,1,-11,1,-19,1,-12,1,-4,1,-22,1
706,-16,1,-9,1,7,1,12,1,-12,1,-1,1,21,1,-11,1,-20,1,-12,1,-4,1,-22,1
707,-16,1,-9,1,7,1,12,1,-12,1,-1,1,21,1,-11,1,-19,1,-13,1,-4,1,-22,1
708,-16,1,-8,1,8,1,12,1,-12,1,0,1,21,1,-11,1,-19,1,-13,1,-5,1,-22,1
709,-16,1,-8,1,8,1,12,1,-12,1,0,1,21,1,-11,1,-19,1,-15,1,-5,1,-23,1
710,-16,1,-8,1,8,1,12,1,-12,1,0,1,21,1,-11,1,-19,1,-15,1,-5,1,-22,1
711,-17,1,-9,1,8,1,13,1,-13,1,-1,1,21,1,-12,1,-19,1,-15,1,-5,1,-22,1
712,-17,1,-9,1,8,1,13,1,-13,1,-1,1,21,1,-12,1,-20,1,-16,1,-5,1,-23,1
713,-17,1,-9,1,8,1,13,1,-13,1,-1,1,21,1,-12,1,-20,1,-16,1,-5,1,-23,1
714,-17,1,-9,1,8,1,13,1,-13,1,-1,1,21,1,-12,1,-20,1,-17,1,-6,1,-24,1
715,-17,1,-9,1,8,1,13,1,-13,1,-1,1,21,1,-13,1,-20,1,-17,1,-5,1,-23,1
716,-17,1,-9,1,8,1,13,1,-13,1,-1,1,21,1,-13,1,-20,1,-17,1,-5,1,-23,1
717,-17,1,-9,1,8,1,13,1,-13,1,-1,1,21,1,-13,1,-20,1,-18,1,-5,1,-24,1
718,-17,1,-9,1,8,1,13,1,-13,1,-1,1,20,1,-14,1,-19,1,-17,1,-5,1,-24,1
719,-17,1,-9,1,8,1,13,1,-13,1,-1,1,19,1,-14,1,-19,1,-17,1,-5,1,-24,1
720,-17,1,-9,1,8,1,13,1,-13,1,-1,1,19,1,-14,1,-19,1,-17,1,-5,1,-24,1
721,-18,1,-9,1,9,1,13,1,-14,1,0,1,19,1,-15,1,-19,1,-18,1,-5,1,-24,1
722,-19,1,-9,1,10,1,14,1,-15,1,0,1,19,1,-15,1,-19,1,-18,1,-5,1,-23,1
723,-19,1,-9,1,10,1,14,1,-15,1,0,1,19,1,-15,1,-19,1,-18,1,-5,1,-23,1
724,-19,1,-9,1,10,1,14,1,-15,1,0,1,19,1,-15,1,-19,1,-18,1,-5,1,-23,1
725,-19,1,-9,1,10,1,14,1,-15,1,0,1,19,1,-15,1,-19,1,-17,1,-5,1,-24,1
726,-19,1,-9,1,10,1,14,1,-15,1,0,1,18,1,-15,1,-19,1,-18,1,-5,1,-23,1
727,-19,1,-9,1,10,1,14,1,-15,1,0,1,19,1,-15,1,-19,1,-18,1,-6,1,-24,1
728,-19,1,-9,1,10,1,14,1,-15,1,0,1,20,1,-15,1,-18,1,-18,1,-5,1,-24,1
729,-19,1,-9,1,10,1,14,1,-15,1,0,1,20,1,-15,1,-19,1,-17,1,-5,1,-24,1
730,-19,1,-9,1,10,1,14,1,-15,1,0,1,20,1,-15,1,-19,1,-17,1,-5,1,-25,1
731,-19,1,-9,1,10,1,14,1,-15,1,0,1,20,1,-14,1,-19,1,-17,1,-5,1,-24,1
732,-19,1,-9,1,10,1,14,1,-15,1,0,1,20,1,-14,1,-19,1,-17,1,-5,1,-24,1
733,-20,1,-9,1,11,1,14,1,-16,1,1,1,20,1,-14,1,-20,1,-17,1,-6,1,-24,1
734,-20,1,-9,1,11,1,14,1,-16,1,1,1,19,1,-14,1,-20,1,-17,1,-6,1,-24,1
735,-20,1,-10,1,10,1,15,1,-15,1,0,1,19,1,-15,1,-21,1,-17,1,-7,1,-25,1
736,-20,1,-10,1,10,1,15,1,-15,1,0,1,20,1,-15,1,-20,1,-17,1,-6,1,-25,1
737,-19,1,-9,1,10,1,14,1,-15,1,0,1,20,1,-14,1,-20,1,-16,1,-6,1,-24,1
738,-19,1,-9,1,10,1,14,1,-15,1,0,1,20,1,-14,1,-20,1,-16,1,-7,1,-23,1
739,-19,1,-9,1,10,1,14,1,-15,1,0,1,20,1,-14,1,-19,1,-16,1,-7,1,-23,1
740,-19,1,-9,1,10,1,14,1,-15,1,0,1,20,1,-14,1,-19,1,-16,1,-7,1,-23,1
741,-19,1,-10,1,9,1,14,1,-14,1,-1,1,20,1,-14,1,-20,1,-16,1,-7,1,-23,1
742,-20,1,-9,1,11,1,14,1,-16,1,1,1,21,1,-15,1,-19,1,-15,1,-7,1,-23,1
743,-20,1,-9,1,11,1,14,1,-16,1,1,1,21,1,-14,1,-19,1,-15,1,-7,1,-23,1
744,-20,1,-7,1,13,1,13,1,-17,1,3,1,21,1,-13,1,-19,1,-14,1,-6,1,-23,1
745,-20,1,-6,1,14,1,13,1,-17,1,4,1,23,1,-11,1,-17,1,-13,1,-5,1,-22,1
746,-19,1,-4,1,15,1,11,1,-17,1,5,1,24,1,-9,1,-15,1,-12,1,-4,1,-21,1
747,-19,1,-2,1,17,1,10,1,-18,1,7,1,25,1,-8,1,-14,1,-11,1,-4,1,-20,1
748,-19,1,-1,1,18,1,10,1,-19,1,8,1,26,1,-7,1,-12,1,-10,1,-3,1,-18,1
749,-19,1,0,1,19,1,9,1,-19,1,9,1,27,1,-6,1,-11,1,-9,1,-2,1,-17,1
750,-19,1,2,1,21,1,8,1,-20,1,11,1,28,1,-5,1,-11,1,-9,1,-2,1,-17,1
751,-18,1,4,1,22,1,7,1,-20,1,13,1,29,1,-5,1,-10,1,-8,1,-1,1,-16,1
752,-18,1,5,1,23,1,6,1,-20,1,14,1,30,1,-4,1,-10,1,-7,1,0,1,-16,1
753,-18,1,6,1,24,1,6,1,-21,1,15,1,31,1,-4,1,-10,1,-7,1,1,1,-15,1
754,-17,1,6,1,23,1,5,1,-20,1,14,1,32,1,-3,1,-9,1,-6,1,2,1,-14,1
755,-17,1,7,1,24,1,5,1,-20,1,15,1,33,1,-2,1,-9,1,-6,1,3,1,-14,1
756,-17,1,7,1,24,1,5,1,-20,1,15,1,33,1,-2,1,-8,1,-6,1,4,1,-14,1
757,-18,1,8,1,26,1,5,1,-22,1,17,1,33,1,-2,1,-8,1,-5,1,4,1,-14,1
758,-18,1,9,1,27,1,4,1,-22,1,18,1,34,1,-1,1,-6,1,-4,1,5,1,-13,1
759,-17,1,10,1,27,1,3,1,-22,1,18,1,34,1,-1,1,-6,1,-4,1,5,1,-12,1
760,-16,1,11,1,27,1,2,1,-21,1,19,1,33,1,-1,1,-6,1,-3,1,5,1,-12,1
761,-16,1,13,1,29,1,1,1,-22,1,21,1,32,1,-2,1,-5,1,-2,1,5,1,-12,1
762,-16,1,15,1,31,1,0,1,-23,1,23,1,31,1,-2,1,-5,1,-2,1,6,1,-12,1
763,-15,1,16,1,31,1,0,1,-23,1,23,1,29,1,-3,1,-5,1,-2,1,7,1,-12,1
764,-15,1,17,1,32,1,-1,1,-23,1,24,1,28,1,-3,1,-5,1,-2,1,7,1,-11,1
765,-15,1,19,1,34,1,-2,1,-24,1,26,1,26,1,-4,1,-5,1,-1,1,7,1,-10,1
766,-15,1,21,1,36,1,-3,1,-25,1,28,1,24,1,-4,1,-5,1,-1,1,8,1,-9,1
767,-13,1,23,1,36,1,-5,1,-24,1,29,1,23,1,-5,1,-5,1,-1,1,8,1,-8,1
768,-11,1,25,1,36,1,-7,1,-23,1,30,1,22,1,-6,1,-5,1,-1,1,8,1,-8,1
769,-10,1,26,1,36,1,-8,1,-23,1,31,1,21,1,-6,1,-5,1,-1,1,9,1,-8,1
770,-9,1,26,1,35,1,-8,1,-22,1,30,1,20,1,-7,1,-5,1,-1,1,9,1,-7,1
771,-8,1,26,1,34,1,-9,1,-21,1,30,1,19,1,-7,1,-5,1,-1,1,9,1,-7,1
772,-8,1,24,1,32,1,-8,1,-20,1,28,1,19,1,-8,1,-6,1,-1,1,9,1,-7,1
773,-9,1,23,1,32,1,-7,1,-20,1,27,1,18,1,-9,1,-6,1,-1,1,8,1,-8,1
774,-10,1,22,1,32,1,-6,1,-21,1,27,1,17,1,-10,1,-8,1,-1,1,7,1,-8,1
775,-10,1,21,1,31,1,-5,1,-20,1,26,1,17,1,-10,1,-8,1,-2,1,6,1,-8,1
776,-10,1,19,1,29,1,-4,1,-19,1,24,1,16,1,-10,1,-9,1,-3,1,6,1,-9,1
777,-11,1,17,1,28,1,-3,1,-19,1,22,1,15,1,-11,1,-9,1,-4,1,4,1,-10,1
778,-11,1,13,1,24,1,-1,1,-17,1,18,1,15,1,-11,1,-10,1,-5,1,4,1,-11,1
779,-12,1,10,1,22,1,1,1,-17,1,16,1,16,1,-12,1,-11,1,-6,1,3,1,-12,1
780,-14,1,7,1,21,1,3,1,-17,1,14,1,16,1,-12,1,-12,1,-8,1,1,1,-13,1
781,-15,1,4,1,19,1,5,1,-17,1,11,1,16,1,-13,1,-12,1,-9,1,0,1,-14,1
782,-16,1,0,1,16,1,8,1,-16,1,8,1,16,1,-13,1,-13,1,-10,1,-1,1,-16,1
783,-16,1,-2,1,14,1,9,1,-15,1,6,1,16,1,-13,1,-15,1,-11,1,-3,1,-17,1
784,-17,1,-6,1,11,1,11,1,-14,1,2,1,16,1,-13,1,-16,1,-13,1,-4,1,-19,1
785,-18,1,-8,1,10,1,13,1,-14,1,1,1,16,1,-14,1,-18,1,-14,1,-5,1,-21,1
786,-19,1,-11,1,8,1,15,1,-14,1,-2,1,16,1,-15,1,-19,1,-15,1,-6,1,-23,1
787,-20,1,-13,1,7,1,16,1,-14,1,-3,1,16,1,-16,1,-20,1,-17,1,-7,1,-23,1
788,-20,1,-15,1,5,1,17,1,-13,1,-5,1,16,1,-17,1,-21,1,-18,1,-9,1,-24,1
789,-21,1,-16,1,5,1,18,1,-13,1,-6,1,16,1,-18,1,-22,1,-19,1,-10,1,-25,1
790,-21,1,-17,1,4,1,19,1,-13,1,-7,1,15,1,-20,1,-23,1,-19,1,-11,1,-25,1
791,-21,1,-17,1,4,1,19,1,-13,1,-7,1,14,1,-20,1,-23,1,-21,1,-12,1,-26,1
792,-21,1,-18,1,3,1,19,1,-12,1,-8,1,14,1,-20,1,-24,1,-21,1,-12,1,-26,1
793,-21,1,-19,1,2,1,20,1,-12,1,-9,1,13,1,-21,1,-23,1,-22,1,-13,1,-27,1
794,-21,1,-19,1,2,1,20,1,-12,1,-9,1,13,1,-21,1,-24,1,-21,1,-13,1,-27,1
795,-21,1,-20,1,1,1,20,1,-11,1,-10,1,13,1,-21,1,-24,1,-22,1,-13,1,-28,1
796,-21,1,-20,1,1,1,20,1,-11,1,-10,1,13,1,-21,1,-25,1,-22,1,-13,1,-28,1
797,-21,1,-20,1,1,1,20,1,-11,1,-10,1,14,1,-21,1,-25,1,-22,1,-13,1,-28,1
798,-21,1,-20,1,1,1,20,1,-11,1,-10,1,14,1,-21,1,-26,1,-22,1,-13,1,-28,1
799,-21,1,-21,1,0,1,21,1,-11,1,-11,1,15,1,-21,1,-26,1,-22,1,-13,1,-28,1
800,-20,1,-21,1,-1,1,20,1,-10,1,-11,1,15,1,-21,1,-26,1,-22,1,-13,1,-29,1
801,-20,1,-21,1,-1,1,20,1,-10,1,-11,1,15,1,-21,1,-27,1,-22,1,-12,1,-29,1
802,-20,1,-21,1,-1,1,20,1,-10,1,-11,1,15,1,-21,1,-27,1,-22,1,-13,1,-29,1
803,-21,1,-22,1,-1,1,21,1,-10,1,-12,1,14,1,-21,1,-26,1,-22,1,-13,1,-29,1
804,-20,1,-22,1,-2,1,21,1,-9,1,-12,1,14,1,-20,1,-26,1,-21,1,-13,1,-28,1
805,-21,1,-22,1,-1,1,21,1,-10,1,-12,1,14,1,-19,1,-26,1,-21,1,-13,1,-29,1
806,-21,1,-22,1,-1,1,21,1,-10,1,-12,1,14,1,-19,1,-26,1,-21,1,-13,1,-29,1
807,-21,1,-22,1,-1,1,21,1,-10,1,-12,1,13,1,-19,1,-25,1,-22,1,-13,1,-28,1
808,-21,1,-22,1,-1,1,21,1,-10,1,-12,1,13,1,-18,1,-24,1,-22,1,-13,1,-28,1
809,-21,1,-22,1,-1,1,21,1,-10,1,-12,1,13,1,-18,1,-24,1,-22,1,-13,1,-27,1
810,-21,1,-22,1,-1,1,21,1,-10,1,-12,1,13,1,-18,1,-23,1,-22,1,-13,1,-27,1
811,-21,1,-22,1,-1,1,21,1,-10,1,-12,1,13,1,-17,1,-23,1,-22,1,-13,1,-27,1
812,-21,1,-23,1,-2,1,22,1,-10,1,-13,1,13,1,-17,1,-23,1,-22,1,-13,1,-27,1
813,-20,1,-23,1,-3,1,21,1,-9,1,-13,1,13,1,-15,1,-23,1,-22,1,-13,1,-27,1
814,-19,1,-24,1,-5,1,21,1,-7,1,-15,1,13,1,-12,1,-22,1,-21,1,-13,1,-27,1
815,-18,1,-25,1,-7,1,21,1,-6,1,-16,1,14,1,-6,1,-21,1,-21,1,-12,1,-26,1
816,-17,1,-25,1,-8,1,21,1,-5,1,-17,1,15,1,1,1,-18,1,-19,1,-12,1,-26,1
817,-16,1,-25,1,-9,1,20,1,-4,1,-17,1,18,1,11,1,-14,1,-17,1,-12,1,-26,1
818,-13,1,-23,1,-10,1,18,1,-2,1,-17,1,21,1,24,1,-8,1,-14,1,-10,1,-25,1
819,-10,1,-20,1,-10,1,15,1,0,1,-15,1,25,1,39,1,0,1,-9,1,-8,1,-23,1
820,-7,1,-14,1,-7,1,10,1,0,1,-11,1,31,1,56,1,10,1,-2,1,-3,1,-20,1
821,-4,1,-7,1,-3,1,5,1,-1,1,-5,1,36,1,76,1,22,1,7,1,2,1,-14,1
822,0,1,0,1,0,1,0,1,0,1,0,1,42,1,100,1,38,1,18,1,10,1,-5,1
823,6,1,11,1,5,1,-8,1,1,1,8,1,44,1,120,1,55,1,33,1,24,1,6,1
824,12,1,27,1,15,1,-19,1,-1,1,21,1,43,1,129,1,71,1,50,1,42,1,23,1
825,15,1,47,1,32,1,-31,1,-8,1,40,1,42,1,125,1,85,1,68,1,62,1,43,1
826,16,1,68,1,52,1,-42,1,-18,1,60,1,42,1,114,1,97,1,87,1,86,1,65,1
827,16,1,86,1,70,1,-51,1,-27,1,78,1,37,1,94,1,105,1,105,1,109,1,89,1
828,16,1,100,1,84,1,-58,1,-34,1,92,1,25,1,59,1,108,1,117,1,129,1,111,1
829,15,1,110,1,95,1,-62,1,-40,1,103,1,7,1,13,1,104,1,126,1,144,1,127,1
830,12,1,119,1,107,1,-65,1,-47,1,113,1,-12,1,-38,1,98,1,131,1,155,1,139,1
831,7,1,125,1,118,1,-66,1,-55,1,122,1,-25,1,-89,1,90,1,133,1,161,1,146,1
832,0,1,127,1,127,1,-63,1,-63,1,127,1,-33,1,-134,1,79,1,130,1,161,1,146,1
833,-8,1,118,1,126,1,-55,1,-67,1,122,1,-37,1,-172,1,59,1,115,1,149,1,136,1
834,-15,1,95,1,110,1,-40,1,-62,1,102,1,-42,1,-198,1,33,1,90,1,127,1,116,1
835,-21,1,64,1,85,1,-21,1,-53,1,74,1,-46,1,-213,1,3,1,58,1,95,1,88,1
836,-27,1,32,1,59,1,-2,1,-43,1,45,1,-45,1,-220,1,-27,1,23,1,60,1,57,1
837,-31,1,8,1,39,1,11,1,-35,1,23,1,-44,1,-221,1,-52,1,-6,1,30,1,28,1
838,-33,1,-9,1,24,1,21,1,-29,1,7,1,-45,1,-218,1,-67,1,-26,1,8,1,5,1
839,-34,1,-22,1,12,1,28,1,-23,1,-5,1,-45,1,-209,1,-74,1,-39,1,-9,1,-11,1
840,-34,1,-35,1,-1,1,34,1,-17,1,-18,1,-45,1,-195,1,-76,1,-46,1,-21,1,-25,1
841,-35,1,-45,1,-10,1,40,1,-13,1,-28,1,-45,1,-177,1,-74,1,-51,1,-31,1,-35,1
842,-34,1,-52,1,-18,1,43,1,-8,1,-35,1,-44,1,-159,1,-73,1,-54,1,-37,1,-42,1
843,-32,1,-55,1,-23,1,43,1,-5,1,-39,1,-42,1,-140,1,-71,1,-56,1,-39,1,-45,1
844,-29,1,-56,1,-27,1,42,1,-1,1,-42,1,-40,1,-122,1,-68,1,-55,1,-39,1,-46,1
845,-26,1,-55,1,-29,1,40,1,1,1,-42,1,-37,1,-107,1,-66,1,-53,1,-37,1,-44,1
846,-24,1,-53,1,-29,1,38,1,2,1,-41,1,-32,1,-93,1,-62,1,-51,1,-35,1,-43,1
847,-21,1,-50,1,-29,1,35,1,4,1,-40,1,-27,1,-78,1,-56,1,-47,1,-32,1,-41,1
848,-18,1,-46,1,-28,1,32,1,5,1,-37,1,-20,1,-64,1,-49,1,-42,1,-28,1,-38,1
849,-16,1,-42,1,-26,1,29,1,5,1,-34,1,-15,1,-51,1,-42,1,-38,1,-25,1,-35,1
850,-15,1,-39,1,-24,1,27,1,4,1,-32,1,-10,1,-40,1,-37,1,-35,1,-23,1,-32,1
851,-14,1,-36,1,-22,1,25,1,4,1,-29,1,-6,1,-32,1,-32,1,-32,1,-21,1,-29,1
852,-13,1,-34,1,-21,1,23,1,4,1,-28,1,-3,1,-25,1,-27,1,-29,1,-18,1,-27,1
853,-12,1,-31,1,-19,1,21,1,3,1,-25,1,0,1,-19,1,-23,1,-26,1,-15,1,-24,1
854,-12,1,-29,1,-17,1,20,1,2,1,-23,1,2,1,-15,1,-20,1,-23,1,-13,1,-23,1
855,-12,1,-27,1,-15,1,19,1,1,1,-21,1,3,1,-11,1,-18,1,-21,1,-11,1,-22,1
856,-12,1,-25,1,-13,1,18,1,0,1,-19,1,5,1,-9,1,-17,1,-19,1,-10,1,-21,1
857,-12,1,-24,1,-12,1,18,1,0,1,-18,1,6,1,-7,1,-16,1,-18,1,-9,1,-20,1
858,-12,1,-23,1,-11,1,17,1,-1,1,-17,1,7,1,-5,1,-15,1,-17,1,-8,1,-19,1
859,-12,1,-22,1,-10,1,17,1,-1,1,-16,1,8,1,-3,1,-15,1,-16,1,-8,1,-19,1
860,-12,1,-21,1,-9,1,16,1,-2,1,-15,1,9,1,-1,1,-14,1,-17,1,-8,1,-19,1
861,-12,1,-21,1,-9,1,16,1,-2,1,-15,1,9,1,0,1,-14,1,-17,1,-8,1,-19,1
862,-12,1,-20,1,-8,1,16,1,-2,1,-14,1,9,1,0,1,-13,1,-17,1,-8,1,-18,1
863,-12,1,-21,1,-9,1,16,1,-2,1,-15,1,10,1,1,1,-12,1,-17,1,-8,1,-17,1
864,-12,1,-21,1,-9,1,16,1,-2,1,-15,1,10,1,2,1,-12,1,-17,1,-8,1,-17,1
865,-12,1,-21,1,-9,1,16,1,-2,1,-15,1,10,1,2,1,-11,1,-17,1,-8,1,-17,1
866,-13,1,-21,1,-8,1,17,1,-3,1,-15,1,11,1,2,1,-11,1,-17,1,-8,1,-17,1
867,-12,1,-20,1,-8,1,16,1,-2,1,-14,1,10,1,3,1,-11,1,-16,1,-8,1,-17,1
868,-12,1,-20,1,-8,1,16,1,-2,1,-14,1,10,1,3,1,-10,1,-16,1,-8,1,-17,1
869,-12,1,-20,1,-8,1,16,1,-2,1,-14,1,10,1,5,1,-10,1,-15,1,-7,1,-16,1
870,-12,1,-19,1,-7,1,15,1,-3,1,-13,1,10,1,5,1,-10,1,-14,1,-7,1,-16,1
871,-12,1,-18,1,-6,1,15,1,-3,1,-12,1,10,1,6,1,-10,1,-14,1,-7,1,-16,1
872,-11,1,-18,1,-7,1,14,1,-2,1,-13,1,10,1,6,1,-9,1,-13,1,-7,1,-16,1
873,-11,1,-17,1,-6,1,14,1,-3,1,-12,1,10,1,6,1,-9,1,-13,1,-7,1,-16,1
874,-11,1,-17,1,-6,1,14,1,-3,1,-12,1,10,1,7,1,-9,1,-13,1,-6,1,-16,1
875,-10,1,-17,1,-7,1,13,1,-2,1,-12,1,10,1,7,1,-8,1,-13,1,-6,1,-15,1
876,-10,1,-17,1,-7,1,13,1,-2,1,-12,1,10,1,7,1,-8,1,-13,1,-6,1,-15,1
877,-10,1,-16,1,-6,1,13,1,-2,1,-11,1,10,1,7,1,-8,1,-13,1,-5,1,-14,1
878,-10,1,-16,1,-6,1,13,1,-2,1,-11,1,11,1,8,1,-7,1,-12,1,-4,1,-13,1
879,-9,1,-15,1,-6,1,12,1,-2,1,-11,1,11,1,9,1,-6,1,-12,1,-4,1,-13,1
880,-9,1,-15,1,-6,1,12,1,-2,1,-11,1,11,1,10,1,-6,1,-12,1,-3,1,-13,1
881,-9,1,-14,1,-5,1,11,1,-2,1,-10,1,11,1,10,1,-6,1,-12,1,-3,1,-12,1
882,-9,1,-13,1,-4,1,11,1,-3,1,-9,1,11,1,11,1,-5,1,-11,1,-2,1,-12,1
883,-8,1,-12,1,-4,1,10,1,-2,1,-8,1,11,1,12,1,-5,1,-11,1,-1,1,-12,1
884,-8,1,-12,1,-4,1,10,1,-2,1,-8,1,11,1,13,1,-4,1,-10,1,-1,1,-12,1
885,-8,1,-12,1,-4,1,10,1,-2,1,-8,1,11,1,14,1,-4,1,-10,1,-1,1,-12,1
886,-8,1,-12,1,-4,1,10,1,-2,1,-8,1,11,1,15,1,-2,1,-9,1,0,1,-11,1
887,-7,1,-12,1,-5,1,9,1,-1,1,-9,1,12,1,15,1,-1,1,-9,1,0,1,-10,1
888,-7,1,-12,1,-5,1,9,1,-1,1,-9,1,11,1,15,1,-1,1,-9,1,0,1,-10,1
889,-7,1,-12,1,-5,1,9,1,-1,1,-9,1,12,1,15,1,0,1,-8,1,0,1,-10,1
890,-7,1,-12,1,-5,1,9,1,-1,1,-9,1,11,1,16,1,0,1,-8,1,0,1,-9,1
891,-7,1,-11,1,-4,1,9,1,-2,1,-8,1,11,1,16,1,1,1,-8,1,0,1,-9,1
892,-7,1,-11,1,-4,1,9,1,-2,1,-8,1,11,1,17,1,2,1,-8,1,1,1,-8,1
893,-6,1,-10,1,-4,1,8,1,-1,1,-7,1,10,1,17,1,2,1,-7,1,1,1,-8,1
894,-5,1,-9,1,-4,1,7,1,-1,1,-7,1,10,1,18,1,2,1,-7,1,1,1,-7,1
895,-5,1,-9,1,-4,1,7,1,-1,1,-7,1,9,1,18,1,3,1,-6,1,1,1,-7,1
896,-5,1,-8,1,-3,1,6,1,-1,1,-6,1,9,1,19,1,4,1,-6,1,2,1,-7,1
897,-4,1,-8,1,-4,1,6,1,0,1,-6,1,9,1,20,1,5,1,-6,1,3,1,-7,1
898,-3,1,-7,1,-4,1,5,1,0,1,-6,1,9,1,21,1,6,1,-6,1,3,1,-7,1
899,-3,1,-7,1,-4,1,5,1,0,1,-6,1,9,1,21,1,7,1,-6,1,3,1,-7,1
900,-3,1,-7,1,-4,1,5,1,0,1,-6,1,8,1,22,1,7,1,-6,1,3,1,-6,1
901,-2,1,-6,1,-4,1,4,1,1,1,-5,1,8,1,22,1,8,1,-5,1,4,1,-5,1
902,-2,1,-6,1,-4,1,4,1,1,1,-5,1,8,1,23,1,9,1,-4,1,5,1,-5,1
903,-2,1,-5,1,-3,1,3,1,0,1,-4,1,7,1,23,1,11,1,-3,1,5,1,-4,1
904,-1,1,-4,1,-3,1,2,1,1,1,-4,1,7,1,24,1,12,1,-2,1,5,1,-4,1
905,-1,1,-4,1,-3,1,2,1,1,1,-4,1,7,1,25,1,13,1,-1,1,6,1,-4,1
906,-1,1,-3,1,-2,1,2,1,0,1,-3,1,6,1,26,1,14,1,0,1,7,1,-2,1
907,-1,1,-3,1,-2,1,2,1,0,1,-3,1,6,1,27,1,14,1,0,1,8,1,-1,1
908,-1,1,-2,1,-1,1,1,1,0,1,-2,1,5,1,28,1,15,1,1,1,9,1,0,1
909,0,1,-1,1,-1,1,0,1,0,1,-1,1,5,1,29,1,16,1,2,1,10,1,0,1
910,0,1,0,1,0,1,0,1,0,1,0,1,5,1,31,1,17,1,3,1,11,1,1,1
911,1,1,0,1,-1,1,0,1,1,1,0,1,5,1,32,1,19,1,4,1,12,1,2,1
912,1,1,1,1,0,1,-1,1,1,1,1,1,5,1,33,1,20,1,5,1,12,1,3,1
913,2,1,2,1,0,1,-2,1,1,1,1,1,5,1,34,1,21,1,6,1,13,1,4,1
914,3,1,2,1,-1,1,-2,1,2,1,1,1,4,1,35,1,22,1,7,1,14,1,5,1
915,3,1,3,1,0,1,-3,1,2,1,2,1,4,1,36,1,23,1,8,1,15,1,5,1
916,4,1,4,1,0,1,-4,1,2,1,2,1,3,1,37,1,23,1,9,1,16,1,6,1
917,5,1,5,1,0,1,-5,1,3,1,3,1,2,1,37,1,25,1,11,1,17,1,7,1
918,6,1,6,1,0,1,-6,1,3,1,3,1,1,1,39,1,25,1,12,1,19,1,9,1
919,6,1,7,1,1,1,-6,1,3,1,4,1,0,1,40,1,26,1,13,1,20,1,10,1
920,8,1,8,1,0,1,-8,1,4,1,4,1,0,1,42,1,28,1,14,1,21,1,11,1
921,9,1,10,1,1,1,-9,1,4,1,6,1,0,1,43,1,29,1,16,1,23,1,13,1
922,10,1,11,1,1,1,-10,1,5,1,6,1,-1,1,44,1,30,1,17,1,24,1,14,1
923,11,1,12,1,1,1,-11,1,5,1,7,1,-2,1,45,1,31,1,18,1,26,1,16,1
924,12,1,13,1,1,1,-12,1,6,1,7,1,-3,1,46,1,32,1,19,1,27,1,18,1
925,13,1,15,1,2,1,-14,1,6,1,9,1,-4,1,47,1,34,1,20,1,28,1,20,1
926,14,1,15,1,1,1,-14,1,7,1,8,1,-5,1,48,1,35,1,22,1,30,1,22,1
927,15,1,16,1,1,1,-15,1,7,1,9,1,-6,1,49,1,36,1,23,1,31,1,24,1
928,16,1,17,1,1,1,-16,1,8,1,9,1,-7,1,50,1,38,1,24,1,33,1,25,1
929,17,1,19,1,2,1,-18,1,8,1,11,1,-8,1,52,1,39,1,25,1,34,1,27,1
930,18,1,20,1,2,1,-19,1,8,1,11,1,-9,1,53,1,40,1,26,1,35,1,28,1
931,20,1,22,1,2,1,-21,1,9,1,12,1,-10,1,54,1,41,1,28,1,36,1,30,1
932,21,1,23,1,2,1,-22,1,10,1,13,1,-11,1,55,1,42,1,29,1,37,1,32,1
933,22,1,25,1,3,1,-23,1,10,1,14,1,-13,1,56,1,42,1,30,1,39,1,34,1
934,23,1,27,1,4,1,-25,1,10,1,16,1,-14,1,57,1,43,1,31,1,41,1,35,1
935,24,1,28,1,4,1,-26,1,10,1,16,1,-14,1,58,1,45,1,33,1,42,1,37,1
936,25,1,29,1,4,1,-27,1,11,1,17,1,-16,1,58,1,46,1,34,1,44,1,39,1
937,25,1,30,1,5,1,-27,1,10,1,18,1,-17,1,59,1,47,1,36,1,46,1,42,1
938,27,1,32,1,5,1,-29,1,11,1,19,1,-17,1,60,1,48,1,37,1,48,1,44,1
939,28,1,33,1,5,1,-30,1,12,1,19,1,-18,1,60,1,48,1,38,1,50,1,46,1
940,29,1,34,1,5,1,-31,1,12,1,20,1,-19,1,61,1,48,1,39,1,51,1,47,1
941,30,1,35,1,5,1,-32,1,13,1,20,1,-20,1,61,1,49,1,40,1,53,1,49,1
942,31,1,37,1,6,1,-34,1,13,1,22,1,-21,1,62,1,50,1,41,1,54,1,50,1
943,32,1,39,1,7,1,-35,1,13,1,23,1,-22,1,62,1,49,1,42,1,55,1,52,1
944,33,1,40,1,7,1,-36,1,13,1,24,1,-23,1,62,1,50,1,43,1,57,1,54,1
945,34,1,42,1,8,1,-38,1,13,1,25,1,-24,1,63,1,51,1,44,1,59,1,55,1
946,35,1,42,1,7,1,-38,1,14,1,25,1,-25,1,63,1,52,1,45,1,60,1,56,1
947,36,1,43,1,7,1,-39,1,15,1,25,1,-26,1,63,1,52,1,46,1,61,1,58,1
948,36,1,44,1,8,1,-40,1,14,1,26,1,-27,1,62,1,52,1,47,1,62,1,59,1
949,37,1,45,1,8,1,-41,1,15,1,27,1,-28,1,62,1,52,1,47,1,63,1,61,1
950,38,1,45,1,7,1,-41,1,16,1,26,1,-28,1,63,1,53,1,48,1,64,1,62,1
951,39,1,46,1,7,1,-42,1,16,1,27,1,-29,1,62,1,53,1,49,1,66,1,64,1
952,39,1,47,1,8,1,-43,1,16,1,28,1,-30,1,62,1,54,1,49,1,67,1,65,1
953,40,1,47,1,7,1,-43,1,17,1,27,1,-30,1,61,1,54,1,49,1,68,1,66,1
954,40,1,47,1,7,1,-43,1,17,1,27,1,-31,1,61,1,54,1,49,1,68,1,67,1
955,40,1,48,1,8,1,-44,1,16,1,28,1,-31,1,61,1,54,1,50,1,68,1,68,1
956,41,1,47,1,6,1,-44,1,18,1,27,1,-32,1,61,1,54,1,50,1,68,1,68,1
957,41,1,48,1,7,1,-44,1,17,1,28,1,-33,1,61,1,54,1,50,1,68,1,68,1
958,41,1,49,1,8,1,-45,1,17,1,29,1,-33,1,60,1,53,1,50,1,68,1,69,1
959,41,1,50,1,9,1,-45,1,16,1,30,1,-33,1,59,1,52,1,50,1,68,1,68,1
960,41,1,50,1,9,1,-45,1,16,1,30,1,-33,1,58,1,52,1,50,1,68,1,68,1
961,39,1,50,1,11,1,-44,1,14,1,31,1,-33,1,57,1,51,1,50,1,68,1,68,1
962,38,1,50,1,12,1,-44,1,13,1,31,1,-32,1,56,1,50,1,50,1,67,1,67,1
963,37,1,50,1,13,1,-43,1,12,1,32,1,-31,1,55,1,49,1,48,1,66,1,66,1
964,35,1,48,1,13,1,-41,1,11,1,31,1,-30,1,53,1,48,1,47,1,64,1,64,1
965,33,1,47,1,14,1,-40,1,10,1,31,1,-28,1,52,1,47,1,46,1,63,1,61,1
966,31,1,45,1,14,1,-38,1,9,1,30,1,-27,1,50,1,46,1,44,1,61,1,59,1
967,28,1,44,1,16,1,-36,1,6,1,30,1,-25,1,49,1,45,1,42,1,58,1,55,1
968,25,1,42,1,17,1,-33,1,4,1,30,1,-23,1,47,1,44,1,40,1,56,1,52,1
969,23,1,40,1,17,1,-31,1,3,1,29,1,-21,1,45,1,42,1,38,1,54,1,48,1
970,20,1,38,1,18,1,-29,1,1,1,28,1,-20,1,42,1,40,1,36,1,51,1,43,1
971,18,1,36,1,18,1,-27,1,0,1,27,1,-18,1,39,1,37,1,32,1,47,1,39,1
972,15,1,34,1,19,1,-24,1,-2,1,27,1,-15,1,37,1,35,1,30,1,44,1,36,1
973,12,1,32,1,20,1,-22,1,-4,1,26,1,-13,1,35,1,32,1,27,1,40,1,32,1
974,10,1,30,1,20,1,-20,1,-5,1,25,1,-11,1,33,1,30,1,25,1,37,1,28,1
975,8,1,28,1,20,1,-18,1,-6,1,24,1,-9,1,31,1,28,1,23,1,34,1,25,1
976,6,1,26,1,20,1,-16,1,-7,1,23,1,-7,1,28,1,26,1,20,1,31,1,21,1
977,3,1,23,1,20,1,-13,1,-8,1,22,1,-5,1,26,1,25,1,18,1,28,1,18,1
978,1,1,21,1,20,1,-11,1,-9,1,21,1,-3,1,24,1,24,1,17,1,25,1,15,1
979,0,1,18,1,18,1,-9,1,-9,1,18,1,-1,1,23,1,23,1,16,1,23,1,11,1
980,-2,1,15,1,17,1,-6,1,-9,1,16,1,0,1,21,1,21,1,14,1,20,1,8,1
981,-3,1,12,1,15,1,-4,1,-9,1,13,1,1,1,19,1,19,1,13,1,18,1,6,1
982,-4,1,10,1,14,1,-3,1,-9,1,12,1,2,1,18,1,18,1,11,1,15,1,3,1
983,-6,1,8,1,14,1,-1,1,-10,1,11,1,2,1,16,1,17,1,10,1,13,1,1,1
984,-7,1,7,1,14,1,0,1,-10,1,10,1,4,1,15,1,15,1,9,1,12,1,0,1
985,-8,1,6,1,14,1,1,1,-11,1,10,1,5,1,13,1,14,1,8,1,10,1,-2,1
986,-9,1,5,1,14,1,2,1,-11,1,9,1,6,1,12,1,14,1,7,1,9,1,-4,1
987,-10,1,4,1,14,1,3,1,-12,1,9,1,7,1,11,1,13,1,6,1,8,1,-6,1
988,-10,1,2,1,12,1,4,1,-11,1,7,1,8,1,10,1,13,1,6,1,7,1,-7,1
989,-11,1,1,1,12,1,5,1,-11,1,6,1,8,1,9,1,12,1,5,1,6,1,-8,1
990,-12,1,0,1,12,1,6,1,-12,1,6,1,9,1,7,1,11,1,4,1,4,1,-10,1
991,-13,1,-1,1,12,1,7,1,-13,1,5,1,9,1,6,1,11,1,4,1,3,1,-12,1
992,-14,1,-2,1,12,1,8,1,-13,1,5,1,10,1,5,1,10,1,3,1,3,1,-13,1
993,-14,1,-3,1,11,1,8,1,-13,1,4,1,10,1,4,1,10,1,2,1,2,1,-15,1
994,-15,1,-4,1,11,1,9,1,-13,1,3,1,11,1,4,1,10,1,1,1,1,1,-14,1
995,-15,1,-4,1,11,1,9,1,-13,1,3,1,12,1,3,1,10,1,1,1,0,1,-15,1
996,-16,1,-5,1,11,1,10,1,-14,1,3,1,12,1,2,1,10,1,0,1,0,1,-17,1
997,-16,1,-5,1,11,1,10,1,-14,1,3,1,12,1,2,1,10,1,0,1,-1,1,-18,1
998,-16,1,-6,1,10,1,11,1,-13,1,2,1,12,1,1,1,9,1,-1,1,-1,1,-19,1
999,-16,1,-6,1,10,1,11,1,-13,1,2,1,11,1,0,1,8,1,-1,1,-2,1,-19,1
1000,-17,1,-6,1,11,1,11,1,-14,1,2,1,11,1,0,1,8,1,-2,1,-3,1,-19,1
1001,-16,1,-6,1,10,1,11,1,-13,1,2,1,12,1,0,1,7,1,-2,1,-3,1,-19,1
1002,-17,1,-7,1,10,1,12,1,-14,1,1,1,12,1,-1,1,6,1,-2,1,-4,1,-19,1
1003,-17,1,-7,1,10,1,12,1,-14,1,1,1,11,1,-2,1,5,1,-2,1,-4,1,-20,1
1004,-17,1,-8,1,9,1,12,1,-13,1,0,1,11,1,-3,1,5,1,-2,1,-4,1,-21,1
1005,-17,1,-8,1,9,1,12,1,-13,1,0,1,11,1,-3,1,5,1,-2,1,-4,1,-21,1
1006,-17,1,-8,1,9,1,12,1,-13,1,0,1,11,1,-3,1,6,1,-2,1,-4,1,-21,1
1007,-17,1,-8,1,9,1,12,1,-13,1,0,1,11,1,-3,1,5,1,-2,1,-5,1,-21,1
1008,-17,1,-8,1,9,1,12,1,-13,1,0,1,12,1,-2,1,5,1,-2,1,-5,1,-21,1
1009,-18,1,-8,1,10,1,13,1,-14,1,1,1,11,1,-2,1,4,1,-2,1,-5,1,-21,1
1010,-18,1,-8,1,10,1,13,1,-14,1,1,1,12,1,-3,1,4,1,-2,1,-5,1,-20,1
1011,-18,1,-8,1,10,1,13,1,-14,1,1,1,12,1,-3,1,4,1,-3,1,-6,1,-20,1
1012,-18,1,-9,1,9,1,13,1,-14,1,0,1,12,1,-3,1,4,1,-2,1,-6,1,-21,1
1013,-18,1,-8,1,10,1,13,1,-14,1,1,1,12,1,-3,1,4,1,-2,1,-6,1,-21,1
1014,-18,1,-8,1,10,1,13,1,-14,1,1,1,11,1,-3,1,4,1,-3,1,-6,1,-22,1
1015,-18,1,-8,1,10,1,13,1,-14,1,1,1,12,1,-2,1,3,1,-3,1,-6,1,-22,1
1016,-18,1,-8,1,10,1,13,1,-14,1,1,1,12,1,-3,1,3,1,-3,1,-6,1,-21,1
1017,-18,1,-8,1,10,1,13,1,-14,1,1,1,12,1,-3,1,3,1,-2,1,-6,1,-21,1
1018,-18,1,-8,1,10,1,13,1,-14,1,1,1,12,1,-3,1,3,1,-2,1,-5,1,-21,1
1019,-18,1,-8,1,10,1,13,1,-14,1,1,1,11,1,-3,1,4,1,-1,1,-5,1,-21,1
1020,-18,1,-8,1,10,1,13,1,-14,1,1,1,11,1,-3,1,4,1,-1,1,-5,1,-21,1
1021,-18,1,-8,1,10,1,13,1,-14,1,1,1,11,1,-3,1,4,1,-1,1,-5,1,-21,1
1022,-18,1,-7,1,11,1,12,1,-15,1,2,1,11,1,-3,1,4,1,-1,1,-5,1,-21,1
1023,-18,1,-7,1,11,1,12,1,-15,1,2,1,11,1,-3,1,4,1,0,1,-5,1,-21,1
1024,-18,1,-7,1,11,1,12,1,-15,1,2,1,11,1,-4,1,4,1,0,1,-6,1,-22,1
1025,-18,1,-7,1,11,1,12,1,-15,1,2,1,11,1,-4,1,4,1,0,1,-6,1,-22,1
1026,-18,1,-7,1,11,1,12,1,-15,1,2,1,11,1,-4,1,4,1,-1,1,-6,1,-23,1
1027,-18,1,-7,1,11,1,12,1,-15,1,2,1,11,1,-3,1,4,1,-2,1,-6,1,-22,1
1028,-18,1,-7,1,11,1,12,1,-15,1,2,1,11,1,-3,1,4,1,-2,1,-5,1,-22,1
1029,-18,1,-7,1,11,1,12,1,-15,1,2,1,11,1,-2,1,4,1,-2,1,-5,1,-22,1
1030,-18,1,-7,1,11,1,12,1,-15,1,2,1,11,1,-2,1,4,1,-3,1,-5,1,-22,1
1031,-17,1,-7,1,10,1,12,1,-14,1,1,1,11,1,-2,1,4,1,-3,1,-5,1,-23,1
1032,-17,1,-6,1,11,1,11,1,-14,1,2,1,11,1,-1,1,4,1,-2,1,-5,1,-23,1
1033,-17,1,-6,1,11,1,11,1,-14,1,2,1,11,1,-1,1,4,1,-2,1,-5,1,-22,1
1034,-17,1,-6,1,11,1,11,1,-14,1,2,1,10,1,-1,1,3,1,-2,1,-5,1,-22,1
1035,-17,1,-6,1,11,1,11,1,-14,1,2,1,10,1,-1,1,3,1,-2,1,-5,1,-23,1
1036,-17,1,-6,1,11,1,11,1,-14,1,2,1,11,1,-1,1,3,1,-2,1,-6,1,-23,1
1037,-17,1,-6,1,11,1,11,1,-14,1,2,1,10,1,-1,1,3,1,-2,1,-6,1,-23,1
1038,-18,1,-6,1,12,1,12,1,-15,1,3,1,10,1,0,1,3,1,-1,1,-5,1,-22,1
1039,-18,1,-6,1,12,1,12,1,-15,1,3,1,11,1,0,1,4,1,-1,1,-5,1,-22,1
1040,-18,1,-6,1,12,1,12,1,-15,1,3,1,11,1,0,1,4,1,-1,1,-6,1,-22,1
1041,-18,1,-6,1,12,1,12,1,-15,1,3,1,11,1,0,1,4,1,0,1,-6,1,-21,1
1042,-17,1,-6,1,11,1,11,1,-14,1,2,1,11,1,0,1,4,1,0,1,-6,1,-22,1
1043,-17,1,-6,1,11,1,11,1,-14,1,2,1,11,1,0,1,4,1,0,1,-6,1,-22,1
1044,-17,1,-6,1,11,1,11,1,-14,1,2,1,12,1,0,1,4,1,0,1,-6,1,-21,1
1045,-17,1,-7,1,10,1,12,1,-14,1,1,1,12,1,-1,1,4,1,-1,1,-6,1,-22,1
1046,-17,1,-7,1,10,1,12,1,-14,1,1,1,11,1,-1,1,4,1,-1,1,-6,1,-22,1
1047,-17,1,-7,1,10,1,12,1,-14,1,1,1,11,1,-1,1,4,1,0,1,-6,1,-22,1
1048,-17,1,-6,1,11,1,11,1,-14,1,2,1,11,1,-1,1,3,1,0,1,-6,1,-23,1
1049,-17,1,-6,1,11,1,11,1,-14,1,2,1,11,1,0,1,3,1,1,1,-5,1,-23,1
1050,-17,1,-6,1,11,1,11,1,-14,1,2,1,11,1,0,1,2,1,1,1,-5,1,-22,1
1051,-17,1,-7,1,10,1,12,1,-14,1,1,1,11,1,0,1,2,1,1,1,-5,1,-22,1
1052,-17,1,-6,1,11,1,11,1,-14,1,2,1,11,1,0,1,1,1,0,1,-5,1,-22,1
1053,-16,1,-6,1,10,1,11,1,-13,1,2,1,11,1,0,1,1,1,0,1,-5,1,-23,1
1054,-16,1,-7,1,9,1,11,1,-13,1,1,1,11,1,-1,1,1,1,0,1,-5,1,-23,1
1055,-17,1,-7,1,10,1,12,1,-14,1,1,1,11,1,-1,1,1,1,0,1,-5,1,-23,1
1056,-17,1,-6,1,11,1,11,1,-14,1,2,1,11,1,-1,1,1,1,0,1,-5,1,-22,1
1057,-17,1,-6,1,11,1,11,1,-14,1,2,1,11,1,-1,1,1,1,0,1,-5,1,-22,1
1058,-17,1,-6,1,11,1,11,1,-14,1,2,1,11,1,-2,1,1,1,-1,1,-6,1,-22,1
1059,-17,1,-6,1,11,1,11,1,-14,1,2,1,10,1,-2,1,0,1,-2,1,-6,1,-22,1
1060,-17,1,-6,1,11,1,11,1,-14,1,2,1,10,1,-3,1,0,1,-3,1,-6,1,-23,1
1061,-17,1,-7,1,10,1,12,1,-14,1,1,1,10,1,-3,1,0,1,-2,1,-5,1,-22,1
1062,-17,1,-7,1,10,1,12,1,-14,1,1,1,10,1,-3,1,0,1,-2,1,-5,1,-23,1
1063,-17,1,-8,1,9,1,12,1,-13,1,0,1,10,1,-3,1,-1,1,-2,1,-6,1,-23,1
1064,-17,1,-8,1,9,1,12,1,-13,1,0,1,10,1,-4,1,-1,1,-1,1,-6,1,-24,1
1065,-17,1,-8,1,9,1,12,1,-13,1,0,1,10,1,-3,1,0,1,-1,1,-6,1,-25,1
1066,-17,1,-8,1,9,1,12,1,-13,1,0,1,11,1,-3,1,0,1,-1,1,-7,1,-25,1
1067,-17,1,-7,1,10,1,12,1,-14,1,1,1,11,1,-3,1,0,1,-1,1,-7,1,-25,1
1068,-16,1,-7,1,9,1,11,1,-13,1,1,1,10,1,-3,1,0,1,-1,1,-7,1,-25,1
1069,-16,1,-6,1,10,1,11,1,-13,1,2,1,10,1,-3,1,-1,1,-1,1,-8,1,-25,1
1070,-16,1,-6,1,10,1,11,1,-13,1,2,1,10,1,-3,1,-1,1,-1,1,-8,1,-25,1
1071,-16,1,-6,1,10,1,11,1,-13,1,2,1,10,1,-3,1,-2,1,-1,1,-8,1,-26,1
1072,-17,1,-7,1,10,1,12,1,-14,1,1,1,10,1,-4,1,-2,1,-2,1,-8,1,-26,1
1073,-17,1,-7,1,10,1,12,1,-14,1,1,1,10,1,-4,1,-2,1,-3,1,-8,1,-25,1
1074,-18,1,-7,1,11,1,12,1,-15,1,2,1,10,1,-4,1,-3,1,-3,1,-8,1,-25,1
1075,-18,1,-8,1,10,1,13,1,-14,1,1,1,10,1,-4,1,-3,1,-3,1,-9,1,-26,1
1076,-18,1,-8,1,10,1,13,1,-14,1,1,1,10,1,-5,1,-3,1,-3,1,-9,1,-26,1
1077,-18,1,-8,1,10,1,13,1,-14,1,1,1,10,1,-5,1,-3,1,-3,1,-9,1,-26,1
1078,-19,1,-7,1,12,1,13,1,-16,1,2,1,10,1,-5,1,-3,1,-3,1,-9,1,-27,1
1079,-18,1,-7,1,11,1,12,1,-15,1,2,1,10,1,-6,1,-4,1,-3,1,-9,1,-27,1
1080,-18,1,-7,1,11,1,12,1,-15,1,2,1,10,1,-6,1,-4,1,-3,1,-9,1,-26,1
1081,-18,1,-8,1,10,1,13,1,-14,1,1,1,10,1,-7,1,-4,1,-3,1,-9,1,-26,1
1082,-18,1,-8,1,10,1,13,1,-14,1,1,1,10,1,-8,1,-5,1,-3,1,-9,1,-26,1
1083,-19,1,-9,1,10,1,14,1,-15,1,0,1,10,1,-8,1,-5,1,-4,1,-9,1,-26,1
1084,-19,1,-9,1,10,1,14,1,-15,1,0,1,10,1,-8,1,-5,1,-4,1,-9,1,-26,1
1085,-18,1,-9,1,9,1,13,1,-14,1,0,1,10,1,-8,1,-5,1,-4,1,-9,1,-27,1
1086,-18,1,-9,1,9,1,13,1,-14,1,0,1,10,1,-8,1,-6,1,-4,1,-9,1,-26,1
1087,-18,1,-10,1,8,1,14,1,-13,1,-1,1,10,1,-8,1,-6,1,-4,1,-9,1,-27,1
1088,-18,1,-9,1,9,1,13,1,-14,1,0,1,9,1,-8,1,-6,1,-5,1,-9,1,-27,1
1089,-18,1,-9,1,9,1,13,1,-14,1,0,1,10,1,-8,1,-7,1,-5,1,-9,1,-28,1
1090,-18,1,-9,1,9,1,13,1,-14,1,0,1,10,1,-9,1,-7,1,-6,1,-9,1,-28,1
1091,-18,1,-8,1,10,1,13,1,-14,1,1,1,10,1,-9,1,-7,1,-6,1,-10,1,-29,1
1092,-19,1,-8,1,11,1,13,1,-15,1,1,1,10,1,-9,1,-7,1,-6,1,-10,1,-29,1
1093,-19,1,-8,1,11,1,13,1,-15,1,1,1,10,1,-10,1,-8,1,-7,1,-11,1,-29,1
1094,-19,1,-8,1,11,1,13,1,-15,1,1,1,10,1,-10,1,-8,1,-7,1,-11,1,-29,1
1095,-19,1,-8,1,11,1,13,1,-15,1,1,1,10,1,-10,1,-8,1,-7,1,-11,1,-30,1
1096,-19,1,-8,1,11,1,13,1,-15,1,1,1,11,1,-10,1,-9,1,-7,1,-12,1,-30,1
1097,-19,1,-8,1,11,1,13,1,-15,1,1,1,11,1,-10,1,-8,1,-8,1,-12,1,-31,1
1098,-19,1,-8,1,11,1,13,1,-15,1,1,1,11,1,-10,1,-8,1,-8,1,-12,1,-31,1
1099,-19,1,-7,1,12,1,13,1,-16,1,2,1,11,1,-11,1,-8,1,-8,1,-12,1,-31,1
1100,-19,1,-8,1,11,1,13,1,-15,1,1,1,11,1,-11,1,-8,1,-8,1,-12,1,-31,1
1101,-20,1,-8,1,12,1,14,1,-16,1,2,1,12,1,-11,1,-9,1,-8,1,-12,1,-31,1
1102,-20,1,-8,1,12,1,14,1,-16,1,2,1,11,1,-11,1,-9,1,-8,1,-12,1,-31,1
1103,-20,1,-8,1,12,1,14,1,-16,1,2,1,11,1,-12,1,-9,1,-8,1,-12,1,-32,1
1104,-20,1,-8,1,12,1,14,1,-16,1,2,1,11,1,-12,1,-10,1,-8,1,-12,1,-32,1
1105,-21,1,-9,1,12,1,15,1,-17,1,1,1,12,1,-12,1,-10,1,-8,1,-12,1,-32,1
1106,-21,1,-9,1,12,1,15,1,-17,1,1,1,11,1,-12,1,-10,1,-8,1,-11,1,-31,1
1107,-21,1,-9,1,12,1,15,1,-17,1,1,1,12,1,-12,1,-10,1,-8,1,-11,1,-31,1
1108,-21,1,-9,1,12,1,15,1,-17,1,1,1,11,1,-12,1,-11,1,-8,1,-11,1,-31,1
1109,-21,1,-9,1,12,1,15,1,-17,1,1,1,11,1,-12,1,-11,1,-8,1,-11,1,-31,1
1110,-21,1,-9,1,12,1,15,1,-17,1,1,1,11,1,-12,1,-11,1,-8,1,-11,1,-30,1
1111,-21,1,-10,1,11,1,15,1,-16,1,0,1,10,1,-12,1,-11,1,-8,1,-11,1,-30,1
1112,-21,1,-10,1,11,1,15,1,-16,1,0,1,10,1,-12,1,-11,1,-8,1,-12,1,-31,1
1113,-21,1,-10,1,11,1,15,1,-16,1,0,1,9,1,-12,1,-12,1,-9,1,-12,1,-30,1
1114,-21,1,-10,1,11,1,15,1,-16,1,0,1,9,1,-12,1,-12,1,-8,1,-12,1,-30,1
1115,-21,1,-10,1,11,1,15,1,-16,1,0,1,10,1,-12,1,-11,1,-8,1,-11,1,-31,1
1116,-21,1,-10,1,11,1,15,1,-16,1,0,1,10,1,-13,1,-11,1,-8,1,-11,1,-31,1
1117,-21,1,-9,1,12,1,15,1,-17,1,1,1,10,1,-13,1,-11,1,-9,1,-11,1,-32,1
1118,-20,1,-9,1,11,1,14,1,-16,1,1,1,10,1,-13,1,-11,1,-9,1,-12,1,-32,1
1119,-20,1,-9,1,11,1,14,1,-16,1,1,1,10,1,-13,1,-11,1,-9,1,-12,1,-32,1
1120,-20,1,-9,1,11,1,14,1,-16,1,1,1,10,1,-14,1,-11,1,-10,1,-12,1,-31,1
1121,-20,1,-9,1,11,1,14,1,-16,1,1,1,10,1,-15,1,-11,1,-10,1,-13,1,-32,1
1122,-20,1,-9,1,11,1,14,1,-16,1,1,1,10,1,-14,1,-11,1,-10,1,-13,1,-33,1
1123,-20,1,-9,1,11,1,14,1,-16,1,1,1,10,1,-14,1,-12,1,-10,1,-13,1,-33,1
1124,-20,1,-9,1,11,1,14,1,-16,1,1,1,10,1,-13,1,-11,1,-9,1,-13,1,-33,1
1125,-20,1,-8,1,12,1,14,1,-16,1,2,1,11,1,-13,1,-11,1,-9,1,-13,1,-33,1
1126,-21,1,-7,1,14,1,14,1,-18,1,3,1,11,1,-12,1,-10,1,-8,1,-12,1,-31,1
1127,-20,1,-5,1,15,1,12,1,-18,1,5,1,12,1,-12,1,-9,1,-7,1,-11,1,-30,1
1128,-20,1,-3,1,17,1,11,1,-19,1,7,1,14,1,-11,1,-8,1,-6,1,-10,1,-29,1
1129,-20,1,-1,1,19,1,10,1,-20,1,9,1,15,1,-10,1,-8,1,-4,1,-9,1,-28,1
1130,-20,1,0,1,20,1,10,1,-20,1,10,1,16,1,-9,1,-6,1,-3,1,-8,1,-27,1
1131,-20,1,2,1,22,1,9,1,-21,1,12,1,17,1,-7,1,-5,1,-1,1,-6,1,-27,1
1132,-20,1,3,1,23,1,8,1,-21,1,13,1,18,1,-6,1,-3,1,0,1,-5,1,-26,1
1133,-20,1,5,1,25,1,7,1,-22,1,15,1,19,1,-5,1,-2,1,0,1,-4,1,-25,1
1134,-21,1,6,1,27,1,7,1,-24,1,16,1,20,1,-4,1,-1,1,1,1,-4,1,-25,1
1135,-21,1,7,1,28,1,7,1,-24,1,17,1,22,1,-3,1,0,1,2,1,-3,1,-25,1
1136,-21,1,8,1,29,1,6,1,-25,1,18,1,23,1,-3,1,0,1,2,1,-3,1,-25,1
1137,-21,1,9,1,30,1,6,1,-25,1,19,1,23,1,-3,1,0,1,2,1,-3,1,-25,1
1138,-21,1,10,1,31,1,5,1,-26,1,20,1,24,1,-3,1,0,1,3,1,-2,1,-24,1
1139,-21,1,11,1,32,1,5,1,-26,1,21,1,24,1,-3,1,1,1,3,1,-2,1,-24,1
1140,-21,1,11,1,32,1,5,1,-26,1,21,1,24,1,-3,1,1,1,3,1,-2,1,-24,1
1141,-20,1,12,1,32,1,4,1,-26,1,22,1,25,1,-1,1,1,1,4,1,-1,1,-22,1
1142,-19,1,14,1,33,1,2,1,-26,1,23,1,25,1,-1,1,1,1,5,1,0,1,-22,1
1143,-19,1,14,1,33,1,2,1,-26,1,23,1,25,1,-1,1,2,1,6,1,0,1,-21,1
1144,-18,1,15,1,33,1,1,1,-25,1,24,1,25,1,-1,1,2,1,6,1,1,1,-21,1
1145,-18,1,17,1,35,1,0,1,-26,1,26,1,23,1,-2,1,3,1,7,1,1,1,-20,1
1146,-18,1,18,1,36,1,0,1,-27,1,27,1,22,1,-3,1,3,1,7,1,1,1,-20,1
1147,-18,1,20,1,38,1,-1,1,-28,1,29,1,20,1,-3,1,3,1,8,1,2,1,-19,1
1148,-17,1,21,1,38,1,-2,1,-27,1,29,1,18,1,-3,1,3,1,8,1,2,1,-17,1
1149,-16,1,23,1,39,1,-3,1,-27,1,31,1,17,1,-3,1,3,1,9,1,3,1,-16,1
1150,-15,1,25,1,40,1,-5,1,-27,1,32,1,15,1,-4,1,3,1,9,1,4,1,-15,1
1151,-13,1,25,1,38,1,-6,1,-25,1,31,1,15,1,-5,1,2,1,9,1,4,1,-15,1
1152,-12,1,26,1,38,1,-7,1,-25,1,32,1,14,1,-5,1,1,1,8,1,4,1,-15,1
1153,-11,1,26,1,37,1,-7,1,-24,1,31,1,13,1,-6,1,1,1,8,1,4,1,-15,1
1154,-10,1,27,1,37,1,-8,1,-23,1,32,1,12,1,-6,1,1,1,8,1,4,1,-16,1
1155,-9,1,27,1,36,1,-9,1,-22,1,31,1,11,1,-7,1,0,1,7,1,3,1,-15,1
1156,-10,1,26,1,36,1,-8,1,-23,1,31,1,11,1,-8,1,0,1,7,1,3,1,-16,1
1157,-10,1,25,1,35,1,-7,1,-22,1,30,1,10,1,-8,1,-1,1,7,1,3,1,-17,1
1158,-10,1,24,1,34,1,-7,1,-22,1,29,1,10,1,-9,1,-1,1,6,1,3,1,-18,1
1159,-11,1,22,1,33,1,-5,1,-22,1,27,1,9,1,-9,1,-2,1,5,1,2,1,-18,1
1160,-12,1,20,1,32,1,-4,1,-22,1,26,1,9,1,-10,1,-3,1,4,1,1,1,-19,1
1161,-14,1,17,1,31,1,-1,1,-22,1,24,1,9,1,-10,1,-4,1,3,1,0,1,-21,1
1162,-15,1,14,1,29,1,0,1,-22,1,21,1,9,1,-10,1,-5,1,2,1,0,1,-21,1
1163,-16,1,10,1,26,1,3,1,-21,1,18,1,9,1,-11,1,-6,1,1,1,-1,1,-22,1
1164,-17,1,6,1,23,1,5,1,-20,1,14,1,9,1,-11,1,-7,1,0,1,-2,1,-23,1
1165,-17,1,3,1,20,1,7,1,-18,1,11,1,9,1,-11,1,-8,1,-1,1,-5,1,-25,1
1166,-18,1,0,1,18,1,9,1,-18,1,9,1,9,1,-11,1,-10,1,-2,1,-6,1,-26,1
1167,-19,1,-1,1,18,1,10,1,-19,1,8,1,9,1,-12,1,-11,1,-3,1,-8,1,-27,1
1168,-20,1,-4,1,16,1,12,1,-18,1,6,1,9,1,-12,1,-12,1,-5,1,-9,1,-29,1
1169,-20,1,-6,1,14,1,13,1,-17,1,4,1,8,1,-13,1,-13,1,-6,1,-10,1,-30,1
1170,-21,1,-9,1,12,1,15,1,-17,1,1,1,8,1,-14,1,-15,1,-8,1,-12,1,-30,1
1171,-22,1,-12,1,10,1,17,1,-16,1,-1,1,9,1,-16,1,-16,1,-9,1,-13,1,-32,1
1172,-22,1,-14,1,8,1,18,1,-15,1,-3,1,9,1,-17,1,-17,1,-10,1,-14,1,-32,1
1173,-23,1,-16,1,7,1,19,1,-15,1,-5,1,8,1,-17,1,-18,1,-11,1,-15,1,-33,1
1174,-23,1,-17,1,6,1,20,1,-15,1,-6,1,8,1,-18,1,-19,1,-12,1,-15,1,-34,1
1175,-23,1,-17,1,6,1,20,1,-15,1,-6,1,8,1,-19,1,-20,1,-13,1,-15,1,-34,1
1176,-24,1,-18,1,6,1,21,1,-15,1,-6,1,8,1,-20,1,-20,1,-13,1,-16,1,-34,1
1177,-24,1,-18,1,6,1,21,1,-15,1,-6,1,8,1,-20,1,-21,1,-14,1,-16,1,-34,1
1178,-24,1,-18,1,6,1,21,1,-15,1,-6,1,8,1,-21,1,-21,1,-14,1,-16,1,-34,1
1179,-24,1,-19,1,5,1,21,1,-15,1,-7,1,8,1,-21,1,-21,1,-14,1,-16,1,-34,1
1180,-24,1,-20,1,4,1,22,1,-14,1,-8,1,8,1,-20,1,-21,1,-15,1,-16,1,-34,1
1181,-24,1,-21,1,3,1,22,1,-14,1,-9,1,8,1,-20,1,-21,1,-14,1,-16,1,-34,1
1182,-24,1,-21,1,3,1,22,1,-14,1,-9,1,8,1,-20,1,-21,1,-15,1,-16,1,-35,1
1183,-24,1,-22,1,2,1,23,1,-13,1,-10,1,7,1,-20,1,-21,1,-14,1,-16,1,-35,1
1184,-24,1,-22,1,2,1,23,1,-13,1,-10,1,7,1,-20,1,-21,1,-15,1,-16,1,-34,1
1185,-23,1,-23,1,0,1,23,1,-12,1,-12,1,7,1,-20,1,-21,1,-15,1,-16,1,-34,1
1186,-22,1,-22,1,0,1,22,1,-11,1,-11,1,7,1,-20,1,-21,1,-15,1,-16,1,-34,1
1187,-22,1,-22,1,0,1,22,1,-11,1,-11,1,7,1,-20,1,-21,1,-15,1,-16,1,-34,1
1188,-22,1,-22,1,0,1,22,1,-11,1,-11,1,7,1,-20,1,-21,1,-15,1,-16,1,-34,1
1189,-22,1,-21,1,1,1,21,1,-12,1,-10,1,7,1,-20,1,-21,1,-15,1,-16,1,-34,1
1190,-22,1,-21,1,1,1,21,1,-12,1,-10,1,7,1,-20,1,-21,1,-15,1,-16,1,-34,1
1191,-23,1,-22,1,1,1,22,1,-12,1,-11,1,7,1,-20,1,-21,1,-15,1,-16,1,-34,1
1192,-24,1,-22,1,2,1,23,1,-13,1,-10,1,7,1,-20,1,-21,1,-14,1,-15,1,-33,1
1193,-23,1,-22,1,1,1,22,1,-12,1,-11,1,7,1,-20,1,-20,1,-14,1,-14,1,-33,1
1194,-23,1,-22,1,1,1,22,1,-12,1,-11,1,7,1,-20,1,-20,1,-14,1,-14,1,-33,1
1195,-23,1,-22,1,1,1,22,1,-12,1,-11,1,7,1,-19,1,-20,1,-13,1,-14,1,-33,1
1196,-23,1,-22,1,1,1,22,1,-12,1,-11,1,7,1,-18,1,-20,1,-13,1,-14,1,-34,1
1197,-21,1,-23,1,-2,1,22,1,-10,1,-13,1,8,1,-16,1,-18,1,-12,1,-14,1,-34,1
1198,-19,1,-24,1,-5,1,21,1,-7,1,-15,1,8,1,-10,1,-17,1,-12,1,-15,1,-34,1
1199,-17,1,-25,1,-8,1,21,1,-5,1,-17,1,9,1,-3,1,-15,1,-10,1,-15,1,-33,1
1200,-16,1,-25,1,-9,1,20,1,-4,1,-17,1,11,1,6,1,-12,1,-9,1,-15,1,-33,1
1201,-14,1,-24,1,-10,1,19,1,-2,1,-17,1,14,1,18,1,-8,1,-6,1,-14,1,-32,1
1202,-12,1,-21,1,-9,1,16,1,-2,1,-15,1,18,1,33,1,-2,1,-3,1,-12,1,-31,1
1203,-9,1,-15,1,-6,1,12,1,-2,1,-11,1,22,1,48,1,7,1,3,1,-9,1,-29,1
1204,-6,1,-9,1,-3,1,7,1,-2,1,-6,1,29,1,66,1,18,1,10,1,-3,1,-25,1
1205,-2,1,-2,1,0,1,2,1,-1,1,-1,1,35,1,88,1,33,1,19,1,4,1,-19,1
1206,2,1,5,1,3,1,-3,1,0,1,4,1,39,1,111,1,50,1,32,1,15,1,-9,1
1207,8,1,19,1,11,1,-13,1,-1,1,15,1,40,1,125,1,67,1,49,1,31,1,7,1
1208,12,1,37,1,25,1,-24,1,-6,1,31,1,39,1,129,1,81,1,68,1,51,1,26,1
1209,14,1,58,1,44,1,-36,1,-15,1,51,1,37,1,121,1,95,1,88,1,75,1,50,1
1210,15,1,78,1,63,1,-46,1,-24,1,71,1,33,1,107,1,105,1,107,1,99,1,74,1
1211,16,1,94,1,78,1,-55,1,-31,1,86,1,23,1,79,1,110,1,123,1,121,1,97,1
1212,15,1,105,1,90,1,-60,1,-37,1,98,1,8,1,38,1,109,1,133,1,138,1,115,1
1213,12,1,114,1,102,1,-63,1,-45,1,108,1,-9,1,-10,1,105,1,140,1,151,1,129,1
1214,8,1,120,1,112,1,-64,1,-52,1,116,1,-25,1,-62,1,98,1,142,1,159,1,137,1
1215,2,1,125,1,123,1,-63,1,-60,1,124,1,-34,1,-110,1,90,1,142,1,163,1,140,1
1216,-6,1,121,1,127,1,-57,1,-66,1,124,1,-37,1,-152,1,75,1,134,1,157,1,135,1
1217,-16,1,105,1,121,1,-44,1,-68,1,113,1,-40,1,-184,1,51,1,112,1,138,1,118,1
1218,-22,1,78,1,100,1,-28,1,-61,1,89,1,-44,1,-206,1,21,1,82,1,110,1,94,1
1219,-28,1,47,1,75,1,-9,1,-51,1,61,1,-44,1,-217,1,-11,1,48,1,76,1,64,1
1220,-34,1,19,1,53,1,7,1,-43,1,36,1,-44,1,-220,1,-41,1,15,1,43,1,34,1
1221,-36,1,-1,1,35,1,18,1,-36,1,17,1,-46,1,-218,1,-62,1,-10,1,17,1,9,1
1222,-37,1,-16,1,21,1,26,1,-29,1,2,1,-47,1,-212,1,-73,1,-26,1,-2,1,-10,1
1223,-37,1,-29,1,8,1,33,1,-23,1,-11,1,-46,1,-201,1,-75,1,-35,1,-16,1,-25,1
1224,-36,1,-41,1,-5,1,38,1,-16,1,-23,1,-45,1,-186,1,-73,1,-41,1,-26,1,-36,1
1225,-35,1,-50,1,-15,1,42,1,-10,1,-33,1,-43,1,-170,1,-71,1,-44,1,-33,1,-45,1
1226,-33,1,-55,1,-22,1,44,1,-6,1,-39,1,-42,1,-152,1,-69,1,-46,1,-36,1,-50,1
1227,-30,1,-56,1,-26,1,43,1,-2,1,-41,1,-40,1,-131,1,-67,1,-46,1,-37,1,-52,1
1228,-27,1,-56,1,-29,1,41,1,1,1,-43,1,-37,1,-113,1,-64,1,-45,1,-36,1,-52,1
1229,-26,1,-54,1,-28,1,40,1,1,1,-41,1,-35,1,-98,1,-63,1,-44,1,-35,1,-50,1
1230,-24,1,-51,1,-27,1,37,1,1,1,-39,1,-32,1,-83,1,-60,1,-42,1,-33,1,-48,1
1231,-21,1,-48,1,-27,1,34,1,3,1,-38,1,-28,1,-69,1,-55,1,-39,1,-30,1,-44,1
1232,-19,1,-45,1,-26,1,32,1,3,1,-36,1,-23,1,-56,1,-48,1,-34,1,-27,1,-40,1
1233,-17,1,-41,1,-24,1,29,1,3,1,-33,1,-17,1,-46,1,-42,1,-31,1,-24,1,-37,1
1234,-15,1,-37,1,-22,1,26,1,3,1,-30,1,-12,1,-38,1,-37,1,-28,1,-22,1,-34,1
1235,-14,1,-35,1,-21,1,24,1,3,1,-28,1,-8,1,-32,1,-33,1,-25,1,-20,1,-32,1
1236,-13,1,-32,1,-19,1,22,1,3,1,-26,1,-4,1,-26,1,-29,1,-22,1,-17,1,-30,1
1237,-13,1,-29,1,-16,1,21,1,1,1,-23,1,0,1,-20,1,-25,1,-19,1,-15,1,-28,1
1238,-12,1,-26,1,-14,1,19,1,1,1,-20,1,1,1,-14,1,-24,1,-16,1,-13,1,-26,1
1239,-12,1,-24,1,-12,1,18,1,0,1,-18,1,2,1,-10,1,-22,1,-14,1,-11,1,-24,1
1240,-12,1,-24,1,-12,1,18,1,0,1,-18,1,4,1,-6,1,-21,1,-12,1,-10,1,-23,1
1241,-12,1,-23,1,-11,1,17,1,-1,1,-17,1,5,1,-4,1,-20,1,-11,1,-9,1,-23,1
1242,-13,1,-22,1,-9,1,17,1,-2,1,-16,1,5,1,-3,1,-19,1,-11,1,-8,1,-22,1
1243,-13,1,-21,1,-8,1,17,1,-3,1,-15,1,5,1,-3,1,-18,1,-11,1,-8,1,-22,1
1244,-14,1,-21,1,-7,1,17,1,-4,1,-14,1,5,1,-2,1,-18,1,-11,1,-7,1,-22,1
1245,-14,1,-21,1,-7,1,17,1,-4,1,-14,1,6,1,-2,1,-18,1,-11,1,-7,1,-22,1
1246,-14,1,-20,1,-6,1,17,1,-4,1,-13,1,7,1,-1,1,-17,1,-10,1,-8,1,-22,1
1247,-14,1,-20,1,-6,1,17,1,-4,1,-13,1,7,1,0,1,-17,1,-10,1,-7,1,-21,1
1248,-13,1,-19,1,-6,1,16,1,-4,1,-13,1,7,1,0,1,-17,1,-10,1,-7,1,-21,1
1249,-13,1,-19,1,-6,1,16,1,-4,1,-13,1,8,1,1,1,-17,1,-9,1,-6,1,-21,1
1250,-13,1,-19,1,-6,1,16,1,-4,1,-13,1,8,1,2,1,-17,1,-9,1,-6,1,-21,1
1251,-13,1,-19,1,-6,1,16,1,-4,1,-13,1,8,1,2,1,-16,1,-8,1,-5,1,-20,1
1252,-13,1,-19,1,-6,1,16,1,-4,1,-13,1,8,1,3,1,-15,1,-7,1,-4,1,-20,1
1253,-12,1,-19,1,-7,1,15,1,-3,1,-13,1,7,1,3,1,-15,1,-7,1,-3,1,-19,1
1254,-12,1,-18,1,-6,1,15,1,-3,1,-12,1,8,1,3,1,-15,1,-6,1,-2,1,-18,1
1255,-12,1,-18,1,-6,1,15,1,-3,1,-12,1,8,1,3,1,-14,1,-6,1,-2,1,-17,1
1256,-11,1,-19,1,-8,1,15,1,-2,1,-14,1,8,1,4,1,-14,1,-6,1,-2,1,-17,1
1257,-10,1,-18,1,-8,1,14,1,-1,1,-13,1,8,1,5,1,-14,1,-6,1,-3,1,-16,1
1258,-10,1,-18,1,-8,1,14,1,-1,1,-13,1,9,1,5,1,-14,1,-6,1,-2,1,-16,1
1259,-9,1,-17,1,-8,1,13,1,-1,1,-13,1,9,1,6,1,-14,1,-6,1,-2,1,-15,1
1260,-9,1,-17,1,-8,1,13,1,-1,1,-13,1,9,1,6,1,-14,1,-6,1,-2,1,-15,1
1261,-9,1,-16,1,-7,1,12,1,-1,1,-12,1,9,1,6,1,-15,1,-5,1,-1,1,-15,1
1262,-9,1,-15,1,-6,1,12,1,-2,1,-11,1,9,1,7,1,-15,1,-5,1,-1,1,-15,1
1263,-9,1,-15,1,-6,1,12,1,-2,1,-11,1,9,1,7,1,-15,1,-5,1,0,1,-15,1
1264,-9,1,-15,1,-6,1,12,1,-2,1,-11,1,8,1,8,1,-15,1,-5,1,0,1,-14,1
1265,-9,1,-14,1,-5,1,11,1,-2,1,-10,1,8,1,9,1,-14,1,-5,1,0,1,-13,1
1266,-9,1,-14,1,-5,1,11,1,-2,1,-10,1,8,1,10,1,-14,1,-4,1,1,1,-13,1
1267,-9,1,-14,1,-5,1,11,1,-2,1,-10,1,8,1,10,1,-13,1,-4,1,1,1,-13,1
1268,-9,1,-13,1,-4,1,11,1,-3,1,-9,1,8,1,10,1,-13,1,-4,1,2,1,-13,1
1269,-9,1,-12,1,-3,1,10,1,-3,1,-8,1,7,1,11,1,-12,1,-3,1,2,1,-12,1
1270,-9,1,-11,1,-2,1,10,1,-4,1,-7,1,7,1,11,1,-12,1,-3,1,3,1,-12,1
1271,-9,1,-10,1,-1,1,9,1,-4,1,-6,1,7,1,12,1,-11,1,-3,1,4,1,-12,1
1272,-8,1,-10,1,-2,1,9,1,-3,1,-6,1,7,1,12,1,-10,1,-2,1,5,1,-11,1
1273,-7,1,-10,1,-3,1,8,1,-2,1,-7,1,8,1,13,1,-10,1,-2,1,4,1,-10,1
1274,-7,1,-10,1,-3,1,8,1,-2,1,-7,1,8,1,14,1,-9,1,-2,1,5,1,-10,1
1275,-7,1,-10,1,-3,1,8,1,-2,1,-7,1,8,1,14,1,-9,1,-2,1,5,1,-10,1
1276,-6,1,-10,1,-4,1,8,1,-1,1,-7,1,8,1,15,1,-9,1,-2,1,6,1,-9,1
1277,-6,1,-9,1,-3,1,7,1,-2,1,-6,1,8,1,15,1,-9,1,-2,1,6,1,-9,1
1278,-6,1,-9,1,-3,1,7,1,-2,1,-6,1,8,1,16,1,-8,1,-1,1,7,1,-8,1
1279,-5,1,-9,1,-4,1,7,1,-1,1,-7,1,8,1,17,1,-8,1,-1,1,8,1,-8,1
1280,-5,1,-8,1,-3,1,6,1,-1,1,-6,1,7,1,18,1,-7,1,-1,1,7,1,-7,1
1281,-5,1,-7,1,-2,1,6,1,-2,1,-5,1,7,1,19,1,-6,1,0,1,8,1,-6,1
1282,-5,1,-7,1,-2,1,6,1,-2,1,-5,1,7,1,19,1,-5,1,0,1,9,1,-5,1
1283,-4,1,-6,1,-2,1,5,1,-1,1,-4,1,6,1,20,1,-5,1,1,1,9,1,-5,1
1284,-4,1,-5,1,-1,1,4,1,-2,1,-3,1,6,1,21,1,-4,1,2,1,10,1,-4,1
1285,-3,1,-5,1,-2,1,4,1,-1,1,-4,1,5,1,21,1,-3,1,3,1,10,1,-3,1
1286,-2,1,-4,1,-2,1,3,1,0,1,-3,1,4,1,22,1,-2,1,4,1,10,1,-3,1
1287,-2,1,-3,1,-1,1,2,1,-1,1,-2,1,4,1,23,1,-2,1,5,1,11,1,-3,1
1288,-1,1,-3,1,-2,1,2,1,0,1,-3,1,4,1,24,1,-1,1,5,1,12,1,-2,1
1289,-1,1,-2,1,-1,1,1,1,0,1,-2,1,4,1,25,1,-1,1,6,1,13,1,0,1
1290,0,1,-1,1,-1,1,0,1,0,1,-1,1,3,1,26,1,0,1,7,1,14,1,1,1
1291,0,1,0,1,0,1,0,1,0,1,0,1,3,1,26,1,0,1,8,1,14,1,1,1
1292,0,1,0,1,0,1,0,1,0,1,0,1,2,1,27,1,1,1,8,1,15,1,2,1
1293,1,1,1,1,0,1,-1,1,1,1,1,1,2,1,28,1,2,1,9,1,16,1,3,1
1294,2,1,2,1,0,1,-2,1,1,1,1,1,1,1,29,1,3,1,10,1,17,1,5,1
1295,3,1,2,1,-1,1,-2,1,2,1,1,1,1,1,30,1,4,1,11,1,19,1,6,1
1296,3,1,3,1,0,1,-3,1,2,1,2,1,0,1,31,1,4,1,11,1,19,1,6,1
1297,4,1,4,1,0,1,-4,1,2,1,2,1,0,1,32,1,5,1,13,1,20,1,8,1
1298,4,1,5,1,1,1,-4,1,2,1,3,1,-1,1,33,1,7,1,14,1,22,1,9,1
1299,5,1,6,1,1,1,-5,1,2,1,4,1,-2,1,35,1,8,1,16,1,24,1,11,1
1300,6,1,8,1,2,1,-7,1,2,1,5,1,-3,1,35,1,9,1,17,1,25,1,12,1
1301,7,1,8,1,1,1,-7,1,3,1,5,1,-4,1,37,1,9,1,18,1,26,1,13,1
1302,7,1,9,1,2,1,-8,1,3,1,6,1,-5,1,38,1,10,1,19,1,28,1,15,1
1303,9,1,10,1,1,1,-9,1,4,1,6,1,-6,1,39,1,11,1,20,1,29,1,15,1
1304,10,1,12,1,2,1,-11,1,4,1,7,1,-6,1,40,1,12,1,21,1,30,1,16,1
1305,10,1,13,1,3,1,-11,1,4,1,8,1,-7,1,41,1,13,1,22,1,32,1,18,1
1306,11,1,15,1,4,1,-13,1,4,1,10,1,-7,1,42,1,14,1,23,1,33,1,20,1
1307,12,1,16,1,4,1,-14,1,4,1,10,1,-7,1,44,1,15,1,25,1,35,1,22,1
1308,13,1,17,1,4,1,-15,1,5,1,11,1,-8,1,45,1,16,1,26,1,36,1,23,1
1309,14,1,17,1,3,1,-15,1,6,1,10,1,-9,1,46,1,17,1,27,1,38,1,25,1
1310,16,1,18,1,2,1,-17,1,7,1,10,1,-10,1,47,1,17,1,29,1,39,1,27,1
1311,17,1,19,1,2,1,-18,1,8,1,11,1,-11,1,48,1,18,1,30,1,41,1,29,1
1312,18,1,20,1,2,1,-19,1,8,1,11,1,-12,1,49,1,20,1,31,1,42,1,31,1
1313,19,1,22,1,3,1,-20,1,8,1,13,1,-13,1,50,1,21,1,32,1,44,1,33,1
1314,20,1,23,1,3,1,-21,1,9,1,13,1,-14,1,51,1,22,1,33,1,45,1,35,1
1315,22,1,24,1,2,1,-23,1,10,1,13,1,-15,1,52,1,23,1,35,1,47,1,38,1
1316,24,1,25,1,1,1,-24,1,12,1,13,1,-17,1,53,1,23,1,36,1,49,1,40,1
1317,25,1,27,1,2,1,-26,1,12,1,15,1,-18,1,54,1,24,1,37,1,51,1,42,1
1318,26,1,28,1,2,1,-27,1,12,1,15,1,-19,1,54,1,25,1,38,1,52,1,44,1
1319,27,1,30,1,3,1,-28,1,12,1,17,1,-21,1,55,1,26,1,40,1,54,1,45,1
1320,28,1,32,1,4,1,-30,1,12,1,18,1,-22,1,56,1,27,1,41,1,56,1,47,1
1321,30,1,33,1,3,1,-31,1,14,1,18,1,-23,1,57,1,27,1,42,1,57,1,50,1
1322,31,1,35,1,4,1,-33,1,14,1,20,1,-24,1,57,1,28,1,43,1,59,1,52,1
1323,32,1,36,1,4,1,-34,1,14,1,20,1,-25,1,58,1,29,1,44,1,60,1,54,1
1324,33,1,37,1,4,1,-35,1,15,1,21,1,-26,1,58,1,29,1,45,1,62,1,56,1
1325,34,1,38,1,4,1,-36,1,15,1,21,1,-27,1,59,1,30,1,45,1,64,1,58,1
1326,35,1,40,1,5,1,-37,1,15,1,23,1,-29,1,58,1,30,1,46,1,65,1,59,1
1327,36,1,40,1,4,1,-38,1,16,1,22,1,-29,1,59,1,30,1,46,1,66,1,60,1
1328,37,1,42,1,5,1,-39,1,16,1,24,1,-31,1,59,1,30,1,47,1,68,1,61,1
1329,38,1,43,1,5,1,-40,1,17,1,24,1,-31,1,59,1,31,1,48,1,69,1,64,1
1330,39,1,44,1,5,1,-41,1,17,1,25,1,-32,1,59,1,31,1,48,1,70,1,65,1
1331,39,1,45,1,6,1,-42,1,17,1,26,1,-33,1,59,1,31,1,49,1,71,1,67,1
1332,40,1,45,1,5,1,-42,1,18,1,25,1,-34,1,59,1,31,1,49,1,72,1,68,1
1333,41,1,46,1,5,1,-43,1,18,1,26,1,-34,1,59,1,31,1,49,1,73,1,69,1
1334,42,1,47,1,5,1,-44,1,19,1,26,1,-35,1,59,1,31,1,50,1,74,1,70,1
1335,42,1,48,1,6,1,-45,1,18,1,27,1,-36,1,59,1,31,1,50,1,74,1,71,1
1336,42,1,48,1,6,1,-45,1,18,1,27,1,-37,1,59,1,31,1,51,1,75,1,73,1
1337,43,1,49,1,6,1,-46,1,19,1,28,1,-38,1,59,1,30,1,51,1,76,1,74,1
1338,44,1,50,1,6,1,-47,1,19,1,28,1,-38,1,59,1,30,1,52,1,77,1,75,1
1339,44,1,50,1,6,1,-47,1,19,1,28,1,-38,1,58,1,30,1,52,1,78,1,76,1
1340,44,1,51,1,7,1,-47,1,19,1,29,1,-38,1,57,1,30,1,52,1,79,1,76,1
1341,44,1,52,1,8,1,-48,1,18,1,30,1,-39,1,56,1,30,1,52,1,79,1,76,1
1342,44,1,52,1,8,1,-48,1,18,1,30,1,-38,1,56,1,30,1,51,1,80,1,76,1
1343,43,1,52,1,9,1,-47,1,17,1,31,1,-38,1,55,1,29,1,51,1,80,1,76,1
1344,42,1,52,1,10,1,-47,1,16,1,31,1,-38,1,54,1,28,1,51,1,79,1,76,1
1345,41,1,51,1,10,1,-46,1,16,1,31,1,-37,1,53,1,28,1,50,1,78,1,76,1
1346,40,1,51,1,11,1,-45,1,15,1,31,1,-36,1,51,1,27,1,50,1,77,1,74,1
1347,38,1,51,1,13,1,-44,1,13,1,32,1,-35,1,49,1,25,1,49,1,76,1,72,1
1348,36,1,50,1,14,1,-43,1,11,1,32,1,-34,1,48,1,24,1,48,1,74,1,70,1
1349,34,1,49,1,15,1,-41,1,10,1,32,1,-33,1,46,1,22,1,46,1,72,1,67,1
1350,31,1,48,1,17,1,-39,1,7,1,33,1,-31,1,44,1,21,1,44,1,70,1,64,1
1351,29,1,46,1,17,1,-37,1,6,1,32,1,-30,1,43,1,19,1,42,1,67,1,61,1
1352,26,1,43,1,17,1,-34,1,5,1,30,1,-27,1,41,1,18,1,40,1,64,1,58,1
1353,24,1,41,1,17,1,-32,1,4,1,29,1,-24,1,39,1,16,1,38,1,62,1,54,1
1354,20,1,37,1,17,1,-28,1,2,1,27,1,-22,1,37,1,15,1,35,1,59,1,51,1
1355,17,1,34,1,17,1,-25,1,0,1,26,1,-20,1,34,1,12,1,32,1,56,1,47,1
1356,15,1,32,1,17,1,-23,1,-1,1,25,1,-18,1,31,1,10,1,30,1,53,1,43,1
1357,12,1,29,1,17,1,-20,1,-2,1,23,1,-15,1,28,1,8,1,28,1,50,1,39,1
1358,10,1,27,1,17,1,-18,1,-3,1,22,1,-13,1,26,1,6,1,26,1,47,1,36,1
1359,7,1,26,1,19,1,-16,1,-6,1,23,1,-12,1,24,1,4,1,24,1,44,1,32,1
1360,6,1,24,1,18,1,-15,1,-6,1,21,1,-10,1,22,1,2,1,21,1,41,1,28,1
1361,4,1,22,1,18,1,-13,1,-7,1,20,1,-8,1,20,1,1,1,20,1,38,1,25,1
1362,2,1,20,1,18,1,-11,1,-8,1,19,1,-5,1,18,1,0,1,18,1,35,1,22,1
1363,1,1,18,1,17,1,-9,1,-8,1,18,1,-4,1,17,1,-1,1,16,1,33,1,20,1
1364,0,1,16,1,16,1,-8,1,-8,1,16,1,-2,1,15,1,-2,1,14,1,31,1,17,1
1365,-2,1,13,1,15,1,-5,1,-8,1,14,1,-1,1,13,1,-3,1,13,1,28,1,15,1
1366,-3,1,11,1,14,1,-4,1,-8,1,12,1,-1,1,11,1,-4,1,11,1,27,1,12,1
1367,-5,1,10,1,15,1,-2,1,-10,1,12,1,0,1,10,1,-5,1,10,1,25,1,9,1
1368,-5,1,8,1,13,1,-1,1,-9,1,10,1,1,1,9,1,-5,1,9,1,23,1,7,1
1369,-6,1,7,1,13,1,0,1,-9,1,10,1,2,1,7,1,-6,1,8,1,22,1,5,1
1370,-7,1,6,1,13,1,0,1,-10,1,9,1,3,1,5,1,-7,1,7,1,20,1,3,1
1371,-8,1,5,1,13,1,1,1,-10,1,9,1,4,1,5,1,-7,1,5,1,19,1,2,1
1372,-9,1,3,1,12,1,3,1,-10,1,7,1,4,1,5,1,-8,1,4,1,18,1,0,1
1373,-10,1,3,1,13,1,3,1,-11,1,8,1,4,1,3,1,-9,1,3,1,16,1,-1,1
1374,-10,1,1,1,11,1,4,1,-10,1,6,1,4,1,2,1,-10,1,3,1,15,1,-2,1
1375,-11,1,0,1,11,1,5,1,-11,1,5,1,4,1,1,1,-10,1,2,1,15,1,-4,1
1376,-11,1,-1,1,10,1,6,1,-11,1,4,1,4,1,0,1,-11,1,1,1,13,1,-5,1
1377,-11,1,-2,1,9,1,6,1,-10,1,3,1,4,1,0,1,-11,1,1,1,12,1,-7,1
1378,-12,1,-3,1,9,1,7,1,-11,1,3,1,4,1,-1,1,-12,1,0,1,12,1,-7,1
1379,-13,1,-4,1,9,1,8,1,-11,1,2,1,4,1,-2,1,-12,1,0,1,11,1,-7,1
1380,-13,1,-4,1,9,1,8,1,-11,1,2,1,4,1,-3,1,-13,1,-1,1,11,1,-8,1
1381,-13,1,-5,1,8,1,9,1,-11,1,1,1,4,1,-4,1,-13,1,-1,1,10,1,-9,1
1382,-13,1,-5,1,8,1,9,1,-11,1,1,1,5,1,-4,1,-13,1,-2,1,10,1,-10,1
1383,-13,1,-6,1,7,1,9,1,-10,1,0,1,5,1,-4,1,-14,1,-2,1,9,1,-10,1
1384,-13,1,-6,1,7,1,9,1,-10,1,0,1,5,1,-5,1,-14,1,-3,1,8,1,-11,1
1385,-13,1,-7,1,6,1,10,1,-10,1,-1,1,5,1,-5,1,-15,1,-3,1,8,1,-10,1
1386,-14,1,-7,1,7,1,10,1,-11,1,0,1,5,1,-6,1,-15,1,-3,1,8,1,-11,1
1387,-13,1,-7,1,6,1,10,1,-10,1,-1,1,5,1,-6,1,-16,1,-4,1,8,1,-11,1
1388,-14,1,-7,1,7,1,10,1,-11,1,0,1,6,1,-6,1,-16,1,-5,1,8,1,-11,1
1389,-14,1,-7,1,7,1,10,1,-11,1,0,1,6,1,-6,1,-17,1,-5,1,7,1,-11,1
1390,-14,1,-7,1,7,1,10,1,-11,1,0,1,6,1,-6,1,-17,1,-5,1,7,1,-11,1
1391,-15,1,-7,1,8,1,11,1,-12,1,0,1,5,1,-6,1,-17,1,-4,1,7,1,-11,1
1392,-15,1,-7,1,8,1,11,1,-12,1,0,1,5,1,-6,1,-17,1,-4,1,8,1,-11,1
1393,-15,1,-6,1,9,1,10,1,-12,1,1,1,5,1,-7,1,-17,1,-4,1,8,1,-11,1
1394,-16,1,-6,1,10,1,11,1,-13,1,2,1,5,1,-7,1,-18,1,-4,1,8,1,-11,1
1395,-16,1,-6,1,10,1,11,1,-13,1,2,1,6,1,-7,1,-18,1,-4,1,8,1,-11,1
1396,-16,1,-6,1,10,1,11,1,-13,1,2,1,6,1,-7,1,-18,1,-4,1,7,1,-11,1
1397,-17,1,-6,1,11,1,11,1,-14,1,2,1,6,1,-7,1,-18,1,-5,1,7,1,-11,1
1398,-17,1,-7,1,10,1,12,1,-14,1,1,1,7,1,-7,1,-17,1,-5,1,7,1,-10,1
1399,-16,1,-7,1,9,1,11,1,-13,1,1,1,7,1,-7,1,-17,1,-5,1,6,1,-10,1
1400,-16,1,-7,1,9,1,11,1,-13,1,1,1,7,1,-8,1,-16,1,-6,1,6,1,-10,1
1401,-16,1,-7,1,9,1,11,1,-13,1,1,1,7,1,-8,1,-16,1,-6,1,6,1,-11,1
1402,-16,1,-7,1,9,1,11,1,-13,1,1,1,7,1,-7,1,-16,1,-6,1,6,1,-11,1
1403,-16,1,-7,1,9,1,11,1,-13,1,1,1,7,1,-7,1,-16,1,-7,1,6,1,-11,1
1404,-16,1,-8,1,8,1,12,1,-12,1,0,1,7,1,-7,1,-16,1,-7,1,6,1,-11,1
1405,-16,1,-8,1,8,1,12,1,-12,1,0,1,7,1,-6,1,-16,1,-7,1,6,1,-11,1
1406,-16,1,-7,1,9,1,11,1,-13,1,1,1,6,1,-5,1,-16,1,-7,1,6,1,-11,1
1407,-16,1,-7,1,9,1,11,1,-13,1,1,1,5,1,-5,1,-16,1,-7,1,6,1,-11,1
1408,-16,1,-7,1,9,1,11,1,-13,1,1,1,5,1,-5,1,-15,1,-7,1,6,1,-11,1
1409,-15,1,-6,1,9,1,10,1,-12,1,1,1,5,1,-5,1,-15,1,-6,1,7,1,-11,1
1410,-15,1,-6,1,9,1,10,1,-12,1,1,1,5,1,-5,1,-15,1,-6,1,6,1,-11,1
1411,-15,1,-6,1,9,1,10,1,-12,1,1,1,5,1,-5,1,-14,1,-6,1,6,1,-11,1
1412,-15,1,-6,1,9,1,10,1,-12,1,1,1,5,1,-5,1,-14,1,-6,1,6,1,-11,1
1413,-15,1,-6,1,9,1,10,1,-12,1,1,1,6,1,-5,1,-14,1,-7,1,4,1,-11,1
1414,-15,1,-6,1,9,1,10,1,-12,1,1,1,6,1,-5,1,-14,1,-7,1,4,1,-11,1
1415,-15,1,-6,1,9,1,10,1,-12,1,1,1,6,1,-5,1,-14,1,-7,1,4,1,-12,1
1416,-15,1,-6,1,9,1,10,1,-12,1,1,1,6,1,-5,1,-14,1,-7,1,4,1,-12,1
1417,-15,1,-6,1,9,1,10,1,-12,1,1,1,5,1,-5,1,-14,1,-8,1,4,1,-12,1
1418,-15,1,-6,1,9,1,10,1,-12,1,1,1,5,1,-5,1,-13,1,-8,1,4,1,-11,1
1419,-14,1,-7,1,7,1,10,1,-11,1,0,1,6,1,-4,1,-13,1,-8,1,4,1,-11,1
1420,-14,1,-7,1,7,1,10,1,-11,1,0,1,6,1,-4,1,-13,1,-8,1,4,1,-11,1
1421,-13,1,-7,1,6,1,10,1,-10,1,-1,1,6,1,-4,1,-13,1,-8,1,4,1,-12,1
1422,-13,1,-7,1,6,1,10,1,-10,1,-1,1,7,1,-3,1,-13,1,-8,1,5,1,-12,1
1423,-13,1,-7,1,6,1,10,1,-10,1,-1,1,6,1,-3,1,-14,1,-8,1,5,1,-12,1
1424,-13,1,-7,1,6,1,10,1,-10,1,-1,1,6,1,-3,1,-14,1,-8,1,5,1,-13,1
1425,-13,1,-6,1,7,1,9,1,-10,1,0,1,6,1,-3,1,-13,1,-7,1,5,1,-12,1
1426,-13,1,-6,1,7,1,9,1,-10,1,0,1,6,1,-2,1,-13,1,-7,1,5,1,-12,1
1427,-13,1,-6,1,7,1,9,1,-10,1,0,1,6,1,-2,1,-13,1,-6,1,5,1,-12,1
1428,-13,1,-5,1,8,1,9,1,-11,1,1,1,5,1,-2,1,-13,1,-6,1,5,1,-12,1
1429,-13,1,-5,1,8,1,9,1,-11,1,1,1,5,1,-3,1,-13,1,-7,1,4,1,-12,1
1430,-14,1,-6,1,8,1,10,1,-11,1,1,1,5,1,-3,1,-13,1,-7,1,4,1,-12,1
1431,-14,1,-7,1,7,1,10,1,-11,1,0,1,5,1,-3,1,-13,1,-7,1,4,1,-12,1
1432,-14,1,-7,1,7,1,10,1,-11,1,0,1,5,1,-3,1,-13,1,-7,1,4,1,-11,1
1433,-14,1,-7,1,7,1,10,1,-11,1,0,1,5,1,-3,1,-13,1,-7,1,4,1,-11,1
1434,-14,1,-7,1,7,1,10,1,-11,1,0,1,5,1,-3,1,-13,1,-7,1,4,1,-11,1
1435,-14,1,-7,1,7,1,10,1,-11,1,0,1,5,1,-3,1,-13,1,-7,1,4,1,-12,1
1436,-14,1,-7,1,7,1,10,1,-11,1,0,1,6,1,-3,1,-12,1,-7,1,4,1,-12,1
1437,-14,1,-7,1,7,1,10,1,-11,1,0,1,6,1,-3,1,-12,1,-7,1,5,1,-12,1
1438,-15,1,-7,1,8,1,11,1,-12,1,0,1,5,1,-2,1,-13,1,-7,1,4,1,-11,1
1439,-15,1,-7,1,8,1,11,1,-12,1,0,1,5,1,-2,1,-12,1,-7,1,5,1,-12,1
1440,-15,1,-7,1,8,1,11,1,-12,1,0,1,6,1,-2,1,-12,1,-7,1,5,1,-12,1
1441,-15,1,-8,1,7,1,11,1,-11,1,-1,1,6,1,-2,1,-13,1,-7,1,5,1,-12,1
1442,-15,1,-8,1,7,1,11,1,-11,1,-1,1,6,1,-2,1,-13,1,-8,1,5,1,-13,1
1443,-15,1,-8,1,7,1,11,1,-11,1,-1,1,6,1,-3,1,-13,1,-8,1,5,1,-13,1
1444,-16,1,-9,1,7,1,12,1,-12,1,-1,1,6,1,-3,1,-12,1,-9,1,5,1,-13,1
1445,-15,1,-9,1,6,1,12,1,-11,1,-2,1,6,1,-3,1,-12,1,-8,1,5,1,-12,1
1446,-16,1,-9,1,7,1,12,1,-12,1,-1,1,6,1,-3,1,-12,1,-8,1,5,1,-12,1
1447,-16,1,-9,1,7,1,12,1,-12,1,-1,1,6,1,-3,1,-12,1,-9,1,5,1,-13,1
1448,-15,1,-9,1,6,1,12,1,-11,1,-2,1,7,1,-3,1,-13,1,-9,1,4,1,-13,1
1449,-15,1,-9,1,6,1,12,1,-11,1,-2,1,7,1,-4,1,-13,1,-9,1,4,1,-14,1
1450,-15,1,-9,1,6,1,12,1,-11,1,-2,1,7,1,-4,1,-13,1,-9,1,4,1,-14,1
1451,-14,1,-9,1,5,1,11,1,-10,1,-2,1,7,1,-5,1,-13,1,-10,1,3,1,-15,1
1452,-14,1,-9,1,5,1,11,1,-10,1,-2,1,7,1,-5,1,-13,1,-10,1,3,1,-14,1
1453,-14,1,-9,1,5,1,11,1,-10,1,-2,1,7,1,-5,1,-14,1,-11,1,3,1,-14,1
1454,-14,1,-9,1,5,1,11,1,-10,1,-2,1,7,1,-6,1,-14,1,-11,1,2,1,-14,1
1455,-14,1,-9,1,5,1,11,1,-10,1,-2,1,8,1,-7,1,-14,1,-12,1,2,1,-14,1
1456,-15,1,-8,1,7,1,11,1,-11,1,-1,1,8,1,-7,1,-15,1,-13,1,1,1,-15,1
1457,-15,1,-8,1,7,1,11,1,-11,1,-1,1,8,1,-7,1,-15,1,-13,1,0,1,-15,1
1458,-15,1,-8,1,7,1,11,1,-11,1,-1,1,8,1,-8,1,-15,1,-13,1,0,1,-16,1
1459,-15,1,-8,1,7,1,11,1,-11,1,-1,1,8,1,-8,1,-15,1,-14,1,0,1,-16,1
1460,-15,1,-8,1,7,1,11,1,-11,1,-1,1,7,1,-9,1,-15,1,-13,1,-1,1,-16,1
1461,-15,1,-8,1,7,1,11,1,-11,1,-1,1,7,1,-10,1,-15,1,-13,1,-2,1,-17,1
1462,-15,1,-8,1,7,1,11,1,-11,1,-1,1,7,1,-10,1,-15,1,-14,1,-2,1,-17,1
1463,-16,1,-8,1,8,1,12,1,-12,1,0,1,7,1,-10,1,-15,1,-14,1,-2,1,-17,1
1464,-16,1,-9,1,7,1,12,1,-12,1,-1,1,8,1,-11,1,-16,1,-15,1,-2,1,-17,1
1465,-16,1,-9,1,7,1,12,1,-12,1,-1,1,8,1,-11,1,-16,1,-15,1,-2,1,-17,1
1466,-16,1,-9,1,7,1,12,1,-12,1,-1,1,7,1,-12,1,-16,1,-16,1,-3,1,-17,1
1467,-16,1,-9,1,7,1,12,1,-12,1,-1,1,8,1,-13,1,-16,1,-16,1,-3,1,-18,1
1468,-16,1,-10,1,6,1,13,1,-11,1,-2,1,7,1,-13,1,-16,1,-16,1,-3,1,-18,1
1469,-16,1,-10,1,6,1,13,1,-11,1,-2,1,7,1,-13,1,-15,1,-15,1,-3,1,-19,1
1470,-16,1,-10,1,6,1,13,1,-11,1,-2,1,8,1,-13,1,-15,1,-15,1,-2,1,-20,1
1471,-17,1,-10,1,7,1,13,1,-12,1,-2,1,8,1,-13,1,-15,1,-15,1,-3,1,-21,1
1472,-17,1,-10,1,7,1,13,1,-12,1,-2,1,9,1,-13,1,-15,1,-15,1,-3,1,-22,1
1473,-18,1,-10,1,8,1,14,1,-13,1,-1,1,9,1,-14,1,-15,1,-15,1,-3,1,-22,1
1474,-18,1,-11,1,7,1,14,1,-13,1,-2,1,9,1,-14,1,-15,1,-15,1,-3,1,-22,1
1475,-18,1,-11,1,7,1,14,1,-13,1,-2,1,9,1,-14,1,-15,1,-15,1,-3,1,-21,1
1476,-18,1,-11,1,7,1,14,1,-13,1,-2,1,9,1,-14,1,-15,1,-15,1,-3,1,-21,1
1477,-19,1,-11,1,8,1,15,1,-14,1,-2,1,9,1,-15,1,-15,1,-15,1,-4,1,-21,1
1478,-19,1,-11,1,8,1,15,1,-14,1,-2,1,9,1,-14,1,-15,1,-16,1,-4,1,-21,1
1479,-19,1,-11,1,8,1,15,1,-14,1,-2,1,9,1,-13,1,-15,1,-16,1,-4,1,-21,1
1480,-19,1,-11,1,8,1,15,1,-14,1,-2,1,9,1,-14,1,-15,1,-17,1,-4,1,-22,1
1481,-19,1,-11,1,8,1,15,1,-14,1,-2,1,8,1,-14,1,-15,1,-17,1,-4,1,-22,1
1482,-19,1,-11,1,8,1,15,1,-14,1,-2,1,8,1,-14,1,-16,1,-18,1,-4,1,-22,1
1483,-20,1,-11,1,9,1,15,1,-15,1,-1,1,8,1,-13,1,-16,1,-18,1,-4,1,-22,1
1484,-20,1,-11,1,9,1,15,1,-15,1,-1,1,8,1,-13,1,-16,1,-19,1,-4,1,-22,1
1485,-20,1,-11,1,9,1,15,1,-15,1,-1,1,8,1,-13,1,-16,1,-19,1,-4,1,-23,1
1486,-20,1,-11,1,9,1,15,1,-15,1,-1,1,8,1,-13,1,-15,1,-19,1,-5,1,-23,1
1487,-20,1,-10,1,10,1,15,1,-15,1,0,1,9,1,-13,1,-15,1,-19,1,-5,1,-23,1
1488,-20,1,-10,1,10,1,15,1,-15,1,0,1,9,1,-13,1,-15,1,-19,1,-5,1,-22,1
1489,-19,1,-10,1,9,1,14,1,-14,1,-1,1,9,1,-13,1,-15,1,-18,1,-5,1,-22,1
1490,-19,1,-10,1,9,1,14,1,-14,1,-1,1,9,1,-13,1,-15,1,-18,1,-5,1,-22,1
1491,-19,1,-10,1,9,1,14,1,-14,1,-1,1,9,1,-13,1,-15,1,-18,1,-6,1,-22,1
1492,-19,1,-10,1,9,1,14,1,-14,1,-1,1,10,1,-13,1,-15,1,-18,1,-6,1,-22,1
1493,-19,1,-10,1,9,1,14,1,-14,1,-1,1,10,1,-14,1,-14,1,-18,1,-7,1,-22,1
1494,-19,1,-11,1,8,1,15,1,-14,1,-2,1,10,1,-14,1,-14,1,-18,1,-7,1,-23,1
1495,-19,1,-11,1,8,1,15,1,-14,1,-2,1,10,1,-14,1,-14,1,-18,1,-7,1,-23,1
1496,-19,1,-10,1,9,1,14,1,-14,1,-1,1,10,1,-14,1,-13,1,-18,1,-7,1,-23,1
1497,-19,1,-10,1,9,1,14,1,-14,1,-1,1,10,1,-14,1,-13,1,-18,1,-7,1,-23,1
1498,-19,1,-10,1,9,1,14,1,-14,1,-1,1,10,1,-14,1,-15,1,-18,1,-6,1,-23,1
1499,-19,1,-10,1,9,1,14,1,-14,1,-1,1,10,1,-14,1,-15,1,-19,1,-7,1,-24,1
1500,-19,1,-10,1,9,1,14,1,-14,1,-1,1,9,1,-15,1,-15,1,-19,1,-7,1,-24,1
1501,-19,1,-10,1,9,1,14,1,-14,1,-1,1,9,1,-15,1,-15,1,-20,1,-7,1,-24,1
1502,-19,1,-10,1,9,1,14,1,-14,1,-1,1,9,1,-15,1,-15,1,-20,1,-7,1,-24,1
1503,-20,1,-10,1,10,1,15,1,-15,1,0,1,10,1,-15,1,-14,1,-20,1,-7,1,-24,1
1504,-19,1,-10,1,9,1,14,1,-14,1,-1,1,10,1,-15,1,-14,1,-20,1,-7,1,-23,1
1505,-19,1,-10,1,9,1,14,1,-14,1,-1,1,10,1,-15,1,-14,1,-20,1,-8,1,-23,1
1506,-19,1,-9,1,10,1,14,1,-15,1,0,1,10,1,-14,1,-15,1,-20,1,-8,1,-24,1
1507,-20,1,-10,1,10,1,15,1,-15,1,0,1,10,1,-14,1,-15,1,-20,1,-8,1,-24,1
1508,-19,1,-9,1,10,1,14,1,-15,1,0,1,11,1,-14,1,-15,1,-20,1,-8,1,-25,1
1509,-19,1,-9,1,10,1,14,1,-15,1,0,1,11,1,-14,1,-15,1,-20,1,-8,1,-25,1
1510,-19,1,-9,1,10,1,14,1,-15,1,0,1,11,1,-14,1,-15,1,-19,1,-8,1,-25,1
1511,-19,1,-10,1,9,1,14,1,-14,1,-1,1,11,1,-14,1,-15,1,-20,1,-8,1,-26,1
1512,-19,1,-11,1,8,1,15,1,-14,1,-2,1,11,1,-15,1,-15,1,-20,1,-8,1,-26,1
1513,-19,1,-11,1,8,1,15,1,-14,1,-2,1,11,1,-15,1,-15,1,-20,1,-8,1,-26,1
1514,-19,1,-10,1,9,1,14,1,-14,1,-1,1,10,1,-15,1,-14,1,-19,1,-7,1,-26,1
1515,-19,1,-9,1,10,1,14,1,-15,1,0,1,11,1,-14,1,-13,1,-18,1,-7,1,-26,1
1516,-18,1,-8,1,10,1,13,1,-14,1,1,1,13,1,-13,1,-12,1,-16,1,-5,1,-26,1
1517,-18,1,-6,1,12,1,12,1,-15,1,3,1,15,1,-11,1,-10,1,-15,1,-4,1,-25,1
1518,-18,1,-5,1,13,1,11,1,-16,1,4,1,16,1,-10,1,-8,1,-14,1,-4,1,-24,1
1519,-18,1,-3,1,15,1,10,1,-17,1,6,1,18,1,-8,1,-7,1,-13,1,-3,1,-23,1
1520,-18,1,0,1,18,1,9,1,-18,1,9,1,20,1,-7,1,-6,1,-11,1,-2,1,-22,1
1521,-18,1,1,1,19,1,8,1,-18,1,10,1,21,1,-6,1,-5,1,-10,1,-1,1,-21,1
1522,-19,1,3,1,22,1,8,1,-20,1,12,1,22,1,-6,1,-5,1,-9,1,-1,1,-20,1
1523,-18,1,5,1,23,1,6,1,-20,1,14,1,22,1,-5,1,-4,1,-8,1,0,1,-20,1
1524,-18,1,6,1,24,1,6,1,-21,1,15,1,23,1,-5,1,-4,1,-7,1,0,1,-19,1
1525,-17,1,7,1,24,1,5,1,-20,1,15,1,24,1,-5,1,-3,1,-7,1,1,1,-19,1
1526,-17,1,7,1,24,1,5,1,-20,1,15,1,25,1,-4,1,-3,1,-7,1,1,1,-19,1
1527,-17,1,8,1,25,1,4,1,-21,1,16,1,26,1,-3,1,-2,1,-7,1,1,1,-17,1
1528,-17,1,9,1,26,1,4,1,-21,1,17,1,27,1,-3,1,-1,1,-7,1,1,1,-17,1
1529,-17,1,9,1,26,1,4,1,-21,1,17,1,27,1,-2,1,0,1,-6,1,2,1,-17,1
1530,-17,1,11,1,28,1,3,1,-22,1,19,1,28,1,-2,1,1,1,-6,1,2,1,-17,1
1531,-17,1,12,1,29,1,2,1,-23,1,20,1,29,1,-1,1,2,1,-5,1,3,1,-17,1
1532,-17,1,13,1,30,1,2,1,-23,1,21,1,29,1,0,1,3,1,-4,1,4,1,-16,1
1533,-17,1,15,1,32,1,1,1,-24,1,23,1,28,1,-1,1,3,1,-3,1,4,1,-16,1
1534,-17,1,16,1,33,1,0,1,-25,1,24,1,25,1,-1,1,3,1,-2,1,5,1,-16,1
1535,-17,1,17,1,34,1,0,1,-25,1,25,1,24,1,-2,1,3,1,-2,1,5,1,-15,1
1536,-17,1,19,1,36,1,-1,1,-26,1,27,1,22,1,-3,1,3,1,-1,1,5,1,-14,1
1537,-16,1,20,1,36,1,-2,1,-26,1,28,1,21,1,-4,1,3,1,-1,1,6,1,-13,1
1538,-15,1,22,1,37,1,-3,1,-26,1,29,1,19,1,-5,1,3,1,-1,1,6,1,-13,1
1539,-14,1,24,1,38,1,-5,1,-26,1,31,1,18,1,-5,1,3,1,-1,1,6,1,-12,1
1540,-13,1,24,1,37,1,-5,1,-25,1,30,1,16,1,-6,1,3,1,-1,1,6,1,-12,1
1541,-12,1,25,1,37,1,-6,1,-24,1,31,1,16,1,-6,1,3,1,-1,1,7,1,-12,1
1542,-11,1,25,1,36,1,-7,1,-23,1,30,1,14,1,-7,1,1,1,0,1,7,1,-13,1
1543,-10,1,25,1,35,1,-7,1,-22,1,30,1,14,1,-8,1,1,1,0,1,6,1,-12,1
1544,-10,1,25,1,35,1,-7,1,-22,1,30,1,14,1,-8,1,0,1,-1,1,6,1,-12,1
1545,-10,1,24,1,34,1,-7,1,-22,1,29,1,14,1,-9,1,0,1,-1,1,6,1,-13,1
1546,-10,1,23,1,33,1,-6,1,-21,1,28,1,14,1,-9,1,-1,1,-2,1,6,1,-13,1
1547,-10,1,22,1,32,1,-6,1,-21,1,27,1,13,1,-10,1,-2,1,-3,1,5,1,-13,1
1548,-10,1,20,1,30,1,-5,1,-20,1,25,1,12,1,-11,1,-2,1,-4,1,4,1,-14,1
1549,-11,1,18,1,29,1,-3,1,-20,1,23,1,12,1,-12,1,-3,1,-5,1,3,1,-15,1
1550,-12,1,14,1,26,1,-1,1,-19,1,20,1,12,1,-12,1,-3,1,-5,1,2,1,-16,1
1551,-14,1,11,1,25,1,1,1,-19,1,18,1,12,1,-11,1,-3,1,-6,1,0,1,-16,1
1552,-15,1,7,1,22,1,4,1,-18,1,14,1,12,1,-11,1,-4,1,-7,1,-1,1,-18,1
1553,-17,1,4,1,21,1,6,1,-19,1,12,1,13,1,-11,1,-5,1,-9,1,-2,1,-19,1
1554,-17,1,0,1,17,1,8,1,-17,1,8,1,14,1,-12,1,-6,1,-11,1,-4,1,-20,1
1555,-18,1,-3,1,15,1,10,1,-17,1,6,1,14,1,-12,1,-6,1,-12,1,-5,1,-22,1
1556,-18,1,-5,1,13,1,11,1,-16,1,4,1,15,1,-12,1,-7,1,-13,1,-6,1,-23,1
1557,-18,1,-7,1,11,1,12,1,-15,1,2,1,15,1,-13,1,-8,1,-14,1,-7,1,-24,1
1558,-19,1,-10,1,9,1,14,1,-14,1,-1,1,15,1,-15,1,-10,1,-16,1,-8,1,-26,1
1559,-20,1,-12,1,8,1,16,1,-14,1,-2,1,15,1,-16,1,-11,1,-17,1,-9,1,-27,1
1560,-20,1,-13,1,7,1,16,1,-14,1,-3,1,14,1,-17,1,-13,1,-19,1,-10,1,-29,1
1561,-20,1,-14,1,6,1,17,1,-13,1,-4,1,13,1,-19,1,-14,1,-19,1,-12,1,-30,1
1562,-20,1,-15,1,5,1,17,1,-13,1,-5,1,13,1,-19,1,-15,1,-20,1,-13,1,-31,1
1563,-20,1,-15,1,5,1,17,1,-13,1,-5,1,12,1,-20,1,-15,1,-21,1,-13,1,-31,1
1564,-21,1,-16,1,5,1,18,1,-13,1,-6,1,12,1,-20,1,-16,1,-22,1,-13,1,-32,1
1565,-21,1,-17,1,4,1,19,1,-13,1,-7,1,12,1,-21,1,-17,1,-22,1,-13,1,-33,1
1566,-21,1,-18,1,3,1,19,1,-12,1,-8,1,11,1,-21,1,-17,1,-23,1,-14,1,-33,1
1567,-22,1,-18,1,4,1,20,1,-13,1,-7,1,10,1,-21,1,-18,1,-23,1,-14,1,-33,1
1568,-22,1,-18,1,4,1,20,1,-13,1,-7,1,11,1,-22,1,-17,1,-23,1,-14,1,-33,1
1569,-22,1,-19,1,3,1,20,1,-13,1,-8,1,12,1,-22,1,-18,1,-23,1,-15,1,-33,1
1570,-21,1,-19,1,2,1,20,1,-12,1,-9,1,12,1,-22,1,-18,1,-24,1,-15,1,-33,1
1571,-21,1,-19,1,2,1,20,1,-12,1,-9,1,13,1,-22,1,-18,1,-24,1,-16,1,-33,1
1572,-21,1,-19,1,2,1,20,1,-12,1,-9,1,13,1,-22,1,-18,1,-24,1,-15,1,-33,1
1573,-21,1,-19,1,2,1,20,1,-12,1,-9,1,12,1,-22,1,-18,1,-24,1,-16,1,-33,1
1574,-22,1,-19,1,3,1,20,1,-13,1,-8,1,12,1,-22,1,-18,1,-24,1,-16,1,-32,1
1575,-22,1,-19,1,3,1,20,1,-13,1,-8,1,12,1,-22,1,-18,1,-24,1,-15,1,-32,1
1576,-22,1,-19,1,3,1,20,1,-13,1,-8,1,12,1,-21,1,-18,1,-24,1,-16,1,-32,1
1577,-22,1,-19,1,3,1,20,1,-13,1,-8,1,12,1,-21,1,-17,1,-23,1,-15,1,-32,1
1578,-22,1,-20,1,2,1,21,1,-12,1,-9,1,12,1,-21,1,-17,1,-23,1,-15,1,-32,1
1579,-22,1,-20,1,2,1,21,1,-12,1,-9,1,12,1,-20,1,-18,1,-23,1,-14,1,-33,1
1580,-22,1,-20,1,2,1,21,1,-12,1,-9,1,12,1,-20,1,-18,1,-23,1,-14,1,-33,1
1581,-22,1,-20,1,2,1,21,1,-12,1,-9,1,12,1,-20,1,-18,1,-23,1,-14,1,-33,1
1582,-22,1,-20,1,2,1,21,1,-12,1,-9,1,13,1,-19,1,-18,1,-23,1,-14,1,-33,1
1583,-22,1,-20,1,2,1,21,1,-12,1,-9,1,13,1,-18,1,-18,1,-23,1,-14,1,-33,1
1584,-22,1,-20,1,2,1,21,1,-12,1,-9,1,14,1,-18,1,-18,1,-23,1,-14,1,-34,1
1585,-21,1,-20,1,1,1,20,1,-11,1,-10,1,14,1,-16,1,-17,1,-23,1,-14,1,-34,1
1586,-20,1,-21,1,-1,1,20,1,-10,1,-11,1,15,1,-13,1,-16,1,-23,1,-15,1,-34,1
1587,-18,1,-22,1,-4,1,20,1,-7,1,-13,1,15,1,-7,1,-14,1,-22,1,-15,1,-33,1
1588,-17,1,-23,1,-6,1,20,1,-6,1,-15,1,17,1,0,1,-11,1,-20,1,-15,1,-33,1
1589,-16,1,-23,1,-7,1,19,1,-5,1,-15,1,20,1,10,1,-6,1,-18,1,-15,1,-33,1
1590,-14,1,-22,1,-8,1,18,1,-3,1,-15,1,23,1,23,1,0,1,-15,1,-14,1,-33,1
1591,-11,1,-20,1,-9,1,15,1,-1,1,-15,1,28,1,38,1,7,1,-10,1,-12,1,-30,1
1592,-8,1,-14,1,-6,1,11,1,-1,1,-10,1,34,1,55,1,18,1,-3,1,-7,1,-26,1
1593,-5,1,-8,1,-3,1,6,1,-1,1,-6,1,41,1,76,1,30,1,6,1,-1,1,-21,1
1594,0,1,0,1,0,1,0,1,0,1,0,1,46,1,101,1,45,1,18,1,9,1,-13,1
1595,7,1,11,1,4,1,-9,1,2,1,8,1,49,1,121,1,63,1,34,1,23,1,-1,1
1596,12,1,28,1,16,1,-20,1,-2,1,22,1,48,1,130,1,79,1,51,1,41,1,16,1
1597,15,1,48,1,33,1,-31,1,-9,1,41,1,46,1,126,1,93,1,69,1,61,1,35,1
1598,16,1,69,1,53,1,-42,1,-18,1,61,1,44,1,114,1,105,1,88,1,84,1,57,1
1599,17,1,88,1,71,1,-52,1,-27,1,80,1,39,1,94,1,114,1,106,1,106,1,82,1
1600,17,1,102,1,85,1,-59,1,-34,1,94,1,26,1,57,1,117,1,119,1,126,1,103,1
1601,15,1,113,1,98,1,-64,1,-41,1,106,1,8,1,9,1,113,1,128,1,142,1,120,1
1602,11,1,120,1,109,1,-65,1,-49,1,115,1,-10,1,-43,1,106,1,133,1,153,1,132,1
1603,5,1,126,1,121,1,-65,1,-58,1,124,1,-23,1,-93,1,98,1,134,1,160,1,138,1
1604,-2,1,128,1,130,1,-63,1,-66,1,129,1,-30,1,-137,1,86,1,131,1,161,1,139,1
1605,-11,1,119,1,130,1,-54,1,-70,1,124,1,-34,1,-174,1,66,1,116,1,149,1,129,1
1606,-17,1,95,1,112,1,-39,1,-64,1,103,1,-39,1,-199,1,40,1,90,1,124,1,107,1
1607,-22,1,64,1,86,1,-21,1,-54,1,75,1,-43,1,-214,1,9,1,57,1,92,1,80,1
1608,-28,1,33,1,61,1,-2,1,-44,1,47,1,-41,1,-221,1,-20,1,23,1,57,1,48,1
1609,-31,1,9,1,40,1,11,1,-35,1,24,1,-40,1,-222,1,-44,1,-5,1,27,1,19,1
1610,-32,1,-8,1,24,1,20,1,-28,1,8,1,-41,1,-219,1,-59,1,-25,1,5,1,-4,1
1611,-33,1,-24,1,9,1,28,1,-21,1,-8,1,-40,1,-211,1,-67,1,-38,1,-12,1,-21,1
1612,-34,1,-37,1,-3,1,35,1,-16,1,-20,1,-40,1,-196,1,-67,1,-45,1,-24,1,-34,1
1613,-34,1,-48,1,-14,1,41,1,-10,1,-31,1,-39,1,-179,1,-66,1,-50,1,-32,1,-43,1
1614,-33,1,-55,1,-22,1,44,1,-6,1,-39,1,-38,1,-161,1,-65,1,-53,1,-38,1,-49,1
1615,-31,1,-57,1,-26,1,44,1,-3,1,-42,1,-36,1,-141,1,-63,1,-54,1,-40,1,-50,1
1616,-28,1,-57,1,-29,1,42,1,0,1,-43,1,-33,1,-122,1,-60,1,-54,1,-41,1,-52,1
1617,-26,1,-55,1,-29,1,40,1,1,1,-42,1,-31,1,-106,1,-58,1,-53,1,-40,1,-52,1
1618,-24,1,-52,1,-28,1,38,1,2,1,-40,1,-26,1,-92,1,-56,1,-51,1,-38,1,-51,1
1619,-21,1,-49,1,-28,1,35,1,3,1,-39,1,-20,1,-78,1,-50,1,-48,1,-35,1,-49,1
1620,-18,1,-45,1,-27,1,31,1,4,1,-36,1,-14,1,-64,1,-44,1,-44,1,-32,1,-46,1
1621,-16,1,-42,1,-26,1,29,1,5,1,-34,1,-8,1,-52,1,-38,1,-40,1,-28,1,-43,1
1622,-14,1,-39,1,-25,1,26,1,5,1,-32,1,-4,1,-43,1,-32,1,-37,1,-25,1,-40,1
1623,-14,1,-35,1,-21,1,24,1,3,1,-28,1,-1,1,-35,1,-28,1,-34,1,-23,1,-36,1
1624,-14,1,-33,1,-19,1,23,1,2,1,-26,1,1,1,-28,1,-24,1,-32,1,-21,1,-33,1
1625,-13,1,-30,1,-17,1,21,1,2,1,-24,1,4,1,-22,1,-20,1,-29,1,-19,1,-31,1
1626,-13,1,-27,1,-14,1,20,1,0,1,-21,1,7,1,-17,1,-16,1,-26,1,-16,1,-29,1
1627,-12,1,-24,1,-12,1,18,1,0,1,-18,1,9,1,-12,1,-15,1,-23,1,-14,1,-28,1
1628,-12,1,-23,1,-11,1,17,1,-1,1,-17,1,11,1,-9,1,-13,1,-20,1,-13,1,-27,1
1629,-12,1,-22,1,-10,1,17,1,-1,1,-16,1,13,1,-8,1,-12,1,-19,1,-11,1,-27,1
1630,-12,1,-21,1,-9,1,16,1,-2,1,-15,1,14,1,-7,1,-12,1,-18,1,-11,1,-26,1
1631,-12,1,-21,1,-9,1,16,1,-2,1,-15,1,14,1,-6,1,-11,1,-18,1,-10,1,-25,1
1632,-12,1,-20,1,-8,1,16,1,-2,1,-14,1,15,1,-4,1,-10,1,-17,1,-10,1,-24,1
1633,-13,1,-20,1,-7,1,16,1,-3,1,-14,1,15,1,-3,1,-10,1,-18,1,-10,1,-24,1
1634,-14,1,-20,1,-6,1,17,1,-4,1,-13,1,16,1,-2,1,-9,1,-17,1,-10,1,-25,1
1635,-14,1,-20,1,-6,1,17,1,-4,1,-13,1,17,1,-1,1,-9,1,-17,1,-10,1,-25,1
1636,-13,1,-20,1,-7,1,16,1,-3,1,-14,1,18,1,0,1,-9,1,-17,1,-10,1,-26,1
1637,-13,1,-20,1,-7,1,16,1,-3,1,-14,1,18,1,0,1,-8,1,-16,1,-10,1,-25,1
1638,-12,1,-20,1,-8,1,16,1,-2,1,-14,1,19,1,1,1,-9,1,-16,1,-10,1,-25,1
1639,-12,1,-19,1,-7,1,15,1,-3,1,-13,1,20,1,1,1,-8,1,-16,1,-10,1,-23,1
1640,-11,1,-19,1,-8,1,15,1,-2,1,-14,1,19,1,1,1,-8,1,-15,1,-10,1,-23,1
1641,-11,1,-18,1,-7,1,14,1,-2,1,-13,1,20,1,2,1,-8,1,-15,1,-10,1,-23,1
1642,-11,1,-18,1,-7,1,14,1,-2,1,-13,1,19,1,2,1,-8,1,-15,1,-9,1,-22,1
1643,-11,1,-17,1,-6,1,14,1,-3,1,-12,1,19,1,3,1,-8,1,-14,1,-9,1,-22,1
1644,-11,1,-17,1,-6,1,14,1,-3,1,-12,1,19,1,3,1,-8,1,-14,1,-9,1,-22,1
1645,-11,1,-17,1,-6,1,14,1,-3,1,-12,1,19,1,4,1,-8,1,-14,1,-8,1,-22,1
1646,-11,1,-17,1,-6,1,14,1,-3,1,-12,1,19,1,4,1,-8,1,-14,1,-8,1,-23,1
1647,-12,1,-16,1,-4,1,14,1,-4,1,-10,1,19,1,5,1,-7,1,-14,1,-8,1,-22,1
1648,-12,1,-16,1,-4,1,14,1,-4,1,-10,1,19,1,6,1,-7,1,-13,1,-7,1,-21,1
1649,-11,1,-15,1,-4,1,13,1,-4,1,-10,1,19,1,6,1,-7,1,-13,1,-7,1,-21,1
1650,-11,1,-14,1,-3,1,12,1,-4,1,-9,1,19,1,6,1,-7,1,-12,1,-7,1,-21,1
1651,-10,1,-14,1,-4,1,12,1,-3,1,-9,1,19,1,7,1,-6,1,-12,1,-6,1,-20,1
1652,-10,1,-13,1,-3,1,11,1,-4,1,-8,1,19,1,7,1,-6,1,-12,1,-6,1,-20,1
1653,-9,1,-13,1,-4,1,11,1,-3,1,-9,1,19,1,8,1,-6,1,-11,1,-6,1,-20,1
1654,-9,1,-13,1,-4,1,11,1,-3,1,-9,1,19,1,8,1,-6,1,-11,1,-6,1,-19,1
1655,-8,1,-12,1,-4,1,10,1,-2,1,-8,1,19,1,9,1,-5,1,-11,1,-5,1,-18,1
1656,-8,1,-11,1,-3,1,9,1,-3,1,-7,1,19,1,8,1,-4,1,-11,1,-5,1,-17,1
1657,-7,1,-11,1,-4,1,9,1,-2,1,-8,1,19,1,9,1,-4,1,-10,1,-4,1,-17,1
1658,-7,1,-11,1,-4,1,9,1,-2,1,-8,1,19,1,9,1,-3,1,-10,1,-4,1,-16,1
1659,-7,1,-10,1,-3,1,8,1,-2,1,-7,1,19,1,10,1,-2,1,-10,1,-2,1,-16,1
1660,-7,1,-10,1,-3,1,8,1,-2,1,-7,1,18,1,11,1,-1,1,-9,1,-1,1,-16,1
1661,-7,1,-10,1,-3,1,8,1,-2,1,-7,1,18,1,12,1,0,1,-9,1,-1,1,-15,1
1662,-7,1,-9,1,-2,1,8,1,-3,1,-6,1,18,1,13,1,0,1,-9,1,-1,1,-14,1
1663,-7,1,-9,1,-2,1,8,1,-3,1,-6,1,17,1,13,1,0,1,-8,1,-1,1,-13,1
1664,-7,1,-9,1,-2,1,8,1,-3,1,-6,1,17,1,13,1,0,1,-7,1,0,1,-12,1
1665,-7,1,-8,1,-1,1,7,1,-3,1,-5,1,17,1,14,1,0,1,-6,1,0,1,-12,1
1666,-7,1,-8,1,-1,1,7,1,-3,1,-5,1,18,1,15,1,0,1,-6,1,1,1,-12,1
1667,-6,1,-7,1,-1,1,6,1,-3,1,-4,1,18,1,16,1,0,1,-5,1,1,1,-11,1
1668,-6,1,-6,1,0,1,6,1,-3,1,-3,1,18,1,17,1,1,1,-5,1,1,1,-11,1
1669,-6,1,-6,1,0,1,6,1,-3,1,-3,1,18,1,17,1,1,1,-5,1,2,1,-11,1
1670,-5,1,-5,1,0,1,5,1,-3,1,-3,1,18,1,18,1,2,1,-5,1,3,1,-10,1
1671,-4,1,-4,1,0,1,4,1,-2,1,-2,1,18,1,19,1,3,1,-5,1,3,1,-9,1
1672,-4,1,-4,1,0,1,4,1,-2,1,-2,1,18,1,20,1,4,1,-4,1,4,1,-9,1
1673,-4,1,-3,1,1,1,3,1,-3,1,-1,1,18,1,20,1,4,1,-3,1,5,1,-9,1
1674,-4,1,-3,1,1,1,3,1,-3,1,-1,1,18,1,21,1,5,1,-2,1,5,1,-8,1
1675,-3,1,-2,1,1,1,2,1,-2,1,-1,1,17,1,21,1,6,1,-1,1,6,1,-7,1
1676,-3,1,-2,1,1,1,2,1,-2,1,-1,1,17,1,22,1,6,1,0,1,7,1,-7,1
1677,-2,1,-1,1,1,1,1,1,-2,1,0,1,16,1,22,1,7,1,0,1,7,1,-6,1
1678,-1,1,-1,1,0,1,1,1,-1,1,-1,1,16,1,23,1,8,1,1,1,8,1,-5,1
1679,-1,1,-1,1,0,1,1,1,-1,1,-1,1,16,1,25,1,8,1,2,1,9,1,-4,1
1680,0,1,0,1,0,1,0,1,0,1,0,1,15,1,26,1,9,1,2,1,10,1,-2,1
1681,0,1,1,1,1,1,0,1,0,1,1,1,15,1,27,1,9,1,3,1,10,1,-2,1
1682,1,1,2,1,1,1,-1,1,0,1,2,1,14,1,28,1,10,1,4,1,12,1,-1,1
1683,1,1,3,1,2,1,-2,1,0,1,3,1,14,1,29,1,12,1,5,1,12,1,0,1
1684,2,1,4,1,2,1,-3,1,0,1,3,1,14,1,30,1,13,1,7,1,13,1,0,1
1685,3,1,5,1,2,1,-4,1,1,1,4,1,13,1,30,1,14,1,8,1,14,1,1,1
1686,3,1,6,1,3,1,-4,1,0,1,5,1,12,1,32,1,15,1,9,1,15,1,2,1
1687,4,1,7,1,3,1,-5,1,1,1,5,1,10,1,33,1,15,1,10,1,16,1,4,1
1688,5,1,7,1,2,1,-6,1,2,1,5,1,9,1,34,1,16,1,12,1,18,1,5,1
1689,6,1,8,1,2,1,-7,1,2,1,5,1,8,1,35,1,18,1,13,1,19,1,6,1
1690,6,1,10,1,4,1,-8,1,1,1,7,1,8,1,37,1,19,1,14,1,21,1,8,1
1691,7,1,11,1,4,1,-9,1,2,1,8,1,7,1,38,1,20,1,16,1,22,1,9,1
1692,8,1,12,1,4,1,-10,1,2,1,8,1,6,1,39,1,20,1,17,1,23,1,10,1
1693,10,1,13,1,3,1,-11,1,4,1,8,1,6,1,40,1,21,1,18,1,24,1,12,1
1694,11,1,14,1,3,1,-12,1,4,1,9,1,6,1,41,1,22,1,19,1,26,1,13,1
1695,11,1,15,1,4,1,-13,1,4,1,10,1,5,1,42,1,23,1,20,1,27,1,15,1
1696,13,1,16,1,3,1,-14,1,5,1,10,1,4,1,43,1,24,1,21,1,28,1,17,1
1697,14,1,17,1,3,1,-15,1,6,1,10,1,2,1,44,1,24,1,22,1,29,1,19,1
1698,14,1,18,1,4,1,-16,1,5,1,11,1,2,1,45,1,25,1,23,1,31,1,21,1
1699,15,1,19,1,4,1,-17,1,6,1,12,1,1,1,46,1,26,1,24,1,33,1,22,1
1700,16,1,21,1,5,1,-18,1,6,1,13,1,0,1,47,1,27,1,24,1,34,1,24,1
1701,18,1,23,1,5,1,-20,1,7,1,14,1,0,1,48,1,28,1,26,1,36,1,26,1
1702,19,1,24,1,5,1,-21,1,7,1,15,1,-2,1,49,1,30,1,28,1,37,1,28,1
1703,20,1,26,1,6,1,-23,1,7,1,16,1,-3,1,50,1,30,1,29,1,39,1,30,1
1704,21,1,27,1,6,1,-24,1,8,1,17,1,-5,1,52,1,31,1,30,1,41,1,31,1
1705,23,1,29,1,6,1,-26,1,9,1,18,1,-6,1,53,1,31,1,31,1,42,1,33,1
1706,24,1,30,1,6,1,-27,1,9,1,18,1,-7,1,54,1,32,1,32,1,44,1,35,1
1707,25,1,31,1,6,1,-28,1,10,1,19,1,-8,1,55,1,33,1,34,1,45,1,37,1
1708,27,1,33,1,6,1,-30,1,11,1,20,1,-9,1,56,1,34,1,35,1,47,1,39,1
1709,28,1,34,1,6,1,-31,1,11,1,20,1,-10,1,57,1,35,1,36,1,48,1,41,1
1710,29,1,35,1,6,1,-32,1,12,1,21,1,-11,1,57,1,36,1,38,1,50,1,44,1
1711,30,1,37,1,7,1,-33,1,12,1,22,1,-13,1,58,1,37,1,39,1,52,1,46,1
1712,31,1,38,1,7,1,-34,1,12,1,23,1,-14,1,58,1,38,1,40,1,53,1,48,1
1713,33,1,40,1,7,1,-36,1,13,1,24,1,-14,1,58,1,39,1,41,1,55,1,49,1
1714,34,1,41,1,7,1,-37,1,14,1,24,1,-15,1,58,1,40,1,42,1,56,1,51,1
1715,35,1,42,1,7,1,-38,1,14,1,25,1,-16,1,58,1,40,1,43,1,58,1,52,1
1716,36,1,43,1,7,1,-39,1,15,1,25,1,-17,1,59,1,41,1,44,1,60,1,54,1
1717,37,1,44,1,7,1,-40,1,15,1,26,1,-18,1,59,1,41,1,44,1,61,1,55,1
1718,38,1,45,1,7,1,-41,1,16,1,26,1,-19,1,59,1,41,1,45,1,62,1,57,1
1719,39,1,47,1,8,1,-43,1,16,1,28,1,-19,1,60,1,41,1,45,1,64,1,58,1
1720,40,1,48,1,8,1,-44,1,16,1,28,1,-20,1,60,1,42,1,46,1,65,1,59,1
1721,40,1,48,1,8,1,-44,1,16,1,28,1,-21,1,60,1,41,1,46,1,66,1,61,1
1722,41,1,49,1,8,1,-45,1,17,1,29,1,-22,1,60,1,42,1,47,1,67,1,62,1
1723,42,1,50,1,8,1,-46,1,17,1,29,1,-23,1,59,1,41,1,47,1,69,1,63,1
1724,43,1,51,1,8,1,-47,1,18,1,30,1,-24,1,59,1,41,1,47,1,69,1,65,1
1725,43,1,52,1,9,1,-47,1,17,1,31,1,-24,1,58,1,41,1,48,1,70,1,65,1
1726,43,1,52,1,9,1,-47,1,17,1,31,1,-25,1,57,1,41,1,48,1,71,1,66,1
1727,43,1,52,1,9,1,-47,1,17,1,31,1,-25,1,57,1,41,1,48,1,71,1,67,1
1728,43,1,53,1,10,1,-48,1,17,1,32,1,-26,1,56,1,40,1,48,1,72,1,67,1
1729,43,1,53,1,10,1,-48,1,17,1,32,1,-26,1,56,1,39,1,48,1,72,1,68,1
1730,43,1,53,1,10,1,-48,1,17,1,32,1,-26,1,56,1,39,1,48,1,73,1,68,1
1731,42,1,53,1,11,1,-47,1,16,1,32,1,-26,1,55,1,38,1,48,1,73,1,68,1
1732,41,1,53,1,12,1,-47,1,15,1,33,1,-26,1,54,1,38,1,47,1,73,1,68,1
1733,40,1,52,1,12,1,-46,1,14,1,32,1,-26,1,53,1,37,1,47,1,72,1,67,1
1734,40,1,52,1,12,1,-46,1,14,1,32,1,-26,1,52,1,36,1,47,1,71,1,65,1
1735,39,1,51,1,12,1,-45,1,14,1,32,1,-25,1,50,1,35,1,45,1,69,1,63,1
1736,37,1,50,1,13,1,-43,1,12,1,32,1,-24,1,49,1,34,1,44,1,68,1,61,1
1737,35,1,49,1,14,1,-42,1,11,1,32,1,-23,1,47,1,33,1,43,1,66,1,60,1
1738,33,1,48,1,15,1,-40,1,9,1,32,1,-21,1,45,1,31,1,41,1,64,1,57,1
1739,30,1,46,1,16,1,-38,1,7,1,31,1,-19,1,43,1,29,1,39,1,61,1,54,1
1740,28,1,45,1,17,1,-36,1,6,1,31,1,-17,1,41,1,27,1,37,1,59,1,51,1
1741,25,1,43,1,18,1,-34,1,4,1,31,1,-15,1,39,1,25,1,35,1,56,1,47,1
1742,23,1,41,1,18,1,-32,1,3,1,30,1,-13,1,36,1,23,1,33,1,53,1,44,1
1743,21,1,39,1,18,1,-30,1,2,1,29,1,-11,1,34,1,21,1,30,1,50,1,41,1
1744,18,1,37,1,19,1,-27,1,0,1,28,1,-9,1,32,1,19,1,27,1,47,1,38,1
1745,14,1,34,1,20,1,-24,1,-3,1,27,1,-7,1,30,1,17,1,25,1,45,1,35,1
1746,12,1,31,1,19,1,-21,1,-3,1,25,1,-5,1,28,1,15,1,23,1,42,1,31,1
1747,9,1,29,1,20,1,-19,1,-5,1,25,1,-2,1,26,1,14,1,21,1,39,1,28,1
1748,7,1,26,1,19,1,-16,1,-6,1,23,1,0,1,25,1,13,1,19,1,36,1,24,1
1749,5,1,24,1,19,1,-14,1,-7,1,22,1,1,1,22,1,11,1,17,1,33,1,20,1
1750,3,1,21,1,18,1,-12,1,-7,1,20,1,2,1,20,1,10,1,15,1,30,1,18,1
1751,1,1,19,1,18,1,-10,1,-8,1,19,1,4,1,18,1,8,1,13,1,28,1,15,1
1752,0,1,17,1,17,1,-8,1,-8,1,17,1,5,1,16,1,7,1,11,1,26,1,12,1
1753,-1,1,15,1,16,1,-7,1,-8,1,15,1,6,1,13,1,6,1,10,1,24,1,9,1
1754,-3,1,13,1,16,1,-5,1,-9,1,14,1,7,1,12,1,4,1,8,1,21,1,6,1
1755,-4,1,11,1,15,1,-3,1,-9,1,13,1,8,1,11,1,3,1,7,1,20,1,4,1
1756,-5,1,10,1,15,1,-2,1,-10,1,12,1,9,1,9,1,3,1,6,1,18,1,2,1
1757,-7,1,8,1,15,1,0,1,-11,1,11,1,10,1,8,1,2,1,5,1,16,1,0,1
1758,-8,1,6,1,14,1,1,1,-11,1,10,1,11,1,7,1,1,1,4,1,15,1,-1,1
1759,-9,1,5,1,14,1,2,1,-11,1,9,1,12,1,6,1,0,1,3,1,13,1,-3,1
1760,-9,1,5,1,14,1,2,1,-11,1,9,1,12,1,5,1,0,1,2,1,12,1,-5,1
1761,-10,1,3,1,13,1,3,1,-11,1,8,1,13,1,4,1,-1,1,1,1,11,1,-6,1
1762,-12,1,2,1,14,1,5,1,-13,1,8,1,13,1,2,1,-1,1,1,1,10,1,-5,1
1763,-13,1,2,1,15,1,5,1,-14,1,8,1,13,1,1,1,-1,1,0,1,9,1,-6,1
1764,-13,1,1,1,14,1,6,1,-13,1,7,1,13,1,0,1,-2,1,-1,1,8,1,-8,1
1765,-13,1,0,1,13,1,6,1,-13,1,6,1,13,1,-2,1,-3,1,-1,1,7,1,-9,1
1766,-14,1,0,1,14,1,7,1,-14,1,7,1,14,1,-2,1,-3,1,-2,1,6,1,-11,1
1767,-14,1,-1,1,13,1,7,1,-14,1,6,1,13,1,-4,1,-4,1,-2,1,6,1,-12,1
1768,-14,1,-2,1,12,1,8,1,-13,1,5,1,13,1,-4,1,-5,1,-3,1,5,1,-12,1
1769,-14,1,-2,1,12,1,8,1,-13,1,5,1,14,1,-4,1,-5,1,-3,1,5,1,-13,1
1770,-15,1,-2,1,13,1,8,1,-14,1,5,1,14,1,-4,1,-6,1,-4,1,4,1,-14,1
1771,-15,1,-3,1,12,1,9,1,-14,1,4,1,13,1,-4,1,-6,1,-5,1,4,1,-14,1
1772,-16,1,-3,1,13,1,9,1,-15,1,5,1,13,1,-5,1,-7,1,-5,1,4,1,-14,1
1773,-16,1,-4,1,12,1,10,1,-14,1,4,1,13,1,-6,1,-7,1,-5,1,4,1,-14,1
1774,-16,1,-4,1,12,1,10,1,-14,1,4,1,13,1,-7,1,-8,1,-6,1,4,1,-13,1
1775,-16,1,-4,1,12,1,10,1,-14,1,4,1,13,1,-8,1,-8,1,-6,1,4,1,-13,1
1776,-16,1,-5,1,11,1,10,1,-14,1,3,1,13,1,-8,1,-8,1,-6,1,3,1,-13,1
1777,-16,1,-5,1,11,1,10,1,-14,1,3,1,13,1,-9,1,-7,1,-7,1,3,1,-14,1
1778,-16,1,-5,1,11,1,10,1,-14,1,3,1,13,1,-9,1,-7,1,-7,1,3,1,-13,1
1779,-16,1,-6,1,10,1,11,1,-13,1,2,1,13,1,-9,1,-8,1,-7,1,3,1,-14,1
1780,-17,1,-6,1,11,1,11,1,-14,1,2,1,14,1,-10,1,-9,1,-8,1,3,1,-14,1
1781,-17,1,-7,1,10,1,12,1,-14,1,1,1,14,1,-10,1,-9,1,-7,1,3,1,-14,1
1782,-17,1,-7,1,10,1,12,1,-14,1,1,1,15,1,-10,1,-9,1,-7,1,3,1,-14,1
1783,-17,1,-7,1,10,1,12,1,-14,1,1,1,15,1,-10,1,-9,1,-7,1,3,1,-15,1
1784,-17,1,-8,1,9,1,12,1,-13,1,0,1,14,1,-10,1,-10,1,-8,1,2,1,-15,1
1785,-18,1,-8,1,10,1,13,1,-14,1,1,1,14,1,-10,1,-10,1,-8,1,2,1,-16,1
1786,-17,1,-8,1,9,1,12,1,-13,1,0,1,14,1,-10,1,-10,1,-8,1,2,1,-15,1
1787,-17,1,-7,1,10,1,12,1,-14,1,1,1,14,1,-9,1,-10,1,-8,1,2,1,-15,1
1788,-16,1,-7,1,9,1,11,1,-13,1,1,1,14,1,-9,1,-10,1,-8,1,2,1,-15,1
1789,-15,1,-7,1,8,1,11,1,-12,1,0,1,13,1,-8,1,-9,1,-8,1,2,1,-15,1
1790,-16,1,-7,1,9,1,11,1,-13,1,1,1,12,1,-8,1,-9,1,-8,1,2,1,-15,1
1791,-16,1,-7,1,9,1,11,1,-13,1,1,1,12,1,-8,1,-9,1,-8,1,2,1,-16,1
1792,-16,1,-7,1,9,1,11,1,-13,1,1,1,12,1,-7,1,-9,1,-7,1,2,1,-15,1
1793,-16,1,-7,1,9,1,11,1,-13,1,1,1,12,1,-7,1,-10,1,-7,1,2,1,-14,1
1794,-16,1,-7,1,9,1,11,1,-13,1,1,1,12,1,-7,1,-10,1,-8,1,3,1,-14,1
1795,-15,1,-7,1,8,1,11,1,-12,1,0,1,12,1,-7,1,-10,1,-8,1,3,1,-14,1
1796,-15,1,-6,1,9,1,10,1,-12,1,1,1,11,1,-7,1,-10,1,-8,1,3,1,-15,1
1797,-15,1,-6,1,9,1,10,1,-12,1,1,1,11,1,-7,1,-10,1,-8,1,3,1,-15,1
1798,-15,1,-6,1,9,1,10,1,-12,1,1,1,11,1,-7,1,-10,1,-8,1,3,1,-14,1
1799,-14,1,-6,1,8,1,10,1,-11,1,1,1,11,1,-6,1,-9,1,-8,1,2,1,-14,1
1800,-13,1,-6,1,7,1,9,1,-10,1,0,1,12,1,-6,1,-9,1,-8,1,2,1,-14,1
1801,-13,1,-6,1,7,1,9,1,-10,1,0,1,12,1,-6,1,-9,1,-8,1,2,1,-14,1
1802,-13,1,-6,1,7,1,9,1,-10,1,0,1,11,1,-5,1,-9,1,-8,1,2,1,-14,1
1803,-13,1,-6,1,7,1,9,1,-10,1,0,1,11,1,-6,1,-9,1,-9,1,2,1,-14,1
1804,-13,1,-6,1,7,1,9,1,-10,1,0,1,11,1,-6,1,-9,1,-10,1,2,1,-14,1
1805,-13,1,-5,1,8,1,9,1,-11,1,1,1,11,1,-6,1,-9,1,-10,1,2,1,-14,1
1806,-13,1,-5,1,8,1,9,1,-11,1,1,1,11,1,-6,1,-8,1,-11,1,3,1,-14,1
1807,-14,1,-5,1,9,1,9,1,-12,1,2,1,10,1,-6,1,-8,1,-11,1,3,1,-15,1
