I,II,III,aVR,aVL,aVF,V1,V2,V3,V4,V5,V6
-7,-20,-13,13,3,-17,-20,-25,-27,-13,-21,-15
-9,-20,-11,14,1,-16,-20,-25,-27,-13,-21,-14
-9,-20,-11,14,1,-16,-21,-26,-27,-13,-21,-15
-10,-21,-11,15,0,-16,-22,-27,-29,-13,-22,-16
-10,-22,-12,16,1,-17,-21,-27,-30,-13,-22,-15
-10,-23,-13,16,1,-18,-21,-27,-30,-13,-22,-15
-8,-21,-13,14,2,-17,-20,-27,-30,-12,-22,-15
-5,-18,-13,11,4,-16,-19,-26,-30,-12,-21,-15
-6,-17,-11,11,2,-14,-19,-26,-29,-12,-20,-14
-8,-18,-10,13,1,-14,-20,-26,-29,-14,-21,-15
-7,-17,-10,12,1,-14,-21,-26,-29,-14,-21,-16
-7,-17,-10,12,1,-14,-21,-26,-29,-14,-22,-17
-8,-19,-11,13,1,-15,-21,-27,-30,-14,-22,-17
-7,-19,-12,13,2,-16,-22,-27,-30,-14,-22,-17
-6,-20,-14,13,4,-17,-21,-27,-29,-13,-22,-16
-6,-20,-14,13,4,-17,-21,-27,-29,-13,-22,-16
-7,-23,-16,15,4,-20,-22,-28,-29,-13,-22,-17
-10,-25,-15,17,2,-20,-23,-29,-30,-14,-23,-18
-10,-25,-15,17,2,-20,-22,-29,-29,-13,-22,-18
-9,-23,-14,16,2,-19,-22,-28,-29,-12,-22,-18
-8,-23,-15,15,3,-19,-22,-28,-30,-13,-22,-18
-8,-22,-14,15,3,-18,-22,-28,-31,-13,-22,-17
-7,-20,-13,13,3,-17,-20,-26,-30,-11,-21,-15
-2,-14,-12,8,5,-13,-18,-23,-27,-9,-19,-12
-3,-13,-10,8,3,-12,-18,-23,-25,-9,-18,-12
-7,-18,-11,12,2,-15,-19,-24,-26,-11,-19,-13
-6,-19,-13,12,3,-16,-20,-25,-25,-11,-19,-13
-4,-19,-15,11,5,-17,-20,-25,-25,-11,-19,-13
-5,-19,-14,12,4,-17,-21,-27,-26,-11,-19,-13
-5,-18,-13,11,4,-16,-21,-27,-26,-11,-19,-13
-6,-18,-12,12,3,-15,-20,-27,-27,-11,-19,-13
-7,-18,-11,12,2,-15,-21,-28,-28,-11,-20,-14
-11,-22,-11,16,0,-17,-21,-28,-29,-12,-21,-15
-12,-24,-12,18,0,-18,-22,-29,-30,-14,-22,-15
-9,-22,-13,15,2,-18,-20,-27,-28,-12,-20,-13
-9,-21,-12,15,1,-17,-20,-26,-28,-12,-20,-13
-7,-21,-14,14,3,-18,-21,-26,-27,-13,-21,-14
-2,-18,-16,10,7,-17,-20,-25,-26,-12,-20,-13
3,-15,-18,6,10,-16,-20,-25,-26,-11,-20,-14
5,-13,-18,4,11,-15,-20,-26,-26,-11,-20,-14
4,-12,-16,4,10,-14,-20,-26,-27,-11,-20,-13
-2,-15,-13,8,5,-14,-19,-26,-27,-11,-20,-15
-6,-16,-10,11,2,-13,-18,-26,-28,-11,-20,-15
-8,-16,-8,12,0,-12,-17,-25,-26,-9,-19,-13
-9,-17,-8,13,-1,-13,-17,-25,-27,-9,-18,-13
-10,-19,-9,14,-1,-14,-18,-25,-28,-10,-19,-14
-7,-21,-14,14,3,-18,-19,-26,-29,-11,-20,-15
-4,-21,-17,12,6,-19,-20,-26,-29,-13,-21,-15
-3,-20,-17,11,7,-19,-21,-26,-28,-12,-21,-15
-5,-21,-16,13,5,-19,-21,-25,-28,-12,-21,-14
-9,-21,-12,15,1,-17,-21,-25,-28,-11,-21,-14
-11,-19,-8,15,-2,-14,-20,-25,-28,-11,-21,-14
-9,-16,-7,12,-1,-12,-21,-26,-28,-11,-21,-14
-7,-16,-9,11,1,-13,-20,-27,-28,-11,-22,-14
-7,-16,-9,11,1,-13,-19,-25,-27,-10,-20,-14
-7,-16,-9,11,1,-13,-18,-24,-27,-9,-20,-14
-4,-15,-11,9,3,-13,-18,-24,-27,-10,-20,-14
-2,-16,-14,9,6,-15,-19,-24,-28,-10,-20,-14
-5,-19,-14,12,4,-17,-19,-24,-28,-10,-20,-14
-7,-21,-14,14,3,-18,-18,-23,-27,-9,-19,-12
-6,-19,-13,12,3,-16,-17,-23,-26,-9,-19,-12
-5,-17,-12,11,3,-15,-16,-23,-25,-8,-18,-11
-2,-13,-11,7,4,-12,-14,-21,-23,-7,-17,-9
-1,-10,-9,5,4,-10,-13,-20,-23,-7,-17,-8
-2,-10,-8,6,3,-9,-13,-20,-23,-7,-18,-8
-3,-10,-7,6,2,-9,-13,-20,-23,-7,-18,-9
-3,-9,-6,6,1,-8,-12,-19,-23,-5,-17,-9
0,-3,-3,1,1,-3,-9,-16,-21,-3,-14,-7
0,-1,-1,0,0,-1,-7,-14,-20,-2,-14,-6
-1,-2,-1,1,0,-2,-7,-15,-20,-2,-14,-6
0,-3,-3,1,1,-3,-6,-14,-21,-3,-15,-7
0,-3,-3,1,1,-3,-4,-13,-20,-3,-14,-7
2,0,-2,-1,2,-1,-1,-13,-19,-2,-14,-6
6,5,-1,-5,4,2,0,-13,-19,-2,-13,-6
6,6,0,-6,3,3,0,-13,-19,-2,-14,-7
3,5,2,-4,1,4,0,-14,-19,-3,-15,-8
2,5,3,-3,0,4,-1,-14,-18,-2,-14,-7
-1,4,5,-1,-3,4,-2,-15,-19,-3,-14,-6
-1,5,6,-2,-3,5,-5,-16,-21,-2,-14,-5
0,8,8,-4,-4,8,-7,-17,-22,-2,-13,-4
0,8,8,-4,-4,8,-11,-18,-24,-2,-13,-5
-2,5,7,-1,-4,6,-14,-21,-27,-4,-15,-7
-3,4,7,0,-5,5,-16,-23,-28,-5,-16,-7
-2,5,7,-1,-4,6,-18,-23,-28,-4,-15,-8
-4,3,7,0,-5,5,-21,-26,-29,-5,-16,-9
-5,2,7,1,-6,4,-24,-29,-31,-7,-18,-11
-5,3,8,1,-6,5,-27,-31,-31,-8,-18,-11
-6,4,10,1,-8,7,-29,-32,-30,-7,-17,-9
-6,7,13,0,-9,10,-30,-31,-29,-5,-14,-5
-5,8,13,-1,-9,10,-30,-30,-29,-3,-13,-4
-3,8,11,-2,-7,9,-30,-30,-28,-2,-12,-2
1,9,8,-5,-3,9,-30,-30,-28,-1,-11,-2
6,8,2,-7,2,5,-31,-29,-28,-1,-11,-2
6,6,0,-6,3,3,-31,-29,-27,0,-10,-1
2,4,2,-3,0,3,-31,-27,-25,0,-9,-1
1,2,1,-1,0,2,-32,-27,-24,0,-9,-1
3,1,-2,-2,3,0,-32,-26,-22,0,-9,-1
6,1,-5,-3,6,-2,-31,-24,-20,1,-7,0
7,1,-6,-4,7,-2,-30,-22,-19,2,-8,0
5,-1,-6,-2,5,-3,-28,-22,-19,2,-7,1
3,-4,-7,0,5,-5,-26,-21,-19,3,-7,1
3,-7,-10,2,6,-8,-24,-22,-20,2,-9,0
2,-7,-9,2,5,-8,-22,-21,-20,2,-9,0
2,-8,-10,3,6,-9,-22,-22,-20,0,-11,-1
1,-8,-9,3,5,-8,-22,-23,-21,-1,-13,-4
0,-10,-10,5,5,-10,-22,-23,-21,-2,-14,-6
-2,-13,-11,7,4,-12,-24,-25,-23,-5,-17,-8
-2,-14,-12,8,5,-13,-24,-26,-25,-6,-18,-10
-1,-15,-14,8,6,-15,-24,-27,-27,-8,-20,-12
-2,-16,-14,9,6,-15,-24,-28,-29,-9,-21,-14
0,-17,-17,8,8,-17,-23,-29,-30,-11,-22,-15
-3,-21,-18,12,7,-20,-24,-30,-32,-12,-24,-16
-7,-26,-19,16,6,-23,-24,-31,-34,-14,-25,-18
-5,-27,-22,16,8,-25,-25,-30,-33,-13,-25,-18
-4,-27,-23,15,9,-25,-25,-30,-33,-14,-25,-17
-2,-26,-24,14,11,-25,-26,-31,-33,-14,-26,-17
0,-24,-24,12,12,-24,-26,-30,-32,-14,-25,-16
1,-21,-22,10,11,-21,-25,-30,-31,-14,-24,-16
2,-20,-22,9,12,-21,-25,-30,-31,-14,-23,-16
1,-20,-21,9,11,-20,-24,-29,-30,-14,-23,-16
1,-20,-21,9,11,-20,-24,-29,-31,-14,-24,-16
0,-20,-20,10,10,-20,-24,-30,-31,-15,-24,-16
0,-21,-21,10,10,-21,-24,-29,-31,-13,-24,-16
1,-19,-20,9,10,-19,-22,-28,-30,-12,-23,-15
1,-19,-20,9,10,-19,-21,-26,-29,-12,-22,-15
-2,-22,-20,12,9,-21,-21,-26,-29,-11,-22,-15
-4,-23,-19,13,7,-21,-21,-26,-29,-11,-22,-15
-5,-24,-19,14,7,-22,-21,-26,-30,-12,-22,-15
-6,-24,-18,15,6,-21,-21,-26,-30,-13,-23,-16
-7,-25,-18,16,5,-22,-22,-27,-30,-13,-23,-16
-9,-26,-17,17,4,-22,-23,-28,-30,-14,-24,-17
-9,-27,-18,18,4,-23,-23,-28,-30,-14,-25,-16
-8,-26,-18,17,5,-22,-23,-27,-29,-14,-24,-16
-8,-27,-19,17,5,-23,-24,-27,-30,-14,-25,-16
-7,-28,-21,17,7,-25,-24,-28,-31,-16,-26,-18
-4,-27,-23,15,9,-25,-24,-28,-31,-16,-26,-18
-2,-26,-24,14,11,-25,-24,-28,-31,-16,-27,-19
2,-26,-28,12,15,-27,-24,-27,-30,-14,-26,-19
4,-26,-30,11,17,-28,-24,-26,-28,-12,-24,-18
1,-28,-29,13,15,-28,-25,-25,-25,-10,-22,-16
-2,-28,-26,15,12,-27,-22,-22,-20,-6,-19,-13
1,-22,-23,10,12,-22,-19,-17,-15,-2,-16,-10
3,-16,-19,6,11,-17,-12,-6,-5,6,-10,-4
3,-7,-10,2,6,-8,0,17,17,25,4,8
8,3,-5,-5,7,-1,11,44,46,51,24,24
14,18,4,-16,5,11,22,67,75,82,48,45
14,34,20,-24,-3,27,34,85,104,120,80,72
16,52,36,-34,-10,44,47,98,135,161,115,102
20,74,54,-47,-17,64,54,109,166,204,152,134
23,99,76,-61,-26,88,52,112,196,249,193,171
33,125,92,-79,-29,109,38,106,221,293,235,209
48,148,100,-98,-26,124,17,94,239,331,271,242
63,161,98,-112,-17,130,-4,82,253,359,298,267
77,165,88,-121,-5,127,-26,71,261,374,312,280
87,165,78,-126,5,122,-54,47,248,365,309,279
90,160,70,-125,10,115,-88,11,211,329,285,262
82,149,67,-115,8,108,-123,-41,140,258,234,224
63,131,68,-97,-2,100,-153,-100,50,167,166,172
49,98,49,-73,0,74,-173,-150,-29,87,103,122
41,61,20,-51,11,41,-185,-184,-89,24,53,80
33,31,-2,-32,18,15,-186,-202,-128,-21,13,45
23,5,-18,-14,21,-6,-180,-204,-148,-51,-16,18
12,-13,-25,0,18,-19,-169,-198,-156,-70,-38,-4
5,-24,-29,9,17,-26,-155,-183,-153,-78,-53,-20
1,-28,-29,13,15,-28,-137,-162,-141,-77,-58,-28
0,-29,-29,14,14,-29,-118,-138,-123,-70,-58,-32
-2,-29,-27,15,12,-28,-99,-114,-102,-60,-55,-32
-1,-27,-26,14,12,-27,-80,-92,-82,-49,-50,-30
0,-26,-26,13,13,-26,-64,-74,-66,-41,-46,-28
-1,-26,-25,13,12,-26,-51,-61,-56,-37,-44,-28
-3,-26,-23,14,10,-25,-40,-50,-48,-33,-41,-26
-3,-24,-21,13,9,-23,-31,-41,-42,-29,-38,-24
-2,-22,-20,12,9,-21,-23,-34,-38,-26,-35,-22
-1,-19,-18,10,8,-19,-18,-27,-35,-24,-33,-20
1,-16,-17,7,9,-16,-14,-21,-31,-20,-30,-18
-1,-17,-16,9,7,-17,-11,-17,-27,-18,-30,-18
-10,-25,-15,17,2,-20,-11,-16,-26,-20,-31,-20
-15,-29,-14,22,-1,-22,-9,-14,-24,-19,-31,-21
-15,-28,-13,21,-1,-21,-6,-11,-21,-17,-31,-21
-14,-26,-12,20,-1,-19,-3,-8,-18,-15,-30,-19
-12,-24,-12,18,0,-18,0,-6,-16,-14,-29,-18
-11,-23,-12,17,0,-18,0,-5,-15,-14,-29,-18
-10,-23,-13,16,1,-18,0,-4,-15,-13,-28,-17
-10,-23,-13,16,1,-18,0,-3,-15,-13,-28,-17
-10,-24,-14,17,2,-19,0,-3,-16,-13,-27,-18
-8,-23,-15,15,3,-19,0,-1,-14,-12,-25,-18
-4,-19,-15,11,5,-17,3,0,-13,-11,-25,-18
-4,-19,-15,11,5,-17,4,0,-12,-11,-25,-18
-5,-20,-15,12,5,-18,4,0,-12,-11,-25,-19
-5,-20,-15,12,5,-18,4,1,-11,-10,-25,-19
-7,-20,-13,13,3,-17,4,1,-11,-9,-25,-18
-8,-20,-12,14,2,-16,5,2,-11,-7,-25,-18
-9,-21,-12,15,1,-17,4,3,-12,-7,-25,-18
-12,-23,-11,17,-1,-17,4,2,-12,-7,-26,-18
-13,-23,-10,18,-2,-17,4,2,-12,-6,-26,-17
-11,-22,-11,16,0,-17,4,3,-11,-5,-24,-17
-11,-21,-10,16,-1,-16,5,4,-11,-6,-24,-17
-11,-24,-13,17,1,-19,4,3,-11,-7,-24,-17
-13,-25,-12,19,-1,-19,4,3,-11,-8,-23,-17
-10,-23,-13,16,1,-18,6,5,-9,-8,-22,-16
-10,-21,-11,15,0,-16,7,6,-9,-8,-21,-16
-11,-22,-11,16,0,-17,7,6,-8,-7,-21,-16
-9,-20,-11,14,1,-16,8,7,-7,-7,-20,-16
-9,-20,-11,14,1,-16,7,8,-7,-7,-20,-16
-8,-19,-11,13,1,-15,7,8,-7,-8,-20,-16
-7,-18,-11,12,2,-15,6,9,-6,-8,-20,-16
-8,-19,-11,13,1,-15,6,9,-6,-8,-20,-17
-9,-19,-10,14,0,-15,6,9,-5,-7,-21,-16
-7,-18,-11,12,2,-15,8,11,-4,-5,-20,-15
-8,-18,-10,13,1,-14,9,11,-4,-4,-20,-16
-7,-17,-10,12,1,-14,10,12,-3,-3,-19,-15
-6,-17,-11,11,2,-14,10,13,-3,-3,-19,-15
-6,-16,-10,11,2,-13,11,14,-3,-3,-19,-15
-6,-16,-10,11,2,-13,11,15,-3,-3,-19,-15
-8,-17,-9,12,0,-13,10,15,-3,-4,-19,-15
-11,-19,-8,15,-2,-14,10,14,-3,-5,-20,-15
-11,-19,-8,15,-2,-14,10,15,-2,-4,-19,-14
-11,-18,-7,14,-2,-13,11,17,-1,-4,-18,-13
-14,-21,-7,17,-4,-14,11,17,-1,-5,-19,-15
-15,-22,-7,18,-4,-15,11,17,-1,-5,-19,-16
-18,-25,-7,21,-6,-16,9,16,-2,-6,-19,-17
-20,-28,-8,24,-6,-18,9,16,-3,-7,-21,-19
-20,-28,-8,24,-6,-18,9,16,-3,-7,-23,-19
-19,-27,-8,23,-6,-18,10,17,-2,-6,-23,-18
-18,-25,-7,21,-6,-16,11,19,-2,-5,-23,-17
-18,-25,-7,21,-6,-16,11,20,-1,-5,-23,-17
-17,-24,-7,20,-5,-16,12,21,0,-5,-22,-16
-18,-26,-8,22,-5,-17,10,22,0,-5,-21,-16
-17,-26,-9,21,-4,-18,10,22,1,-4,-21,-15
-16,-26,-10,21,-3,-18,11,24,2,-4,-20,-15
-16,-26,-10,21,-3,-18,12,25,3,-3,-20,-14
-17,-26,-9,21,-4,-18,13,25,4,-4,-19,-14
-17,-27,-10,22,-4,-19,13,26,5,-4,-19,-14
-15,-25,-10,20,-3,-18,14,27,6,-3,-18,-13
-15,-24,-9,19,-3,-17,15,28,7,-2,-18,-12
-13,-21,-8,17,-3,-15,16,30,8,0,-17,-11
-11,-17,-6,14,-3,-12,18,33,10,0,-16,-10
-9,-16,-7,12,-1,-12,18,35,11,0,-15,-10
-7,-17,-10,12,1,-14,16,35,11,0,-16,-10
-9,-19,-10,14,0,-15,16,36,11,0,-15,-9
-10,-18,-8,14,-1,-13,17,38,13,1,-13,-7
-11,-17,-6,14,-3,-12,18,39,15,2,-12,-6
-8,-14,-6,11,-1,-10,19,40,17,3,-12,-5
-7,-13,-6,10,-1,-10,19,41,18,4,-12,-5
-8,-14,-6,11,-1,-10,20,42,19,5,-11,-5
-8,-14,-6,11,-1,-10,20,44,20,5,-11,-5
-6,-12,-6,9,0,-9,22,46,21,6,-10,-3
-8,-14,-6,11,-1,-10,23,48,22,7,-9,-3
-11,-16,-5,13,-3,-11,23,49,22,7,-8,-2
-13,-18,-5,15,-4,-12,24,51,25,9,-7,-1
-13,-19,-6,16,-4,-13,24,54,27,11,-6,0
-12,-18,-6,15,-3,-12,24,56,29,13,-6,0
-13,-18,-5,15,-4,-12,24,58,31,14,-6,0
-12,-16,-4,14,-4,-10,24,61,32,14,-5,0
-8,-11,-3,9,-3,-7,26,64,35,16,-3,2
-6,-10,-4,8,-1,-7,27,66,37,17,-3,4
-7,-11,-4,9,-2,-8,28,68,39,17,-2,3
-8,-12,-4,10,-2,-8,29,70,40,18,-1,3
-8,-12,-4,10,-2,-8,30,72,42,19,0,3
-7,-11,-4,9,-2,-8,32,75,43,20,1,4
-6,-10,-4,8,-1,-7,32,77,46,22,2,5
-6,-9,-3,7,-2,-6,33,80,48,23,4,7
-7,-9,-2,8,-3,-6,33,82,50,25,4,8
-8,-8,0,8,-4,-4,34,84,53,26,5,8
-6,-7,-1,6,-3,-4,35,87,55,27,4,9
-5,-5,0,5,-3,-3,35,89,57,28,5,9
-4,-4,0,4,-2,-2,36,93,60,28,6,9
0,0,0,0,0,0,38,97,63,30,8,10
4,3,-1,-3,3,1,40,101,67,32,10,12
5,4,-1,-4,3,2,42,105,71,35,12,15
6,6,0,-6,3,3,44,108,75,38,14,17
4,4,0,-4,2,2,42,109,77,40,16,18
-1,0,1,0,-1,0,39,109,78,40,16,17
-5,-3,2,4,-4,-1,38,111,80,42,17,17
-6,-3,3,4,-5,0,38,113,82,44,19,19
-5,-1,4,3,-5,1,39,115,86,47,22,21
-2,2,4,0,-3,3,40,117,89,49,24,23
-1,4,5,-1,-3,4,41,119,92,51,25,25
-2,3,5,0,-3,4,41,121,95,52,26,26
-4,2,6,1,-5,4,41,123,97,54,26,26
-5,2,7,1,-6,4,41,125,99,55,27,27
-3,4,7,0,-5,5,42,127,101,57,29,28
-3,4,7,0,-5,5,42,129,103,59,31,29
-4,3,7,0,-5,5,41,130,105,60,32,29
-3,4,7,0,-5,5,41,131,107,62,33,30
0,8,8,-4,-4,8,42,133,109,65,35,31
3,10,7,-6,-2,9,42,134,111,66,37,33
4,10,6,-7,-1,8,41,134,112,67,38,33
3,11,8,-7,-2,10,40,135,113,68,38,34
4,11,7,-7,-1,9,40,135,114,69,38,36
8,15,7,-11,1,11,41,136,116,71,40,38
10,16,6,-13,2,11,42,136,116,72,41,40
9,15,6,-12,2,11,41,134,115,72,40,40
8,15,7,-11,1,11,41,133,115,72,40,40
6,17,11,-11,-2,14,39,131,114,72,40,41
5,16,11,-10,-3,14,37,128,112,71,40,41
3,14,11,-8,-4,13,34,124,110,69,38,40
-1,10,11,-4,-6,10,30,119,107,66,37,37
-3,8,11,-2,-7,9,27,115,104,64,36,37
-4,7,11,-1,-7,9,24,110,101,63,35,36
-3,9,12,-3,-7,10,23,106,99,62,35,35
0,11,11,-5,-5,11,21,102,96,61,34,36
1,12,11,-6,-5,12,19,97,92,60,35,36
0,11,11,-5,-5,11,17,91,87,58,34,35
-2,10,12,-4,-7,11,15,85,82,56,32,34
-3,10,13,-3,-8,11,13,80,77,54,31,33
-1,13,14,-6,-7,13,12,76,74,52,31,33
0,15,15,-7,-7,15,9,71,70,50,31,33
4,17,13,-10,-4,15,7,65,66,48,30,32
7,19,12,-13,-2,16,6,60,62,46,29,31
7,18,11,-12,-2,15,4,54,56,43,27,30
4,14,10,-9,-3,12,2,48,49,39,23,29
2,10,8,-6,-3,9,1,43,44,36,21,27
1,9,8,-5,-3,9,1,39,38,33,19,25
0,8,8,-4,-4,8,-1,34,33,29,16,23
-2,6,8,-2,-5,7,-3,28,27,26,13,20
-4,5,9,0,-6,7,-5,24,22,22,12,18
-3,5,8,-1,-5,6,-6,20,19,20,11,17
-2,4,6,-1,-4,5,-7,17,16,17,9,16
-1,3,4,-1,-2,3,-8,15,12,14,7,14
-1,1,2,0,-1,1,-10,11,9,11,4,13
-3,-2,1,2,-2,-1,-11,8,5,8,2,11
-5,-4,1,4,-3,-2,-12,5,2,5,0,9
-7,-6,1,6,-4,-3,-14,2,-1,4,-1,7
-8,-7,1,7,-5,-3,-14,1,-4,3,-3,6
-9,-8,1,8,-5,-4,-14,0,-7,0,-5,4
-11,-9,2,10,-7,-4,-14,-2,-9,0,-7,2
-11,-9,2,10,-7,-4,-14,-5,-10,-2,-8,1
-13,-11,2,12,-8,-5,-15,-7,-13,-5,-9,0
-13,-15,-2,14,-6,-9,-17,-10,-15,-7,-10,-1
-15,-19,-4,17,-6,-12,-18,-11,-16,-8,-11,-2
-17,-21,-4,19,-7,-13,-18,-11,-17,-8,-11,-2
-16,-21,-5,18,-6,-13,-17,-12,-18,-8,-12,-3
-13,-19,-6,16,-4,-13,-16,-13,-18,-8,-13,-3
-11,-16,-5,13,-3,-11,-16,-14,-19,-9,-14,-4
-9,-14,-5,11,-2,-10,-16,-14,-18,-9,-14,-4
-6,-12,-6,9,0,-9,-16,-13,-18,-9,-13,-4
-7,-14,-7,10,0,-11,-17,-15,-19,-11,-14,-5
-9,-16,-7,12,-1,-12,-17,-16,-21,-13,-15,-5
-10,-18,-8,14,-1,-13,-17,-17,-22,-15,-16,-6
-9,-17,-8,13,-1,-13,-15,-15,-22,-14,-14,-5
-6,-13,-7,9,0,-10,-13,-14,-21,-12,-13,-5
-9,-16,-7,12,-1,-12,-13,-15,-22,-13,-15,-8
-12,-19,-7,15,-3,-13,-15,-17,-23,-14,-17,-10
-15,-21,-6,18,-5,-14,-15,-17,-24,-15,-17,-12
-18,-25,-7,21,-6,-16,-17,-18,-25,-17,-18,-14
-23,-30,-7,26,-8,-19,-19,-19,-27,-19,-19,-15
-25,-32,-7,28,-9,-20,-20,-20,-28,-21,-20,-16
-25,-33,-8,29,-9,-21,-20,-20,-29,-22,-21,-16
-23,-31,-8,27,-8,-20,-20,-20,-31,-23,-22,-17
-19,-28,-9,23,-5,-19,-18,-20,-31,-23,-23,-17
-18,-26,-8,22,-5,-17,-17,-20,-31,-22,-23,-18
-17,-24,-7,20,-5,-16,-16,-19,-31,-23,-24,-19
-15,-22,-7,18,-4,-15,-16,-19,-30,-23,-24,-18
-13,-22,-9,17,-2,-16,-15,-19,-29,-24,-25,-18
-15,-25,-10,20,-3,-18,-16,-19,-29,-25,-25,-18
-19,-28,-9,23,-5,-19,-17,-20,-30,-26,-27,-19
-23,-31,-8,27,-8,-20,-18,-20,-31,-27,-27,-20
-23,-31,-8,27,-8,-20,-17,-19,-31,-27,-27,-19
-21,-29,-8,25,-7,-19,-16,-19,-31,-26,-26,-19
-19,-26,-7,22,-6,-17,-16,-19,-31,-27,-26,-19
-21,-26,-5,23,-8,-16,-16,-19,-32,-28,-27,-20
-20,-25,-5,22,-8,-15,-16,-19,-32,-28,-27,-20
-21,-25,-4,23,-9,-15,-16,-19,-32,-28,-28,-21
-21,-27,-6,24,-8,-17,-16,-19,-32,-28,-29,-22
-19,-26,-7,22,-6,-17,-15,-18,-32,-28,-28,-21
-17,-24,-7,20,-5,-16,-15,-17,-31,-27,-27,-20
-14,-22,-8,18,-3,-15,-14,-16,-31,-27,-25,-19
-14,-22,-8,18,-3,-15,-14,-16,-31,-27,-25,-19
-16,-23,-7,19,-5,-15,-14,-17,-31,-27,-26,-19
-17,-23,-6,20,-6,-15,-14,-17,-32,-27,-26,-19
-19,-22,-3,20,-8,-13,-13,-15,-31,-26,-25,-17
-23,-25,-2,24,-11,-14,-13,-16,-31,-27,-26,-18
-23,-27,-4,25,-10,-16,-14,-16,-31,-27,-28,-18
-21,-26,-5,23,-8,-16,-13,-15,-31,-27,-28,-18
-22,-27,-5,24,-9,-16,-14,-16,-32,-28,-28,-19
-24,-30,-6,27,-9,-18,-15,-17,-33,-30,-29,-20
-23,-29,-6,26,-9,-18,-16,-17,-33,-29,-28,-21
-17,-24,-7,20,-5,-16,-15,-16,-32,-28,-26,-20
-13,-21,-8,17,-3,-15,-15,-16,-32,-28,-25,-20
-15,-22,-7,18,-4,-15,-17,-17,-33,-28,-25,-20
-18,-23,-5,20,-7,-14,-18,-18,-32,-28,-25,-19
-17,-22,-5,19,-6,-14,-17,-17,-31,-27,-24,-18
-17,-21,-4,19,-7,-13,-16,-16,-30,-26,-23,-16
-16,-20,-4,18,-6,-12,-15,-15,-29,-24,-22,-15
-16,-19,-3,17,-7,-11,-15,-15,-28,-23,-22,-15
-16,-20,-4,18,-6,-12,-15,-15,-29,-23,-22,-15
-17,-21,-4,19,-7,-13,-16,-16,-29,-24,-23,-16
-17,-20,-3,18,-7,-12,-15,-15,-28,-24,-22,-16
-17,-19,-2,18,-8,-11,-14,-14,-28,-22,-21,-15
-17,-16,1,16,-9,-8,-14,-13,-27,-21,-20,-14
-17,-16,1,16,-9,-8,-14,-13,-27,-21,-20,-14
-17,-17,0,17,-9,-9,-15,-15,-28,-22,-21,-14
-19,-18,1,18,-10,-9,-15,-15,-28,-22,-21,-14
-17,-16,1,16,-9,-8,-15,-15,-27,-21,-20,-13
-14,-15,-1,14,-7,-8,-15,-15,-27,-21,-19,-13
-14,-16,-2,15,-6,-9,-15,-16,-27,-21,-19,-13
-17,-20,-3,18,-7,-12,-16,-16,-27,-21,-19,-14
-17,-21,-4,19,-7,-13,-16,-16,-27,-20,-18,-14
-14,-20,-6,17,-4,-13,-15,-15,-27,-19,-17,-12
-14,-19,-5,16,-5,-12,-15,-15,-27,-19,-17,-12
-12,-18,-6,15,-3,-12,-14,-15,-27,-19,-17,-11
-12,-17,-5,14,-4,-11,-14,-16,-27,-19,-17,-11
-13,-18,-5,15,-4,-12,-15,-16,-27,-19,-18,-12
-15,-17,-2,16,-7,-10,-15,-15,-25,-17,-18,-12
-15,-17,-2,16,-7,-10,-16,-15,-25,-16,-18,-12
-14,-16,-2,15,-6,-9,-16,-14,-24,-15,-17,-11
-15,-18,-3,16,-6,-11,-17,-15,-25,-15,-17,-12
-17,-21,-4,19,-7,-13,-19,-17,-26,-16,-18,-14
-19,-22,-3,20,-8,-13,-20,-17,-26,-16,-18,-13
-19,-22,-3,20,-8,-13,-20,-17,-26,-16,-17,-13
-18,-21,-3,19,-8,-12,-20,-19,-27,-15,-16,-12
-18,-21,-3,19,-8,-12,-20,-19,-26,-15,-15,-11
-19,-19,0,19,-10,-10,-19,-19,-25,-14,-14,-10
-18,-17,1,17,-10,-8,-18,-19,-24,-14,-14,-10
-19,-18,1,18,-10,-9,-19,-19,-24,-15,-14,-11
-18,-18,0,18,-9,-9,-19,-19,-24,-15,-14,-11
-14,-14,0,14,-7,-7,-18,-18,-23,-13,-15,-10
-7,-9,-2,8,-3,-6,-15,-16,-22,-11,-13,-8
-6,-8,-2,7,-2,-5,-15,-16,-23,-11,-14,-8
-8,-11,-3,9,-3,-7,-16,-17,-24,-11,-14,-8
-12,-15,-3,13,-5,-9,-16,-18,-25,-11,-15,-8
-15,-18,-3,16,-6,-11,-17,-19,-26,-11,-15,-9
-16,-19,-3,17,-7,-11,-17,-19,-26,-12,-15,-9
-17,-20,-3,18,-7,-12,-19,-20,-27,-12,-14,-10
-17,-20,-3,18,-7,-12,-19,-20,-27,-12,-14,-10
-17,-19,-2,18,-8,-11,-19,-20,-27,-13,-14,-11
-14,-18,-4,16,-5,-11,-20,-21,-27,-14,-15,-12
-17,-21,-4,19,-7,-13,-21,-21,-28,-15,-15,-14
-20,-24,-4,22,-8,-14,-22,-22,-29,-16,-16,-15
-20,-24,-4,22,-8,-14,-21,-21,-29,-15,-16,-15
-16,-20,-4,18,-6,-12,-19,-20,-27,-13,-14,-14
-14,-17,-3,15,-6,-10,-18,-20,-26,-12,-14,-13
-14,-17,-3,15,-6,-10,-18,-21,-26,-12,-15,-13
-14,-18,-4,16,-5,-11,-20,-22,-26,-13,-17,-14
-12,-16,-4,14,-4,-10,-18,-22,-26,-14,-16,-13
-10,-14,-4,12,-3,-9,-17,-21,-26,-14,-15,-12
-10,-13,-3,11,-4,-8,-17,-21,-26,-14,-14,-12
-13,-15,-2,14,-6,-9,-17,-22,-26,-14,-14,-12
-14,-17,-3,15,-6,-10,-19,-22,-28,-15,-15,-13
-16,-19,-3,17,-7,-11,-20,-23,-28,-15,-16,-13
-18,-22,-4,20,-7,-13,-21,-23,-28,-15,-16,-14
-22,-27,-5,24,-9,-16,-23,-24,-30,-15,-18,-15
-25,-29,-4,27,-11,-17,-23,-25,-31,-16,-19,-16
-23,-28,-5,25,-9,-17,-23,-25,-31,-16,-20,-17
-20,-24,-4,22,-8,-14,-21,-24,-30,-15,-19,-16
-15,-19,-4,17,-6,-12,-20,-23,-29,-15,-17,-15
-15,-16,-1,15,-7,-9,-19,-23,-29,-16,-17,-15
-15,-16,-1,15,-7,-9,-20,-24,-29,-16,-18,-17
-17,-18,-1,17,-8,-10,-21,-25,-30,-18,-18,-18
-15,-17,-2,16,-7,-10,-20,-24,-29,-17,-16,-17
-13,-17,-4,15,-5,-11,-20,-24,-28,-16,-17,-16
-11,-16,-5,13,-3,-11,-20,-24,-28,-15,-15,-15
-11,-16,-5,13,-3,-11,-20,-24,-28,-14,-15,-15
-13,-20,-7,16,-3,-14,-21,-25,-29,-15,-16,-16
-16,-22,-6,19,-5,-14,-21,-26,-30,-16,-18,-18
-18,-23,-5,20,-7,-14,-21,-26,-31,-17,-19,-19
-19,-24,-5,21,-7,-15,-21,-27,-32,-18,-20,-20
-18,-23,-5,20,-7,-14,-20,-26,-31,-18,-20,-19
-17,-21,-4,19,-7,-13,-19,-26,-31,-17,-19,-19
-18,-22,-4,20,-7,-13,-19,-26,-31,-17,-19,-19
-21,-25,-4,23,-9,-15,-20,-26,-31,-18,-19,-20
-22,-27,-5,24,-9,-16,-22,-27,-32,-19,-19,-20
-22,-27,-5,24,-9,-16,-23,-27,-32,-18,-19,-20
-23,-27,-4,25,-10,-16,-24,-28,-33,-19,-20,-20
-20,-26,-6,23,-7,-16,-23,-28,-33,-18,-20,-21
-17,-22,-5,19,-6,-14,-21,-27,-32,-18,-20,-20
-14,-18,-4,16,-5,-11,-21,-27,-31,-17,-20,-20
-12,-18,-6,15,-3,-12,-20,-26,-31,-17,-20,-20
-12,-18,-6,15,-3,-12,-20,-27,-32,-17,-21,-21
-13,-19,-6,16,-4,-13,-21,-26,-33,-17,-22,-21
-14,-18,-4,16,-5,-11,-20,-25,-32,-16,-20,-19
-12,-18,-6,15,-3,-12,-20,-24,-31,-15,-19,-18
-12,-17,-5,14,-4,-11,-19,-24,-31,-15,-19,-18
-12,-17,-5,14,-4,-11,-18,-24,-31,-15,-19,-18
-12,-18,-6,15,-3,-12,-18,-24,-31,-15,-19,-18
-12,-19,-7,15,-3,-13,-19,-25,-32,-17,-20,-19
-10,-18,-8,14,-1,-13,-18,-25,-32,-17,-20,-19
-9,-17,-8,13,-1,-13,-17,-25,-31,-16,-19,-19
-10,-18,-8,14,-1,-13,-17,-25,-31,-16,-19,-19
-11,-18,-7,14,-2,-13,-18,-25,-31,-17,-19,-20
-12,-18,-6,15,-3,-12,-18,-24,-31,-17,-19,-19
-13,-18,-5,15,-4,-12,-19,-24,-31,-17,-19,-20
-13,-18,-5,15,-4,-12,-19,-25,-31,-16,-19,-21
-15,-20,-5,17,-5,-13,-21,-26,-32,-17,-20,-22
-14,-20,-6,17,-4,-13,-21,-26,-32,-17,-19,-22
-14,-21,-7,17,-4,-14,-21,-27,-32,-17,-20,-22
-14,-22,-8,18,-3,-15,-21,-27,-32,-18,-20,-22
-14,-22,-8,18,-3,-15,-21,-28,-33,-18,-20,-22
-14,-21,-7,17,-4,-14,-22,-29,-33,-19,-22,-22
-13,-19,-6,16,-4,-13,-21,-27,-32,-18,-21,-21
-12,-18,-6,15,-3,-12,-20,-27,-32,-17,-20,-20
-16,-22,-6,19,-5,-14,-21,-27,-33,-17,-21,-20
-15,-21,-6,18,-5,-14,-21,-28,-32,-17,-21,-20
-13,-19,-6,16,-4,-13,-21,-28,-33,-16,-20,-20
-10,-15,-5,12,-3,-10,-19,-26,-31,-14,-17,-19
-7,-13,-6,10,-1,-10,-19,-26,-31,-15,-17,-19
-10,-16,-6,13,-2,-11,-19,-26,-33,-16,-17,-20
-14,-19,-5,16,-5,-12,-20,-26,-34,-18,-18,-21
-17,-22,-5,19,-6,-14,-20,-27,-35,-18,-19,-22
-17,-23,-6,20,-6,-15,-21,-28,-35,-18,-19,-22
-16,-22,-6,19,-5,-14,-20,-28,-34,-17,-19,-22
-15,-21,-6,18,-5,-14,-20,-28,-33,-16,-19,-21
-15,-22,-7,18,-4,-15,-21,-29,-33,-17,-20,-22
-15,-21,-6,18,-5,-14,-22,-30,-33,-17,-21,-23
-17,-23,-6,20,-6,-15,-23,-30,-34,-18,-22,-23
-18,-25,-7,21,-6,-16,-24,-30,-35,-19,-23,-24
-19,-26,-7,22,-6,-17,-24,-30,-35,-20,-23,-24
-16,-24,-8,20,-4,-16,-23,-29,-35,-20,-22,-24
-13,-21,-8,17,-3,-15,-21,-28,-34,-20,-21,-23
-11,-19,-8,15,-2,-14,-20,-27,-33,-19,-19,-22
-11,-19,-8,15,-2,-14,-19,-26,-33,-18,-19,-21
-12,-19,-7,15,-3,-13,-18,-26,-33,-18,-19,-21
-14,-19,-5,16,-5,-12,-18,-27,-33,-17,-19,-21
-16,-19,-3,17,-7,-11,-18,-28,-33,-18,-19,-22
-15,-18,-3,16,-6,-11,-19,-28,-33,-18,-19,-22
-15,-18,-3,16,-6,-11,-19,-28,-33,-17,-19,-21
-12,-16,-4,14,-4,-10,-20,-28,-32,-15,-17,-20
-11,-15,-4,13,-4,-10,-20,-27,-31,-15,-16,-19
-12,-16,-4,14,-4,-10,-20,-28,-31,-15,-16,-19
-13,-17,-4,15,-5,-11,-21,-28,-32,-16,-17,-20
-12,-16,-4,14,-4,-10,-19,-27,-31,-16,-17,-19
-10,-14,-4,12,-3,-9,-18,-26,-31,-16,-17,-19
-7,-12,-5,9,-1,-9,-17,-26,-30,-16,-17,-19
-6,-11,-5,8,-1,-8,-16,-26,-30,-16,-18,-19
-9,-14,-5,11,-2,-10,-16,-26,-31,-16,-19,-20
-11,-17,-6,14,-3,-12,-17,-27,-31,-16,-19,-21
-13,-19,-6,16,-4,-13,-19,-28,-32,-17,-19,-22
-13,-20,-7,16,-3,-14,-19,-28,-32,-16,-19,-23
-13,-18,-5,15,-4,-12,-20,-28,-32,-16,-19,-22
-13,-17,-4,15,-5,-11,-21,-27,-32,-17,-20,-22
-10,-15,-5,12,-3,-10,-19,-26,-30,-16,-19,-21
-7,-13,-6,10,-1,-10,-18,-25,-29,-16,-18,-21
-9,-15,-6,12,-2,-11,-19,-25,-29,-16,-18,-21
-13,-20,-7,16,-3,-14,-20,-27,-31,-18,-19,-22
-16,-23,-7,19,-5,-15,-21,-29,-33,-19,-20,-23
-16,-21,-5,18,-6,-13,-21,-30,-33,-18,-19,-22
-15,-20,-5,17,-5,-13,-20,-29,-33,-17,-19,-22
-19,-24,-5,21,-7,-15,-21,-30,-34,-18,-20,-23
-20,-25,-5,22,-8,-15,-21,-30,-35,-20,-21,-25
-18,-23,-5,20,-7,-14,-21,-30,-34,-20,-21,-24
-16,-22,-6,19,-5,-14,-22,-29,-33,-21,-20,-24
-16,-22,-6,19,-5,-14,-23,-29,-33,-20,-20,-24
-17,-23,-6,20,-6,-15,-24,-29,-34,-20,-21,-24
-15,-22,-7,18,-4,-15,-23,-29,-33,-19,-21,-23
-14,-21,-7,17,-4,-14,-21,-29,-33,-19,-21,-23
-14,-21,-7,17,-4,-14,-21,-29,-33,-19,-21,-23
-14,-20,-6,17,-4,-13,-21,-29,-32,-17,-19,-23
-13,-20,-7,16,-3,-14,-21,-28,-32,-17,-18,-22
-13,-21,-8,17,-3,-15,-23,-28,-32,-18,-18,-22
-13,-20,-7,16,-3,-14,-23,-29,-32,-18,-17,-22
-12,-20,-8,16,-2,-14,-24,-29,-32,-18,-17,-23
-10,-17,-7,13,-2,-12,-23,-29,-31,-17,-17,-22
-9,-15,-6,12,-2,-11,-22,-28,-30,-15,-16,-22
-11,-16,-5,13,-3,-11,-22,-28,-31,-16,-17,-22
-14,-18,-4,16,-5,-11,-21,-27,-31,-16,-17,-22
-12,-16,-4,14,-4,-10,-19,-25,-30,-15,-16,-20
-11,-16,-5,13,-3,-11,-19,-25,-31,-16,-16,-20
-8,-14,-6,11,-1,-10,-18,-24,-31,-16,-16,-21
-6,-13,-7,9,0,-10,-18,-25,-31,-16,-16,-21
-7,-15,-8,11,0,-12,-18,-25,-31,-17,-16,-23
-9,-17,-8,13,-1,-13,-20,-27,-33,-18,-17,-24
-9,-17,-8,13,-1,-13,-21,-28,-33,-18,-17,-24
-11,-17,-6,14,-3,-12,-22,-28,-33,-18,-18,-23
-15,-20,-5,17,-5,-13,-23,-29,-33,-18,-19,-24
-16,-20,-4,18,-6,-12,-21,-28,-32,-18,-19,-24
-15,-18,-3,16,-6,-11,-20,-28,-31,-18,-18,-23
-14,-16,-2,15,-6,-9,-20,-27,-30,-17,-17,-23
-13,-16,-3,14,-5,-10,-21,-27,-30,-17,-16,-22
-12,-16,-4,14,-4,-10,-20,-26,-29,-16,-16,-22
-11,-15,-4,13,-4,-10,-19,-25,-28,-15,-15,-21
-11,-16,-5,13,-3,-11,-19,-25,-28,-14,-15,-20
-12,-16,-4,14,-4,-10,-18,-24,-28,-14,-15,-20
-12,-15,-3,13,-5,-9,-17,-24,-28,-14,-14,-20
-15,-16,-1,15,-7,-9,-17,-24,-29,-15,-15,-20
-14,-12,2,13,-8,-5,-15,-22,-28,-13,-14,-19
-12,-7,5,9,-9,-1,-11,-19,-26,-10,-12,-16
-12,-6,6,9,-9,0,-9,-18,-25,-9,-11,-16
-13,-8,5,10,-9,-2,-9,-18,-25,-10,-12,-17
-12,-8,4,10,-8,-2,-8,-17,-24,-10,-12,-17
-13,-10,3,11,-8,-4,-7,-17,-24,-11,-12,-18
-11,-9,2,10,-7,-4,-6,-17,-23,-12,-11,-17
-9,-6,3,7,-6,-2,-5,-16,-22,-12,-10,-17
-7,-4,3,5,-5,-1,-4,-16,-22,-12,-10,-16
-7,-2,5,4,-6,1,-4,-16,-22,-12,-10,-16
-9,-2,7,5,-8,2,-4,-17,-23,-12,-11,-17
-11,0,11,5,-11,5,-4,-18,-24,-12,-13,-18
-8,4,12,2,-10,8,-6,-19,-25,-11,-12,-17
-6,8,14,-1,-10,11,-7,-19,-25,-11,-11,-16
-8,6,14,1,-11,10,-9,-20,-27,-11,-11,-16
-10,4,14,3,-12,9,-12,-21,-29,-12,-12,-17
-11,3,14,4,-12,8,-13,-22,-30,-12,-12,-17
-14,1,15,6,-14,8,-16,-24,-30,-13,-12,-18
-16,0,16,8,-16,8,-20,-27,-31,-13,-13,-18
-17,-1,16,9,-17,7,-23,-29,-31,-13,-13,-18
-15,1,16,7,-15,8,-25,-29,-31,-13,-13,-17
-11,4,15,3,-13,9,-25,-29,-31,-12,-12,-16
-8,6,14,1,-11,10,-27,-30,-31,-11,-10,-15
-7,8,15,0,-11,11,-28,-30,-30,-10,-9,-14
-6,8,14,-1,-10,11,-29,-30,-29,-9,-7,-13
-5,9,14,-2,-9,11,-29,-30,-28,-8,-6,-11
-3,8,11,-2,-7,9,-31,-30,-28,-7,-5,-10
-1,7,8,-3,-4,7,-31,-31,-28,-7,-5,-10
-1,4,5,-1,-3,4,-32,-31,-27,-6,-4,-9
-2,4,6,-1,-4,5,-31,-31,-25,-5,-3,-9
-1,3,4,-1,-2,3,-31,-29,-23,-3,-3,-8
-1,2,3,0,-2,2,-30,-28,-22,-2,-2,-8
-1,0,1,0,-1,0,-30,-28,-22,-2,-2,-8
-3,-2,1,2,-2,-1,-30,-27,-23,-2,-3,-8
-1,-2,-1,1,0,-2,-29,-26,-23,-2,-3,-7
0,-3,-3,1,1,-3,-27,-24,-22,-2,-3,-7
-2,-4,-2,3,0,-3,-25,-23,-22,-3,-3,-8
-2,-4,-2,3,0,-3,-22,-23,-22,-5,-4,-10
-2,-7,-5,4,1,-6,-22,-24,-23,-6,-5,-11
-5,-12,-7,8,1,-10,-22,-26,-26,-9,-8,-14
-8,-16,-8,12,0,-12,-23,-28,-28,-11,-10,-15
-8,-16,-8,12,0,-12,-23,-29,-30,-13,-12,-17
-9,-18,-9,13,0,-14,-24,-30,-32,-15,-14,-19
-10,-20,-10,15,0,-15,-24,-31,-34,-17,-16,-22
-12,-22,-10,17,-1,-16,-25,-33,-36,-19,-18,-24
-13,-24,-11,18,-1,-18,-25,-34,-37,-20,-20,-25
-12,-24,-12,18,0,-18,-26,-34,-36,-20,-20,-26
-9,-23,-14,16,2,-19,-25,-33,-35,-20,-19,-25
-10,-25,-15,17,2,-20,-26,-33,-36,-20,-19,-25
-9,-25,-16,17,3,-21,-26,-33,-36,-20,-18,-24
-12,-26,-14,19,1,-20,-27,-33,-38,-20,-19,-25
-14,-27,-13,20,-1,-20,-27,-34,-38,-20,-19,-25
-15,-26,-11,20,-2,-19,-27,-34,-38,-20,-18,-24
-18,-29,-11,23,-4,-20,-27,-34,-38,-21,-19,-25
-20,-30,-10,25,-5,-20,-27,-34,-37,-21,-19,-26
-19,-31,-12,25,-4,-22,-27,-34,-37,-22,-20,-27
-18,-31,-13,24,-3,-22,-27,-34,-36,-21,-20,-28
-17,-31,-14,24,-2,-23,-27,-34,-36,-22,-21,-27
-16,-30,-14,23,-1,-22,-27,-34,-37,-22,-22,-27
-15,-30,-15,22,0,-23,-28,-34,-37,-22,-21,-27
-13,-27,-14,20,0,-21,-26,-32,-36,-20,-20,-26
-11,-24,-13,17,1,-19,-25,-32,-36,-20,-20,-25
-13,-25,-12,19,-1,-19,-25,-32,-36,-20,-20,-25
-13,-24,-11,18,-1,-18,-24,-32,-36,-20,-19,-25
-12,-23,-11,17,-1,-17,-24,-32,-36,-20,-19,-24
-11,-24,-13,17,1,-19,-24,-32,-35,-20,-19,-25
-10,-24,-14,17,2,-19,-24,-31,-34,-19,-18,-25
-9,-23,-14,16,2,-19,-23,-30,-34,-20,-18,-25
-8,-22,-14,15,3,-18,-23,-30,-34,-20,-18,-25
-8,-22,-14,15,3,-18,-23,-30,-34,-20,-18,-25
-10,-24,-14,17,2,-19,-24,-31,-35,-21,-18,-26
-10,-22,-12,16,1,-17,-24,-29,-33,-20,-18,-25
-9,-21,-12,15,1,-17,-23,-28,-30,-17,-16,-23
-10,-22,-12,16,1,-17,-23,-27,-28,-14,-15,-22
-9,-23,-14,16,2,-19,-22,-25,-26,-12,-14,-21
-10,-25,-15,17,2,-20,-22,-23,-24,-10,-12,-20
-10,-24,-14,17,2,-19,-19,-18,-19,-6,-10,-18
-7,-17,-10,12,1,-14,-8,-4,-7,2,-4,-13
-4,-9,-5,6,0,-7,6,18,13,16,7,-5
-3,1,4,1,-3,2,19,39,36,36,23,8
1,14,13,-7,-6,14,29,54,60,62,44,26
5,30,25,-17,-10,28,39,67,87,96,70,50
8,50,42,-29,-17,46,45,79,120,139,105,79
13,73,60,-43,-23,67,45,93,157,186,143,113
21,101,80,-61,-29,91,36,101,194,236,187,150
25,121,96,-73,-35,109,14,100,225,284,229,187
35,141,106,-88,-35,124,-12,93,249,325,268,221
52,159,107,-105,-27,133,-38,83,267,355,298,248
68,168,100,-118,-16,134,-63,74,280,372,317,265
81,173,92,-127,-5,133,-93,57,277,370,320,270
89,171,82,-130,4,127,-128,25,248,344,305,261
87,161,74,-124,7,118,-163,-24,187,285,264,233
77,146,69,-111,4,108,-194,-89,93,199,202,187
63,116,53,-89,5,85,-212,-146,5,115,140,138
53,84,31,-68,11,58,-218,-185,-63,52,90,96
45,52,7,-48,19,30,-215,-206,-110,5,51,60
33,24,-9,-28,21,8,-205,-212,-137,-30,19,30
21,5,-16,-13,19,-5,-189,-205,-148,-52,-5,4
12,-5,-17,-3,14,-11,-168,-187,-145,-63,-21,-12
8,-11,-19,1,13,-15,-146,-163,-133,-66,-29,-21
4,-13,-17,4,10,-15,-123,-136,-115,-62,-33,-26
1,-16,-17,7,9,-16,-101,-111,-96,-56,-34,-28
-1,-19,-18,10,8,-19,-81,-90,-79,-49,-33,-29
0,-16,-16,8,8,-16,-62,-72,-66,-41,-31,-28
-2,-18,-16,10,7,-17,-48,-59,-56,-34,-28,-28
-4,-19,-15,11,5,-17,-36,-49,-49,-30,-26,-27
-2,-15,-13,8,5,-14,-27,-40,-43,-26,-23,-26
-1,-11,-10,6,4,-11,-21,-34,-40,-24,-20,-25
-2,-11,-9,6,3,-10,-18,-30,-38,-24,-20,-25
-6,-13,-7,9,0,-10,-15,-27,-36,-25,-21,-25
-8,-15,-7,11,-1,-11,-12,-23,-33,-24,-22,-25
-11,-18,-7,14,-2,-13,-9,-19,-30,-23,-22,-26
-14,-19,-5,16,-5,-12,-6,-16,-27,-21,-23,-25
-15,-19,-4,17,-6,-12,-3,-13,-25,-19,-23,-25
-15,-20,-5,17,-5,-13,-1,-11,-23,-18,-23,-25
-13,-19,-6,16,-4,-13,0,-10,-22,-17,-22,-25
-14,-20,-6,17,-4,-13,0,-9,-22,-16,-22,-26
-14,-20,-6,17,-4,-13,0,-8,-22,-16,-21,-26
-10,-18,-8,14,-1,-13,1,-7,-21,-15,-20,-25
-6,-15,-9,10,1,-12,1,-5,-20,-14,-19,-24
-5,-13,-8,9,1,-11,2,-4,-19,-14,-18,-23
-6,-13,-7,9,0,-10,2,-3,-18,-15,-18,-24
-7,-13,-6,10,-1,-10,3,-2,-17,-14,-18,-23
-7,-14,-7,10,0,-11,4,0,-16,-13,-17,-23
-7,-13,-6,10,-1,-10,5,0,-14,-12,-17,-22
-8,-12,-4,10,-2,-8,5,1,-14,-12,-17,-21
-10,-14,-4,12,-3,-9,5,1,-16,-12,-18,-21
-11,-16,-5,13,-3,-11,5,1,-16,-12,-19,-22
-12,-17,-5,14,-4,-11,6,1,-17,-13,-20,-23
-10,-17,-7,13,-2,-12,6,1,-16,-13,-20,-23
-10,-17,-7,13,-2,-12,6,2,-16,-14,-20,-23
-11,-17,-6,14,-3,-12,5,2,-15,-13,-19,-23
-12,-17,-5,14,-4,-11,5,2,-15,-13,-18,-23
-17,-19,-2,18,-8,-11,5,2,-14,-13,-18,-23
-19,-21,-2,20,-9,-12,5,2,-13,-13,-17,-23
-18,-20,-2,19,-8,-11,5,3,-12,-12,-17,-23
-16,-18,-2,17,-7,-10,6,4,-12,-11,-17,-23
-13,-17,-4,15,-5,-11,7,5,-12,-11,-17,-23
-13,-17,-4,15,-5,-11,7,6,-12,-10,-17,-22
-13,-16,-3,14,-5,-10,7,7,-11,-10,-16,-22
-10,-13,-3,11,-4,-8,8,8,-10,-9,-15,-21
-9,-13,-4,11,-3,-9,8,8,-9,-9,-15,-21
-10,-12,-2,11,-4,-7,9,9,-8,-8,-15,-21
-10,-12,-2,11,-4,-7,11,11,-7,-8,-14,-20
-9,-11,-2,10,-4,-7,13,12,-6,-7,-13,-20
-11,-14,-3,12,-4,-9,13,12,-6,-7,-14,-20
-12,-15,-3,13,-5,-9,13,11,-7,-9,-15,-21
-10,-13,-3,11,-4,-8,13,13,-7,-9,-15,-21
-7,-11,-4,9,-2,-8,14,14,-6,-8,-14,-20
-5,-8,-3,6,-1,-6,14,16,-5,-6,-14,-19
-5,-8,-3,6,-1,-6,14,17,-5,-6,-14,-19
-10,-13,-3,11,-4,-8,12,15,-6,-6,-15,-19
-13,-16,-3,14,-5,-10,12,15,-6,-7,-16,-20
-15,-17,-2,16,-7,-10,14,15,-4,-6,-15,-20
-15,-17,-2,16,-7,-10,15,16,-3,-6,-15,-21
-14,-17,-3,15,-6,-10,17,16,-2,-6,-15,-21
-15,-17,-2,16,-7,-10,17,17,-2,-6,-15,-22
-17,-19,-2,18,-8,-11,16,18,-1,-6,-15,-22
-16,-17,-1,16,-8,-9,16,19,0,-6,-15,-21
-14,-15,-1,14,-7,-8,16,19,0,-6,-15,-21
-14,-14,0,14,-7,-7,16,20,0,-6,-14,-20
-13,-14,-1,13,-6,-8,17,22,1,-5,-14,-20
-15,-14,1,14,-8,-7,18,23,2,-5,-13,-19
-16,-13,3,14,-10,-5,18,24,2,-4,-13,-19
-13,-11,2,12,-8,-5,19,25,3,-3,-13,-18
-12,-10,2,11,-7,-4,20,26,3,-3,-12,-18
-12,-10,2,11,-7,-4,20,27,3,-3,-12,-19
-12,-12,0,12,-6,-6,20,28,4,-3,-13,-19
-10,-9,1,9,-6,-4,21,30,5,-2,-12,-18
-11,-9,2,10,-7,-4,22,32,5,-2,-12,-18
-10,-9,1,9,-6,-4,22,32,5,-2,-12,-19
-8,-8,0,8,-4,-4,24,33,6,-1,-11,-18
-6,-7,-1,6,-3,-4,24,34,7,-1,-11,-17
-9,-10,-1,9,-4,-6,24,35,8,-1,-12,-18
-11,-11,0,11,-6,-6,24,36,9,-2,-12,-18
-15,-16,-1,15,-7,-9,21,36,8,-3,-13,-19
-16,-17,-1,16,-8,-9,21,36,9,-2,-12,-19
-15,-14,1,14,-8,-7,23,39,11,0,-11,-17
-15,-13,2,14,-9,-6,23,41,13,0,-10,-17
-15,-13,2,14,-9,-6,23,42,13,1,-10,-16
-15,-13,2,14,-9,-6,24,43,14,1,-10,-16
-13,-12,1,12,-7,-6,24,45,14,1,-10,-16
-13,-12,1,12,-7,-6,25,47,15,1,-10,-16
-14,-11,3,12,-9,-4,26,49,17,2,-9,-16
-12,-10,2,11,-7,-4,28,51,19,3,-8,-16
-12,-10,2,11,-7,-4,30,52,20,3,-7,-16
-13,-10,3,11,-8,-4,31,53,21,4,-7,-16
-16,-11,5,13,-11,-3,30,54,23,4,-7,-16
-16,-10,6,13,-11,-2,31,57,24,5,-6,-15
-14,-7,7,10,-11,0,32,59,26,7,-4,-13
-13,-6,7,9,-10,0,32,61,27,8,-4,-13
-11,-5,6,8,-9,0,31,63,28,8,-4,-12
-10,-4,6,7,-8,1,32,65,30,10,-3,-11
-7,-2,5,4,-6,1,34,69,33,11,-2,-9
-5,1,6,2,-5,3,36,72,36,13,-1,-8
-5,1,6,2,-5,3,37,74,37,13,-1,-8
-7,0,7,3,-7,3,37,76,39,14,0,-7
-5,1,6,2,-5,3,38,79,41,16,1,-6
-4,3,7,0,-5,5,38,82,43,18,1,-6
-5,3,8,1,-6,5,39,83,45,19,1,-6
-6,2,8,2,-7,5,40,85,46,20,1,-6
-5,4,9,0,-7,6,42,89,49,22,3,-4
-1,8,9,-3,-5,8,44,93,52,24,6,-2
-1,10,11,-4,-6,10,44,95,54,25,7,-1
-3,9,12,-3,-7,10,45,97,56,26,8,0
-6,7,13,0,-9,10,45,99,57,27,9,0
-7,7,14,0,-10,10,45,100,60,28,10,1
-2,11,13,-4,-7,12,46,104,64,32,13,3
0,15,15,-7,-7,15,48,107,68,35,15,5
-1,14,15,-6,-8,14,48,109,70,36,15,5
-3,11,14,-4,-8,12,48,110,72,37,15,5
-5,10,15,-2,-10,12,48,112,75,38,16,5
-5,11,16,-3,-10,13,49,114,77,40,17,7
-5,11,16,-3,-10,13,50,117,79,42,18,7
-5,13,18,-4,-11,15,50,119,81,43,20,8
-5,13,18,-4,-11,15,50,121,82,44,21,9
-1,18,19,-8,-10,18,50,124,86,46,23,11
2,23,21,-12,-9,22,51,126,88,49,25,13
4,26,22,-15,-9,24,51,128,91,51,27,15
7,28,21,-17,-7,25,52,130,93,53,29,16
8,28,20,-18,-6,24,51,131,95,55,30,18
5,26,21,-15,-8,24,51,132,96,55,31,18
5,26,21,-15,-8,24,51,132,97,56,32,19
6,27,21,-16,-7,24,52,133,99,58,34,20
6,26,20,-16,-7,23,51,133,100,59,35,21
3,24,21,-13,-9,23,49,132,100,59,35,21
1,24,23,-12,-11,24,49,132,101,60,36,21
-1,23,24,-11,-12,23,47,131,101,60,37,22
-2,24,26,-11,-14,25,46,130,101,61,37,23
-1,26,27,-12,-14,26,45,128,100,60,37,23
-1,27,28,-13,-14,27,44,126,100,61,37,24
0,28,28,-14,-14,28,44,125,99,61,37,25
0,28,28,-14,-14,28,42,122,97,61,37,24
-3,26,29,-11,-16,27,39,118,94,59,35,23
-4,24,28,-10,-16,26,35,113,91,58,35,23
-1,25,26,-12,-13,25,32,109,89,58,35,23
0,26,26,-13,-13,26,30,105,87,56,35,24
2,28,26,-15,-12,27,29,102,85,55,35,23
2,30,28,-16,-13,29,26,97,82,53,34,23
1,30,29,-15,-14,30,23,92,78,51,32,22
0,28,28,-14,-14,28,20,85,73,49,31,21
0,29,29,-14,-14,29,18,79,69,48,30,21
0,29,29,-14,-14,29,16,73,65,46,29,21
0,28,28,-14,-14,28,14,68,60,44,28,20
2,28,26,-15,-12,27,12,62,56,43,27,19
5,29,24,-17,-9,27,11,58,52,42,26,19
4,28,24,-16,-10,26,10,53,48,39,24,17
1,25,24,-13,-11,25,8,48,43,36,21,14
0,23,23,-11,-11,23,7,43,39,32,19,13
0,23,23,-11,-11,23,6,39,35,30,18,12
0,21,21,-10,-10,21,4,34,30,27,16,10
1,19,18,-10,-8,19,1,30,26,24,14,8
3,20,17,-11,-7,19,0,26,22,22,12,8
5,19,14,-12,-4,17,-1,22,18,19,11,6
2,14,12,-8,-5,13,-4,16,13,15,8,3
-3,7,10,-2,-6,8,-7,11,8,11,4,0
-4,4,8,0,-6,6,-7,8,3,7,1,-1
-4,2,6,1,-5,4,-8,5,0,3,-1,-4
-4,0,4,2,-4,2,-8,3,-3,1,-3,-6
-5,0,5,2,-5,2,-8,1,-6,0,-5,-8
-4,0,4,2,-4,2,-7,0,-8,-2,-6,-10
-2,1,3,0,-2,2,-7,0,-9,-2,-8,-10
-1,1,2,0,-1,1,-8,-1,-10,-3,-9,-11
-1,0,1,0,-1,0,-9,-3,-11,-4,-9,-12
-1,0,1,0,-1,0,-10,-5,-12,-5,-9,-12
1,2,1,-1,0,2,-9,-6,-12,-5,-9,-12
-1,-2,-1,1,0,-2,-10,-8,-16,-7,-11,-14
-6,-7,-1,6,-3,-4,-11,-11,-18,-9,-13,-16
-9,-11,-2,10,-4,-7,-11,-12,-19,-11,-14,-17
-14,-15,-1,14,-7,-8,-12,-13,-21,-12,-15,-18
-17,-18,-1,17,-8,-10,-14,-15,-23,-14,-17,-19
-16,-18,-2,17,-7,-10,-13,-15,-24,-14,-17,-20
-16,-17,-1,16,-8,-9,-13,-15,-24,-14,-17,-20
-14,-16,-2,15,-6,-9,-13,-16,-25,-14,-18,-20
-13,-16,-3,14,-5,-10,-14,-17,-26,-14,-18,-20
-12,-14,-2,13,-5,-8,-14,-18,-27,-16,-19,-20
-12,-14,-2,13,-5,-8,-14,-18,-27,-16,-20,-20
-13,-14,-1,13,-6,-8,-13,-18,-27,-17,-21,-21
-13,-13,0,13,-7,-7,-13,-17,-26,-17,-21,-21
-14,-15,-1,14,-7,-8,-13,-17,-26,-18,-21,-22
-15,-16,-1,15,-7,-9,-13,-17,-26,-19,-21,-23
-14,-16,-2,15,-6,-9,-14,-18,-27,-19,-22,-24
-11,-15,-4,13,-4,-10,-14,-18,-28,-20,-22,-24
-10,-15,-5,12,-3,-10,-14,-19,-29,-20,-23,-26
-8,-14,-6,11,-1,-10,-14,-19,-29,-21,-23,-25
-9,-14,-5,11,-2,-10,-13,-18,-29,-21,-23,-25
-12,-16,-4,14,-4,-10,-13,-18,-29,-21,-24,-25
-11,-15,-4,13,-4,-10,-12,-17,-28,-21,-24,-23
-10,-15,-5,12,-3,-10,-12,-17,-28,-21,-24,-23
-11,-18,-7,14,-2,-13,-13,-18,-29,-22,-25,-24
-13,-19,-6,16,-4,-13,-13,-17,-29,-23,-26,-25
-13,-18,-5,15,-4,-12,-13,-17,-29,-23,-26,-26
-13,-16,-3,14,-5,-10,-12,-16,-29,-23,-27,-27
-12,-14,-2,13,-5,-8,-11,-15,-28,-24,-28,-26
-9,-11,-2,10,-4,-7,-10,-13,-27,-24,-28,-25
-8,-11,-3,9,-3,-7,-10,-13,-27,-25,-28,-25
-11,-14,-3,12,-4,-9,-10,-14,-27,-26,-29,-26
-10,-15,-5,12,-3,-10,-9,-14,-27,-25,-28,-25
-5,-11,-6,8,0,-9,-6,-12,-26,-23,-25,-24
-6,-11,-5,8,-1,-8,-6,-12,-28,-23,-25,-24
-11,-16,-5,13,-3,-11,-7,-13,-31,-26,-28,-26
-13,-18,-5,15,-4,-12,-8,-15,-33,-27,-28,-27
-14,-19,-5,16,-5,-12,-9,-15,-33,-28,-28,-27
-14,-20,-6,17,-4,-13,-10,-16,-34,-29,-28,-28
-15,-19,-4,17,-6,-12,-9,-16,-33,-30,-28,-29
-13,-17,-4,15,-5,-11,-9,-16,-32,-30,-28,-28
-13,-17,-4,15,-5,-11,-10,-16,-32,-30,-28,-28
-12,-15,-3,13,-5,-9,-9,-15,-31,-29,-27,-27
-13,-16,-3,14,-5,-10,-9,-15,-32,-29,-27,-27
-13,-17,-4,15,-5,-11,-10,-16,-33,-29,-27,-28
-11,-17,-6,14,-3,-12,-9,-16,-34,-29,-26,-28
-10,-16,-6,13,-2,-11,-9,-16,-35,-29,-26,-28
-11,-16,-5,13,-3,-11,-9,-16,-36,-29,-26,-28
-12,-15,-3,13,-5,-9,-9,-16,-36,-30,-25,-28
-13,-14,-1,13,-6,-8,-9,-16,-36,-29,-25,-29
-12,-11,1,11,-7,-5,-8,-15,-34,-29,-25,-28
-13,-11,2,12,-8,-5,-8,-15,-34,-29,-25,-28
-12,-11,1,11,-7,-5,-9,-15,-34,-28,-24,-28
-10,-10,0,10,-5,-5,-9,-15,-34,-28,-24,-28
-10,-11,-1,10,-5,-6,-10,-16,-35,-28,-26,-28
-9,-12,-3,10,-3,-8,-10,-16,-35,-29,-26,-29
-8,-10,-2,9,-3,-6,-10,-16,-35,-28,-26,-28
-7,-8,-1,7,-3,-5,-9,-15,-34,-26,-24,-27
-9,-9,0,9,-5,-5,-10,-15,-34,-26,-23,-26
-12,-12,0,12,-6,-6,-12,-16,-35,-26,-23,-27
-15,-14,1,14,-8,-7,-13,-18,-36,-27,-24,-27
-19,-17,2,18,-11,-8,-14,-18,-37,-27,-23,-27
-19,-17,2,18,-11,-8,-14,-18,-37,-26,-22,-26
-17,-15,2,16,-10,-7,-12,-17,-36,-25,-21,-24
-12,-11,1,11,-7,-5,-11,-17,-34,-23,-19,-23
-11,-9,2,10,-7,-4,-11,-17,-33,-23,-19,-22
-12,-12,0,12,-6,-6,-11,-17,-34,-23,-20,-22
-11,-13,-2,12,-5,-8,-12,-18,-33,-24,-21,-23
-10,-11,-1,10,-5,-6,-13,-17,-33,-24,-22,-23
-8,-9,-1,8,-4,-5,-13,-17,-32,-24,-21,-23
-9,-10,-1,9,-4,-6,-13,-18,-32,-24,-19,-23
-10,-11,-1,10,-5,-6,-14,-18,-31,-24,-19,-23
-12,-11,1,11,-7,-5,-14,-17,-31,-24,-18,-22
-13,-12,1,12,-7,-6,-13,-18,-32,-24,-19,-23
-15,-12,3,13,-9,-5,-14,-18,-32,-24,-19,-23
-15,-11,4,13,-10,-4,-14,-18,-32,-23,-19,-23
-13,-9,4,11,-9,-3,-13,-17,-31,-21,-18,-23
-13,-10,3,11,-8,-4,-13,-18,-31,-21,-18,-23
-15,-14,1,14,-8,-7,-15,-20,-32,-22,-19,-23
-14,-15,-1,14,-7,-8,-15,-20,-33,-22,-17,-22
-12,-13,-1,12,-6,-7,-15,-19,-33,-22,-17,-21
-12,-12,0,12,-6,-6,-15,-19,-33,-22,-16,-21
-12,-13,-1,12,-6,-7,-16,-20,-33,-22,-17,-20
-13,-14,-1,13,-6,-8,-16,-21,-32,-23,-17,-19
-14,-14,0,14,-7,-7,-16,-21,-32,-22,-17,-20
-16,-15,1,15,-9,-7,-16,-21,-32,-22,-18,-20
-14,-13,1,13,-8,-6,-15,-21,-31,-20,-16,-19
-10,-9,1,9,-6,-4,-15,-21,-30,-19,-15,-18
-9,-8,1,8,-5,-4,-15,-21,-29,-18,-13,-18
-9,-8,1,8,-5,-4,-16,-20,-29,-18,-13,-18
-7,-8,-1,7,-3,-5,-16,-19,-28,-18,-13,-18
-7,-7,0,7,-4,-4,-15,-18,-27,-18,-12,-18
-5,-6,-1,5,-2,-4,-15,-18,-27,-17,-13,-18
-5,-8,-3,6,-1,-6,-15,-18,-27,-17,-13,-19
-5,-10,-5,7,0,-8,-16,-19,-28,-17,-13,-20
-4,-9,-5,6,0,-7,-16,-19,-27,-17,-13,-19
-4,-9,-5,6,0,-7,-16,-19,-27,-17,-13,-19
-5,-8,-3,6,-1,-6,-16,-19,-28,-17,-13,-19
-7,-8,-1,7,-3,-5,-17,-20,-29,-18,-14,-19
-11,-11,0,11,-6,-6,-18,-22,-30,-19,-15,-19
-15,-13,2,14,-9,-6,-19,-23,-31,-20,-16,-20
-16,-15,1,15,-9,-7,-19,-24,-31,-21,-16,-21
-15,-15,0,15,-8,-8,-19,-23,-31,-20,-16,-21
-14,-15,-1,14,-7,-8,-19,-22,-30,-19,-15,-21
-15,-16,-1,15,-7,-9,-19,-22,-32,-19,-15,-21
-13,-15,-2,14,-6,-9,-19,-22,-31,-20,-16,-21
-11,-13,-2,12,-5,-8,-19,-22,-31,-19,-15,-21
-12,-14,-2,13,-5,-8,-19,-22,-31,-19,-16,-20
-12,-12,0,12,-6,-6,-18,-21,-30,-19,-16,-20
-10,-11,-1,10,-5,-6,-17,-21,-30,-19,-16,-20
-9,-11,-2,10,-4,-7,-17,-21,-30,-19,-16,-20
-7,-11,-4,9,-2,-8,-16,-21,-30,-19,-16,-20
-6,-12,-6,9,0,-9,-17,-21,-31,-20,-17,-21
-7,-13,-6,10,-1,-10,-18,-22,-32,-20,-18,-22
-7,-13,-6,10,-1,-10,-18,-21,-32,-19,-17,-21
-6,-11,-5,8,-1,-8,-17,-21,-31,-19,-16,-19
-6,-10,-4,8,-1,-7,-18,-21,-30,-19,-15,-19
-6,-10,-4,8,-1,-7,-18,-22,-30,-19,-15,-18
-7,-11,-4,9,-2,-8,-19,-22,-30,-19,-15,-18
-9,-13,-4,11,-3,-9,-19,-24,-31,-20,-17,-19
-10,-14,-4,12,-3,-9,-18,-24,-32,-21,-18,-21
-10,-13,-3,11,-4,-8,-17,-23,-31,-21,-18,-21
-9,-14,-5,11,-2,-10,-17,-23,-31,-20,-18,-21
-8,-13,-5,10,-2,-9,-17,-23,-30,-20,-19,-21
-10,-15,-5,12,-3,-10,-19,-23,-30,-20,-20,-21
-13,-17,-4,15,-5,-11,-20,-25,-31,-21,-21,-22
-11,-14,-3,12,-4,-9,-20,-24,-31,-20,-20,-21
-8,-11,-3,9,-3,-7,-19,-23,-30,-19,-19,-20
-9,-11,-2,10,-4,-7,-20,-24,-31,-19,-19,-21
-8,-10,-2,9,-3,-6,-19,-24,-31,-18,-19,-21
-9,-12,-3,10,-3,-8,-19,-24,-31,-18,-19,-22
-13,-16,-3,14,-5,-10,-20,-25,-32,-19,-20,-22
-13,-19,-6,16,-4,-13,-20,-24,-32,-20,-20,-22
-12,-19,-7,15,-3,-13,-19,-24,-31,-20,-20,-21
-13,-19,-6,16,-4,-13,-19,-24,-31,-20,-21,-22
-14,-19,-5,16,-5,-12,-20,-25,-31,-21,-23,-22
-16,-19,-3,17,-7,-11,-21,-26,-32,-22,-24,-23
-14,-17,-3,15,-6,-10,-21,-26,-33,-22,-25,-23
-14,-17,-3,15,-6,-10,-21,-26,-33,-23,-26,-24
-14,-18,-4,16,-5,-11,-21,-27,-34,-23,-27,-24
-14,-19,-5,16,-5,-12,-21,-27,-34,-23,-27,-24
-17,-21,-4,19,-7,-13,-22,-28,-35,-23,-27,-24
-15,-20,-5,17,-5,-13,-20,-27,-34,-22,-26,-23
-13,-19,-6,16,-4,-13,-19,-27,-32,-20,-25,-22
-11,-17,-6,14,-3,-12,-18,-26,-31,-19,-24,-21
-11,-18,-7,14,-2,-13,-17,-26,-31,-19,-24,-21
-14,-21,-7,17,-4,-14,-19,-27,-32,-20,-25,-22
-15,-22,-7,18,-4,-15,-19,-26,-33,-21,-26,-22
-16,-22,-6,19,-5,-14,-19,-26,-33,-22,-26,-23
-16,-21,-5,18,-6,-13,-20,-26,-34,-23,-27,-24
-15,-21,-6,18,-5,-14,-20,-26,-34,-23,-28,-24
-17,-22,-5,19,-6,-14,-21,-27,-35,-22,-28,-24
-15,-21,-6,18,-5,-14,-22,-27,-34,-22,-29,-24
-14,-20,-6,17,-4,-13,-21,-27,-34,-22,-28,-24
-15,-21,-6,18,-5,-14,-21,-28,-34,-22,-29,-24
-17,-23,-6,20,-6,-15,-21,-28,-35,-23,-29,-25
-16,-22,-6,19,-5,-14,-20,-28,-34,-23,-29,-24
-16,-22,-6,19,-5,-14,-20,-29,-35,-23,-30,-24
-18,-24,-6,21,-6,-15,-21,-30,-36,-23,-31,-25
-20,-25,-5,22,-8,-15,-22,-30,-36,-23,-32,-25
-17,-22,-5,19,-6,-14,-21,-29,-35,-22,-32,-24
-14,-17,-3,15,-6,-10,-21,-27,-33,-20,-30,-22
-9,-13,-4,11,-3,-9,-21,-27,-33,-20,-30,-21
-9,-13,-4,11,-3,-9,-21,-27,-33,-20,-29,-21
-9,-14,-5,11,-2,-10,-20,-26,-32,-19,-27,-20
-8,-13,-5,10,-2,-9,-19,-25,-31,-18,-26,-19
-11,-17,-6,14,-3,-12,-20,-25,-31,-18,-26,-20
-17,-23,-6,20,-6,-15,-22,-26,-32,-20,-28,-22
-17,-22,-5,19,-6,-14,-20,-25,-30,-18,-27,-21
-14,-19,-5,16,-5,-12,-19,-24,-29,-17,-26,-19
-10,-15,-5,12,-3,-10,-18,-24,-28,-15,-25,-18
-6,-12,-6,9,0,-9,-18,-24,-29,-15,-25,-18
-2,-9,-7,5,2,-8,-17,-24,-29,-16,-25,-18
-4,-11,-7,7,1,-9,-18,-26,-31,-18,-26,-20
-10,-16,-6,13,-2,-11,-21,-28,-34,-20,-28,-22
-12,-18,-6,15,-3,-12,-21,-28,-34,-21,-29,-23
-14,-21,-7,17,-4,-14,-22,-28,-35,-22,-31,-24
-14,-21,-7,17,-4,-14,-22,-27,-34,-21,-31,-24
-12,-19,-7,15,-3,-13,-21,-26,-34,-21,-31,-24
-12,-18,-6,15,-3,-12,-21,-26,-33,-22,-31,-24
-15,-21,-6,18,-5,-14,-21,-27,-34,-22,-32,-25
-16,-23,-7,19,-5,-15,-21,-28,-34,-23,-32,-26
-18,-25,-7,21,-6,-16,-21,-29,-35,-24,-32,-26
-19,-26,-7,22,-6,-17,-21,-29,-35,-23,-31,-25
-18,-25,-7,21,-6,-16,-21,-29,-35,-21,-30,-23
-15,-21,-6,18,-5,-14,-20,-27,-33,-19,-28,-21
-12,-17,-5,14,-4,-11,-21,-26,-32,-19,-29,-20
-9,-15,-6,12,-2,-11,-21,-26,-32,-19,-29,-20
-7,-13,-6,10,-1,-10,-21,-25,-32,-18,-29,-20
-10,-17,-7,13,-2,-12,-21,-26,-32,-19,-29,-21
-13,-21,-8,17,-3,-15,-20,-27,-32,-19,-30,-22
-9,-17,-8,13,-1,-13,-18,-26,-30,-17,-28,-20
-5,-13,-8,9,1,-11,-18,-25,-30,-16,-26,-19
-5,-13,-8,9,1,-11,-19,-25,-30,-16,-26,-19
-8,-17,-9,12,0,-13,-20,-27,-32,-18,-27,-20
-11,-19,-8,15,-2,-14,-21,-28,-33,-19,-28,-21
-11,-20,-9,15,-1,-15,-21,-28,-33,-20,-28,-21
-7,-15,-8,11,0,-12,-19,-25,-32,-18,-27,-20
-7,-16,-9,11,1,-13,-19,-24,-32,-18,-27,-20
-11,-19,-8,15,-2,-14,-20,-24,-33,-20,-29,-21
-10,-18,-8,14,-1,-13,-19,-24,-32,-19,-29,-20
-8,-17,-9,12,0,-13,-19,-25,-31,-19,-29,-20
-9,-18,-9,13,0,-14,-20,-25,-31,-19,-29,-20
-11,-19,-8,15,-2,-14,-20,-27,-32,-20,-30,-20
-13,-20,-7,16,-3,-14,-20,-27,-32,-20,-30,-21
-14,-21,-7,17,-4,-14,-20,-28,-33,-20,-31,-21
-15,-22,-7,18,-4,-15,-21,-29,-33,-19,-31,-22
-16,-22,-6,19,-5,-14,-21,-28,-34,-19,-30,-22
-15,-21,-6,18,-5,-14,-21,-29,-34,-19,-30,-22
-13,-21,-8,17,-3,-15,-20,-29,-34,-19,-30,-22
-13,-21,-8,17,-3,-15,-20,-28,-34,-20,-29,-22
-12,-21,-9,16,-2,-15,-19,-28,-32,-20,-29,-21
-12,-21,-9,16,-2,-15,-19,-27,-32,-19,-28,-21
-10,-20,-10,15,0,-15,-19,-27,-31,-19,-29,-20
-10,-20,-10,15,0,-15,-20,-28,-32,-20,-30,-20
-10,-18,-8,14,-1,-13,-20,-28,-32,-19,-29,-20
-7,-14,-7,10,0,-11,-20,-27,-32,-17,-28,-19
-6,-13,-7,9,0,-10,-20,-26,-32,-17,-28,-19
-6,-14,-8,10,1,-11,-20,-27,-32,-17,-28,-19
-5,-13,-8,9,1,-11,-20,-26,-31,-16,-27,-18
-4,-13,-9,8,2,-11,-19,-25,-29,-16,-26,-17
-5,-15,-10,10,2,-13,-18,-25,-28,-15,-25,-16
-5,-14,-9,9,2,-12,-18,-24,-27,-14,-24,-16
-5,-14,-9,9,2,-12,-18,-24,-27,-14,-24,-16
-4,-12,-8,8,2,-10,-18,-24,-26,-15,-24,-16
-4,-11,-7,7,1,-9,-18,-24,-26,-15,-24,-16
-6,-13,-7,9,0,-10,-19,-26,-28,-16,-25,-17
-8,-14,-6,11,-1,-10,-19,-26,-29,-17,-25,-17
-9,-16,-7,12,-1,-12,-19,-26,-30,-16,-25,-16
-10,-18,-8,14,-1,-13,-19,-26,-30,-16,-25,-17
-12,-20,-8,16,-2,-14,-20,-27,-31,-17,-26,-18
-13,-21,-8,17,-3,-15,-20,-27,-31,-17,-26,-19
-11,-17,-6,14,-3,-12,-19,-26,-31,-17,-26,-19
-8,-14,-6,11,-1,-10,-19,-26,-31,-18,-26,-19
-7,-13,-6,10,-1,-10,-19,-26,-31,-18,-26,-19
-6,-11,-5,8,-1,-8,-19,-26,-31,-17,-25,-19
-5,-10,-5,7,0,-8,-18,-25,-30,-16,-24,-18
-5,-9,-4,7,-1,-7,-17,-24,-29,-15,-23,-17
-3,-7,-4,5,0,-6,-15,-23,-28,-14,-22,-17
-2,-6,-4,4,1,-5,-14,-22,-26,-13,-22,-16
-4,-7,-3,5,-1,-5,-13,-20,-25,-12,-21,-15
-3,-4,-1,3,-1,-3,-11,-18,-23,-11,-20,-13
-2,-1,1,1,-2,0,-10,-17,-23,-10,-19,-11
-2,1,3,0,-2,2,-9,-17,-22,-9,-18,-11
-4,1,5,1,-4,3,-8,-17,-22,-9,-18,-11
-9,-3,6,6,-8,1,-9,-18,-23,-11,-20,-12
-11,-6,5,8,-8,-1,-7,-17,-23,-11,-20,-12
-10,-6,4,8,-7,-1,-5,-16,-23,-11,-20,-12
-9,-4,5,6,-7,0,-5,-16,-23,-11,-19,-11
-9,-2,7,5,-8,2,-4,-16,-23,-10,-19,-11
-9,0,9,4,-9,4,-3,-16,-23,-9,-18,-11
-9,3,12,3,-10,7,-3,-16,-22,-8,-18,-10
-10,7,17,1,-13,12,-4,-16,-21,-7,-16,-8
-10,10,20,0,-15,15,-7,-16,-20,-5,-14,-7
-8,14,22,-3,-15,18,-10,-16,-18,-3,-12,-5
-3,21,24,-9,-13,22,-10,-15,-15,0,-8,-1
0,24,24,-12,-12,24,-10,-15,-14,3,-5,2
3,26,23,-14,-10,25,-12,-16,-13,4,-3,4
6,29,23,-17,-8,26,-14,-17,-13,6,-1,6
5,28,23,-16,-9,26,-17,-19,-14,7,-1,7
4,26,22,-15,-9,24,-20,-21,-15,7,-1,7
3,26,23,-14,-10,25,-22,-21,-16,6,-1,6
1,26,25,-13,-12,26,-23,-22,-16,5,-2,5
-2,23,25,-10,-13,24,-24,-23,-19,1,-5,3
-5,19,24,-7,-14,21,-25,-25,-22,-3,-9,-1
-9,15,24,-3,-16,19,-27,-27,-25,-7,-13,-4
-9,13,22,-2,-15,17,-26,-28,-26,-8,-15,-5
-6,15,21,-4,-13,18,-25,-27,-26,-8,-15,-5
-6,14,20,-4,-13,17,-26,-27,-26,-8,-15,-5
-8,9,17,0,-12,13,-27,-28,-28,-10,-17,-7
-10,4,14,3,-12,9,-26,-27,-29,-10,-18,-8
-9,0,9,4,-9,4,-26,-27,-29,-9,-18,-9
-8,-2,6,5,-7,2,-25,-27,-29,-10,-18,-10
-8,-5,3,6,-6,-1,-25,-27,-29,-10,-18,-10
-7,-10,-3,8,-2,-7,-26,-28,-30,-12,-19,-12
-6,-11,-5,8,-1,-8,-25,-27,-28,-11,-18,-11
-3,-11,-8,7,2,-10,-24,-26,-27,-11,-19,-11
-3,-12,-9,7,3,-11,-24,-27,-27,-13,-20,-11
-3,-14,-11,8,4,-13,-24,-28,-28,-14,-22,-12
-1,-14,-13,7,6,-14,-24,-28,-29,-14,-22,-12
1,-14,-15,6,8,-14,-23,-28,-29,-14,-22,-12
0,-15,-15,7,7,-15,-23,-29,-30,-14,-23,-13
-1,-17,-16,9,7,-17,-24,-30,-32,-15,-24,-14
-4,-18,-14,11,5,-16,-25,-30,-32,-17,-24,-16
-6,-18,-12,12,3,-15,-25,-30,-32,-17,-24,-16
-9,-21,-12,15,1,-17,-26,-31,-33,-18,-25,-17
-9,-21,-12,15,1,-17,-26,-31,-33,-18,-25,-17
-8,-21,-13,14,2,-17,-26,-31,-34,-18,-24,-17
-7,-21,-14,14,3,-18,-27,-32,-35,-19,-25,-16
-6,-20,-14,13,4,-17,-26,-31,-35,-19,-25,-16
-5,-20,-15,12,5,-18,-26,-31,-34,-18,-25,-16
-4,-21,-17,12,6,-19,-25,-30,-34,-19,-25,-17
-3,-19,-16,11,6,-18,-24,-29,-33,-18,-25,-17
0,-17,-17,8,8,-17,-22,-27,-31,-17,-23,-17
-1,-18,-17,9,8,-18,-21,-27,-31,-16,-23,-17
-4,-20,-16,12,6,-18,-22,-28,-32,-18,-24,-17
-5,-22,-17,13,6,-20,-22,-30,-32,-19,-25,-17
-7,-24,-17,15,5,-21,-23,-31,-33,-20,-26,-17
-8,-25,-17,16,4,-21,-23,-31,-33,-20,-26,-17
-6,-24,-18,15,6,-21,-23,-30,-33,-20,-27,-17
-6,-24,-18,15,6,-21,-24,-30,-32,-21,-27,-17
-5,-23,-18,14,6,-21,-23,-29,-31,-20,-26,-17
-9,-25,-16,17,3,-21,-24,-29,-32,-20,-26,-17
-15,-30,-15,22,0,-23,-26,-32,-35,-22,-28,-19
-16,-32,-16,24,0,-24,-27,-33,-36,-22,-29,-20
-13,-32,-19,22,3,-26,-26,-32,-35,-21,-29,-19
-9,-28,-19,18,5,-24,-25,-31,-34,-20,-28,-18
-7,-26,-19,16,6,-23,-24,-30,-34,-19,-27,-17
-6,-25,-19,15,6,-22,-24,-29,-33,-19,-26,-17
-5,-24,-19,14,7,-22,-24,-29,-32,-19,-25,-17
-5,-23,-18,14,6,-21,-23,-29,-32,-19,-24,-16
-5,-24,-19,14,7,-22,-23,-28,-32,-19,-24,-16
-6,-23,-17,14,5,-20,-22,-26,-30,-16,-21,-14
-3,-22,-19,12,8,-21,-21,-24,-26,-12,-19,-12
-2,-21,-19,11,8,-20,-20,-22,-23,-8,-16,-10
0,-20,-20,10,10,-20,-20,-20,-19,-5,-15,-8
-1,-19,-18,10,8,-19,-20,-18,-16,-1,-13,-5
-3,-17,-14,10,5,-16,-16,-10,-10,4,-9,-2
-3,-11,-8,7,2,-10,-8,10,10,21,4,8
0,0,0,0,0,0,5,39,41,47,26,25
3,12,9,-7,-3,11,18,62,71,78,52,47
8,28,20,-18,-6,24,32,81,101,116,84,74
11,45,34,-28,-11,40,46,96,133,157,120,105
15,67,52,-41,-18,60,54,107,164,200,157,137
22,91,69,-56,-23,80,51,111,194,245,197,173
32,118,86,-75,-27,102,37,108,220,290,238,211
48,147,99,-97,-25,123,17,98,239,329,275,244
66,166,100,-116,-17,133,-2,89,254,356,302,270
77,173,96,-125,-9,135,-21,80,263,371,318,283
84,173,89,-128,-2,131,-45,59,252,362,315,281
86,165,79,-125,4,122,-77,23,215,325,290,263
80,151,71,-115,5,111,-113,-32,142,251,235,222
68,131,63,-99,3,97,-145,-95,51,157,163,167
55,96,41,-75,7,69,-167,-147,-28,77,99,116
45,58,13,-51,16,36,-181,-183,-89,15,49,74
36,27,-9,-31,23,9,-186,-201,-131,-31,9,40
27,5,-22,-16,25,-8,-182,-204,-152,-60,-18,14
18,-8,-26,-5,22,-17,-170,-197,-159,-76,-37,-6
13,-14,-27,0,20,-20,-154,-182,-155,-82,-49,-19
8,-19,-27,5,17,-23,-137,-163,-143,-81,-53,-27
3,-24,-27,10,15,-25,-119,-142,-125,-75,-52,-31
2,-25,-27,11,14,-26,-101,-119,-104,-65,-49,-30
5,-23,-28,9,16,-25,-82,-95,-83,-53,-44,-27
3,-24,-27,10,15,-25,-66,-77,-66,-44,-40,-25
1,-24,-25,11,13,-24,-52,-62,-54,-37,-38,-23
-3,-25,-22,14,9,-24,-42,-51,-47,-33,-36,-21
-5,-27,-22,16,8,-25,-34,-42,-42,-30,-33,-19
-7,-25,-18,16,5,-22,-27,-34,-38,-26,-30,-16
-9,-26,-17,17,4,-22,-22,-28,-36,-23,-27,-15
-10,-24,-14,17,2,-19,-18,-24,-32,-21,-25,-13
-9,-22,-13,15,2,-18,-14,-19,-28,-18,-23,-13
-9,-21,-12,15,1,-17,-10,-16,-23,-17,-22,-13
-8,-19,-11,13,1,-15,-7,-13,-20,-15,-22,-12
-6,-19,-13,12,3,-16,-5,-10,-18,-14,-21,-12
-5,-18,-13,11,4,-16,-4,-8,-17,-13,-22,-12
-3,-16,-13,9,5,-15,-2,-5,-16,-11,-20,-11
-4,-16,-12,10,4,-14,-1,-3,-16,-11,-21,-11
-6,-18,-12,12,3,-15,0,-2,-17,-11,-21,-11
-5,-16,-11,10,3,-14,1,0,-16,-9,-20,-10
-4,-15,-11,9,3,-13,3,0,-14,-8,-19,-9
-4,-15,-11,9,3,-13,3,0,-13,-7,-19,-9
-5,-17,-12,11,3,-15,3,0,-12,-7,-20,-9
-4,-16,-12,10,4,-14,3,0,-10,-6,-19,-9
-3,-14,-11,8,4,-13,4,1,-9,-5,-18,-8
-4,-15,-11,9,3,-13,4,2,-10,-5,-18,-8
-4,-16,-12,10,4,-14,3,2,-10,-5,-18,-8
-3,-16,-13,9,5,-15,4,3,-10,-4,-18,-8
-6,-17,-11,11,2,-14,4,3,-10,-4,-18,-8
-8,-17,-9,12,0,-13,5,4,-10,-5,-17,-8
-6,-16,-10,11,2,-13,6,4,-10,-4,-17,-8
-2,-12,-10,7,4,-11,6,5,-9,-4,-17,-7
-1,-11,-10,6,4,-11,5,5,-9,-4,-17,-7
-2,-13,-11,7,4,-12,5,5,-9,-4,-18,-8
-1,-13,-12,7,5,-13,6,6,-9,-4,-19,-8
0,-13,-13,6,6,-13,7,7,-8,-3,-18,-7
0,-13,-13,6,6,-13,7,7,-8,-3,-18,-7
-3,-15,-12,9,4,-14,7,7,-7,-3,-18,-7
-7,-16,-9,11,1,-13,7,7,-7,-3,-18,-7
-9,-17,-8,13,-1,-13,7,8,-6,-2,-17,-7
-9,-17,-8,13,-1,-13,7,8,-6,-2,-16,-7
-9,-18,-9,13,0,-14,6,8,-7,-3,-16,-7
-8,-20,-12,14,2,-16,6,8,-7,-3,-17,-8
-6,-20,-14,13,4,-17,6,8,-7,-3,-17,-8
-5,-19,-14,12,4,-17,6,9,-6,-3,-17,-7
-5,-18,-13,11,4,-16,7,10,-5,-3,-18,-6
-3,-16,-13,9,5,-15,8,11,-4,-3,-17,-6
-2,-12,-10,7,4,-11,9,12,-3,-3,-16,-5
-3,-13,-10,8,3,-12,10,13,-2,-2,-16,-5
-2,-12,-10,7,4,-11,10,14,-1,-1,-15,-5
0,-9,-9,4,4,-9,11,16,0,0,-13,-3
0,-10,-10,5,5,-10,12,18,2,2,-12,-3
0,-11,-11,5,5,-11,11,18,2,1,-12,-4
-2,-15,-13,8,5,-14,11,17,1,0,-12,-4
-7,-18,-11,12,2,-15,10,17,1,0,-13,-5
-9,-19,-10,14,0,-15,11,17,2,0,-13,-4
-7,-16,-9,11,1,-13,11,17,3,1,-12,-3
-4,-12,-8,8,2,-10,13,18,5,2,-11,-2
-4,-11,-7,7,1,-9,12,19,4,2,-12,-1
-6,-15,-9,10,1,-12,11,19,2,1,-13,-3
-10,-19,-9,14,-1,-14,11,18,1,0,-15,-5
-7,-19,-12,13,2,-16,13,19,2,1,-14,-5
-8,-21,-13,14,2,-17,13,20,3,0,-14,-5
-7,-20,-13,13,3,-17,13,20,4,1,-13,-4
-3,-16,-13,9,5,-15,15,23,6,3,-12,-3
-3,-15,-12,9,4,-14,15,24,7,4,-12,-3
-5,-16,-11,10,3,-14,15,25,8,3,-12,-3
-6,-16,-10,11,2,-13,14,26,8,3,-12,-4
-6,-16,-10,11,2,-13,14,27,7,3,-13,-4
-5,-17,-12,11,3,-15,14,27,8,3,-13,-4
-4,-16,-12,10,4,-14,16,28,8,4,-12,-3
-4,-16,-12,10,4,-14,17,29,9,4,-12,-3
-6,-16,-10,11,2,-13,18,30,10,5,-12,-3
-6,-14,-8,10,1,-11,19,31,11,5,-12,-3
-4,-12,-8,8,2,-10,19,33,12,5,-11,-3
-2,-9,-7,5,2,-8,20,35,14,6,-9,-2
1,-5,-6,2,3,-5,20,38,16,8,-8,0
2,-6,-8,2,5,-7,21,40,18,10,-7,0
-2,-10,-8,6,3,-9,20,41,19,10,-8,0
-2,-11,-9,6,3,-10,20,42,20,11,-7,0
0,-9,-9,4,4,-9,22,45,22,12,-5,2
3,-7,-10,2,6,-8,25,47,23,14,-3,4
5,-6,-11,0,8,-8,27,49,25,15,-2,5
5,-5,-10,0,7,-7,27,51,27,15,-2,5
5,-5,-10,0,7,-7,29,53,30,16,-2,5
2,-7,-9,2,5,-8,26,54,31,16,-2,3
1,-8,-9,3,5,-8,26,54,31,16,-2,3
0,-8,-8,4,4,-8,26,56,33,17,-1,4
-3,-10,-7,6,2,-9,25,57,34,18,-1,4
-4,-11,-7,7,1,-9,24,59,35,18,-1,4
-4,-8,-4,6,0,-6,26,62,37,20,0,5
-4,-7,-3,5,-1,-5,27,64,39,22,1,6
-5,-8,-3,6,-1,-6,28,66,41,22,2,5
-5,-7,-2,6,-2,-5,28,68,43,23,2,5
-3,-7,-4,5,0,-6,29,70,45,25,3,7
-2,-7,-5,4,1,-6,30,72,47,27,3,9
-1,-6,-5,3,2,-6,30,74,50,28,4,9
-1,-6,-5,3,2,-6,31,76,52,29,5,10
-2,-7,-5,4,1,-6,31,79,53,29,6,11
0,-5,-5,2,2,-5,32,82,56,30,7,11
2,-2,-4,0,3,-3,33,86,59,32,9,12
3,-1,-4,-1,3,-2,34,90,62,34,11,13
5,0,-5,-2,5,-2,34,92,64,36,12,14
3,0,-3,-1,3,-1,35,94,67,38,13,15
1,-1,-2,0,1,-1,36,96,69,39,15,17
1,0,-1,0,1,0,36,98,72,41,16,17
3,1,-2,-2,3,0,37,100,75,43,17,18
5,3,-2,-4,4,1,37,103,78,44,18,19
7,5,-2,-6,5,2,38,106,80,46,20,20
9,6,-3,-7,6,2,38,109,82,48,21,22
11,9,-2,-10,7,4,39,112,85,51,23,25
13,12,-1,-12,7,6,40,115,89,53,25,27
14,13,-1,-13,8,6,40,117,91,56,27,28
14,13,-1,-13,8,6,40,119,94,58,28,29
14,14,0,-14,7,7,41,121,96,60,30,31
13,14,1,-13,6,8,42,123,98,63,31,32
11,13,2,-12,5,8,42,124,99,64,31,31
12,15,3,-13,5,9,42,126,102,67,32,33
11,14,3,-12,4,9,42,127,104,68,33,34
10,13,3,-11,4,8,42,128,106,69,34,35
10,13,3,-11,4,8,40,129,108,70,35,35
12,13,1,-12,6,7,39,130,110,71,37,36
10,11,1,-10,5,6,37,129,111,72,37,35
8,10,2,-9,3,6,37,129,111,72,37,35
9,13,4,-11,3,9,37,130,113,74,40,36
9,15,6,-12,2,11,37,129,113,76,41,37
11,17,6,-14,3,12,37,129,114,77,42,38
11,18,7,-14,2,13,37,128,115,78,43,40
9,16,7,-12,1,12,36,126,114,77,43,39
9,16,7,-12,1,12,35,124,113,77,43,40
9,14,5,-11,2,10,33,122,111,75,42,39
9,14,5,-11,2,10,31,120,109,75,42,39
12,16,4,-14,4,10,31,118,108,76,42,39
13,17,4,-15,5,11,29,115,107,77,42,39
11,17,6,-14,3,12,27,111,104,75,40,38
10,17,7,-13,2,12,25,107,102,74,39,37
10,20,10,-15,0,15,24,103,99,73,39,37
13,23,10,-18,2,17,24,100,97,73,40,38
13,23,10,-18,2,17,21,94,93,69,39,36
12,21,9,-16,2,15,19,87,89,67,38,36
12,21,9,-16,2,15,16,82,85,65,38,36
12,22,10,-17,1,16,14,77,80,62,37,36
13,23,10,-18,2,17,12,72,76,60,36,35
13,23,10,-18,2,17,10,68,72,60,34,35
13,23,10,-18,2,17,8,63,68,58,33,33
11,21,10,-16,1,16,6,58,62,55,31,31
10,21,11,-15,0,16,3,53,58,53,30,29
9,20,11,-14,-1,16,1,48,52,50,28,27
9,20,11,-14,-1,16,0,41,45,46,25,24
7,19,12,-13,-2,16,-2,37,40,42,23,22
7,18,11,-12,-2,15,-3,32,36,38,20,20
8,18,10,-13,-1,14,-4,28,31,34,18,19
10,19,9,-14,1,14,-4,25,28,32,17,20
11,18,7,-14,2,13,-3,22,25,30,15,18
9,15,6,-12,2,11,-4,18,20,27,13,16
5,10,5,-7,0,8,-6,14,15,23,10,13
4,8,4,-6,0,6,-6,12,11,20,8,12
5,6,1,-5,2,4,-7,10,8,18,6,10
5,5,0,-5,3,3,-7,7,5,16,4,8
2,2,0,-2,1,1,-8,4,1,13,2,6
2,1,-1,-1,2,0,-10,1,0,11,0,5
3,2,-1,-2,2,1,-10,0,-2,9,0,5
1,-1,-2,0,1,-1,-11,-3,-5,7,-2,2
-2,-4,-2,3,0,-3,-12,-5,-7,4,-4,0
-2,-5,-3,3,0,-4,-12,-7,-10,2,-6,-1
-3,-6,-3,4,0,-5,-12,-9,-12,0,-8,-2
-1,-5,-4,3,1,-5,-11,-9,-13,0,-8,-3
-4,-8,-4,6,0,-6,-12,-10,-15,-2,-10,-4
-5,-10,-5,7,0,-8,-13,-12,-17,-4,-11,-6
-6,-11,-5,8,-1,-8,-14,-13,-18,-5,-12,-8
-7,-12,-5,9,-1,-9,-15,-14,-19,-6,-13,-9
-7,-13,-6,10,-1,-10,-16,-15,-20,-8,-15,-9
-5,-10,-5,7,0,-8,-14,-15,-21,-8,-15,-9
-4,-9,-5,6,0,-7,-14,-15,-21,-8,-16,-10
-4,-10,-6,7,1,-8,-13,-16,-22,-9,-16,-10
-5,-12,-7,8,1,-10,-12,-17,-23,-10,-18,-12
-6,-14,-8,10,1,-11,-13,-17,-24,-11,-19,-14
-6,-15,-9,10,1,-12,-13,-17,-24,-12,-20,-15
-2,-11,-9,6,3,-10,-12,-16,-24,-11,-19,-14
-1,-9,-8,5,3,-9,-12,-16,-24,-11,-19,-14
0,-7,-7,3,3,-7,-11,-15,-23,-11,-18,-13
-2,-8,-6,5,2,-7,-12,-16,-24,-12,-18,-14
-4,-10,-6,7,1,-8,-13,-18,-25,-14,-20,-14
-6,-12,-6,9,0,-9,-14,-20,-26,-15,-21,-15
-6,-12,-6,9,0,-9,-13,-18,-26,-15,-21,-15
-6,-15,-9,10,1,-12,-13,-18,-26,-15,-22,-15
-6,-17,-11,11,2,-14,-13,-18,-27,-16,-23,-16
-7,-19,-12,13,2,-16,-13,-18,-28,-17,-24,-17
-10,-21,-11,15,0,-16,-15,-18,-29,-18,-25,-18
-13,-24,-11,18,-1,-18,-14,-18,-30,-19,-26,-19
-13,-22,-9,17,-2,-16,-14,-18,-29,-19,-25,-19
-13,-20,-7,16,-3,-14,-14,-18,-29,-19,-25,-19
-17,-21,-4,19,-7,-13,-14,-19,-30,-20,-26,-20
-17,-20,-3,18,-7,-12,-14,-19,-30,-21,-26,-20
-12,-16,-4,14,-4,-10,-13,-19,-30,-21,-26,-20
-8,-17,-9,12,0,-13,-14,-19,-32,-22,-27,-20
-6,-16,-10,11,2,-13,-14,-19,-33,-23,-28,-20
-2,-13,-11,7,4,-12,-12,-17,-31,-21,-27,-19
0,-11,-11,5,5,-11,-10,-16,-30,-19,-27,-18
-2,-13,-11,7,4,-12,-10,-16,-30,-19,-28,-18
-4,-15,-11,9,3,-13,-10,-16,-30,-20,-29,-19
-6,-14,-8,10,1,-11,-9,-16,-30,-20,-29,-18
-6,-13,-7,9,0,-10,-8,-15,-29,-20,-28,-18
-3,-8,-5,5,1,-7,-7,-13,-28,-20,-25,-18
1,-3,-4,1,2,-3,-7,-13,-27,-19,-24,-17
4,-2,-6,-1,5,-4,-6,-12,-28,-19,-23,-18
4,-3,-7,0,5,-5,-6,-12,-28,-20,-24,-19
0,-8,-8,4,4,-8,-8,-13,-31,-21,-25,-21
-3,-12,-9,7,3,-11,-9,-15,-32,-22,-27,-22
-4,-11,-7,7,1,-9,-9,-15,-31,-21,-27,-20
-3,-8,-5,5,1,-7,-8,-14,-29,-20,-27,-19
-3,-8,-5,5,1,-7,-9,-14,-28,-19,-27,-18
-4,-8,-4,6,0,-6,-10,-15,-29,-19,-27,-18
-7,-9,-2,8,-3,-6,-10,-16,-29,-20,-26,-18
-10,-12,-2,11,-4,-7,-11,-16,-30,-21,-26,-19
-7,-9,-2,8,-3,-6,-9,-14,-28,-20,-24,-18
-4,-7,-3,5,-1,-5,-8,-13,-28,-18,-23,-17
-6,-10,-4,8,-1,-7,-9,-14,-28,-18,-23,-18
-7,-10,-3,8,-2,-7,-8,-12,-26,-17,-22,-17
-7,-9,-2,8,-3,-6,-8,-12,-25,-17,-22,-16
-10,-11,-1,10,-5,-6,-9,-12,-26,-17,-23,-16
-11,-13,-2,12,-5,-8,-10,-13,-26,-18,-24,-16
-11,-14,-3,12,-4,-9,-11,-13,-26,-18,-24,-17
-11,-14,-3,12,-4,-9,-12,-13,-26,-18,-23,-17
-9,-12,-3,10,-3,-8,-12,-12,-26,-17,-21,-16
-5,-8,-3,6,-1,-6,-11,-12,-26,-15,-19,-14
-4,-9,-5,6,0,-7,-11,-12,-26,-15,-19,-14
-3,-9,-6,6,1,-8,-13,-13,-26,-16,-19,-15
-1,-7,-6,4,2,-7,-12,-13,-25,-15,-19,-14
0,-5,-5,2,2,-5,-11,-12,-24,-14,-19,-14
0,-4,-4,2,2,-4,-10,-11,-23,-14,-19,-13
-1,-5,-4,3,1,-5,-10,-11,-22,-14,-19,-13
-4,-6,-2,5,-1,-4,-10,-11,-23,-14,-18,-12
-3,-4,-1,3,-1,-3,-9,-10,-22,-12,-16,-11
0,-1,-1,0,0,-1,-9,-9,-22,-11,-15,-10
1,0,-1,0,1,0,-9,-10,-22,-11,-15,-10
-2,-4,-2,3,0,-3,-12,-12,-24,-12,-16,-11
-6,-8,-2,7,-2,-5,-14,-13,-24,-12,-18,-12
-4,-5,-1,4,-2,-3,-13,-12,-23,-11,-17,-11
-5,-6,-1,5,-2,-4,-14,-12,-23,-12,-17,-11
-5,-7,-2,6,-2,-5,-13,-12,-22,-12,-17,-11
-6,-6,0,6,-3,-3,-12,-12,-21,-12,-16,-10
-6,-6,0,6,-3,-3,-11,-11,-21,-11,-15,-10
-5,-5,0,5,-3,-3,-10,-11,-20,-9,-14,-10
-3,-2,1,2,-2,-1,-9,-10,-19,-9,-14,-9
0,0,0,0,0,0,-10,-11,-20,-8,-14,-8
1,0,-1,0,1,0,-9,-10,-19,-7,-14,-7
1,0,-1,0,1,0,-9,-11,-19,-7,-14,-7
4,2,-2,-3,3,0,-9,-10,-18,-5,-13,-5
6,4,-2,-5,4,1,-9,-10,-17,-5,-12,-5
4,1,-3,-2,4,-1,-9,-10,-17,-5,-13,-5
-1,-3,-2,2,0,-3,-11,-11,-18,-7,-15,-7
-1,-3,-2,2,0,-3,-11,-11,-19,-6,-15,-7
1,-2,-3,0,2,-2,-11,-11,-19,-6,-15,-7
1,-3,-4,1,2,-3,-11,-12,-21,-7,-16,-8
0,-5,-5,2,2,-5,-13,-14,-22,-9,-18,-10
0,-5,-5,2,2,-5,-13,-14,-23,-9,-17,-11
-1,-4,-3,2,1,-4,-13,-14,-23,-9,-17,-10
-1,-4,-3,2,1,-4,-14,-14,-23,-7,-16,-9
-2,-5,-3,3,0,-4,-14,-14,-22,-7,-16,-9
-2,-5,-3,3,0,-4,-14,-14,-21,-7,-16,-8
-2,-4,-2,3,0,-3,-14,-14,-21,-6,-15,-7
-3,-6,-3,4,0,-5,-14,-15,-21,-7,-16,-7
-2,-5,-3,3,0,-4,-13,-16,-21,-7,-16,-7
0,-4,-4,2,2,-4,-12,-16,-20,-7,-15,-7
-2,-7,-5,4,1,-6,-14,-17,-21,-7,-17,-9
-6,-10,-4,8,-1,-7,-15,-19,-23,-9,-18,-11
-7,-11,-4,9,-2,-8,-16,-19,-24,-9,-19,-11
-4,-9,-5,6,0,-7,-15,-19,-24,-9,-18,-10
0,-5,-5,2,2,-5,-14,-18,-23,-8,-17,-9
2,-3,-5,0,3,-4,-14,-17,-24,-8,-17,-9
5,0,-5,-2,5,-2,-13,-16,-23,-7,-16,-9
6,1,-5,-3,6,-2,-13,-15,-23,-7,-16,-9
6,0,-6,-3,6,-3,-13,-15,-23,-8,-17,-10
5,-2,-7,-1,6,-4,-15,-16,-24,-9,-17,-11
3,-5,-8,1,5,-6,-15,-17,-25,-10,-18,-12
1,-6,-7,2,4,-6,-15,-18,-25,-10,-18,-12
3,-3,-6,0,4,-4,-14,-17,-24,-9,-17,-12
4,-2,-6,-1,5,-4,-13,-17,-24,-8,-17,-11
2,-2,-4,0,3,-3,-13,-17,-25,-8,-17,-11
-3,-7,-4,5,0,-6,-14,-18,-27,-8,-18,-13
-7,-10,-3,8,-2,-7,-16,-19,-28,-10,-19,-14
-8,-12,-4,10,-2,-8,-17,-20,-28,-11,-19,-14
-7,-11,-4,9,-2,-8,-16,-19,-27,-11,-18,-15
-5,-9,-4,7,-1,-7,-15,-19,-25,-10,-17,-14
-3,-7,-4,5,0,-6,-15,-19,-24,-9,-16,-14
-4,-8,-4,6,0,-6,-15,-19,-25,-10,-17,-14
-6,-11,-5,8,-1,-8,-15,-20,-26,-11,-18,-13
-5,-10,-5,7,0,-8,-15,-20,-27,-11,-18,-13
-5,-11,-6,8,0,-9,-16,-20,-27,-12,-19,-13
-8,-14,-6,11,-1,-10,-18,-22,-28,-13,-20,-14
-7,-14,-7,10,0,-11,-19,-22,-28,-13,-20,-15
-6,-12,-6,9,0,-9,-19,-22,-28,-13,-20,-15
-4,-9,-5,6,0,-7,-18,-21,-27,-12,-19,-15
0,-5,-5,2,2,-5,-16,-21,-27,-11,-19,-15
1,-3,-4,1,2,-3,-15,-20,-26,-11,-18,-14
1,-3,-4,1,2,-3,-15,-19,-27,-11,-20,-14
3,-2,-5,0,4,-3,-14,-19,-27,-11,-20,-14
2,-5,-7,1,4,-6,-15,-19,-28,-11,-21,-15
2,-6,-8,2,5,-7,-15,-20,-27,-12,-21,-14
3,-6,-9,1,6,-7,-15,-20,-26,-11,-19,-12
4,-5,-9,0,6,-7,-15,-20,-26,-10,-18,-12
2,-6,-8,2,5,-7,-16,-21,-26,-10,-18,-12
-1,-8,-7,4,3,-8,-17,-21,-26,-10,-18,-13
-3,-8,-5,5,1,-7,-17,-21,-27,-10,-18,-13
-5,-11,-6,8,0,-9,-18,-22,-28,-12,-20,-16
-6,-10,-4,8,-1,-7,-18,-21,-29,-14,-21,-16
-5,-10,-5,7,0,-8,-17,-21,-29,-14,-22,-17
-5,-10,-5,7,0,-8,-17,-20,-28,-14,-22,-17
-6,-11,-5,8,-1,-8,-17,-21,-28,-14,-22,-17
-7,-12,-5,9,-1,-9,-17,-21,-28,-14,-21,-17
-7,-13,-6,10,-1,-10,-17,-22,-28,-14,-22,-17
-10,-17,-7,13,-2,-12,-18,-24,-30,-16,-23,-18
-12,-18,-6,15,-3,-12,-19,-25,-31,-16,-23,-18
-12,-18,-6,15,-3,-12,-19,-24,-31,-15,-21,-17
-12,-17,-5,14,-4,-11,-19,-24,-31,-15,-21,-17
-12,-18,-6,15,-3,-12,-19,-24,-32,-15,-22,-18
-14,-20,-6,17,-4,-13,-20,-25,-33,-16,-23,-19
-14,-19,-5,16,-5,-12,-20,-24,-34,-15,-22,-19
-9,-14,-5,11,-2,-10,-18,-22,-32,-13,-20,-17
-3,-9,-6,6,1,-8,-16,-22,-29,-12,-18,-16
-1,-9,-8,5,3,-9,-16,-22,-29,-13,-18,-16
-2,-12,-10,7,4,-11,-17,-22,-30,-15,-19,-17
-2,-11,-9,6,3,-10,-17,-21,-29,-15,-19,-18
0,-8,-8,4,4,-8,-15,-20,-29,-15,-18,-17
0,-6,-6,3,3,-6,-15,-19,-28,-14,-18,-16
-3,-9,-6,6,1,-8,-16,-20,-29,-14,-18,-16
-9,-13,-4,11,-3,-9,-18,-21,-30,-14,-20,-17
-16,-19,-3,17,-7,-11,-20,-22,-31,-15,-21,-17
-19,-23,-4,21,-8,-14,-21,-23,-32,-15,-21,-18
-19,-25,-6,22,-7,-16,-21,-23,-32,-15,-21,-18
-15,-23,-8,19,-4,-16,-20,-23,-32,-16,-21,-19
-15,-24,-9,19,-3,-17,-21,-24,-33,-17,-21,-19
-13,-22,-9,17,-2,-16,-20,-24,-33,-16,-21,-19
-12,-20,-8,16,-2,-14,-20,-24,-33,-16,-20,-19
-12,-20,-8,16,-2,-14,-19,-23,-32,-16,-20,-19
-13,-20,-7,16,-3,-14,-19,-23,-32,-17,-21,-20
-13,-20,-7,16,-3,-14,-19,-23,-33,-17,-21,-20
-13,-20,-7,16,-3,-14,-20,-23,-33,-17,-21,-20
-12,-19,-7,15,-3,-13,-20,-22,-32,-15,-20,-19
-10,-17,-7,13,-2,-12,-20,-22,-32,-14,-19,-18
-12,-20,-8,16,-2,-14,-20,-22,-32,-14,-19,-18
-14,-22,-8,18,-3,-15,-20,-23,-32,-14,-19,-18
-15,-23,-8,19,-4,-16,-21,-23,-32,-14,-19,-19
-13,-21,-8,17,-3,-15,-20,-23,-31,-14,-18,-19
-11,-19,-8,15,-2,-14,-20,-23,-30,-14,-17,-19
-13,-20,-7,16,-3,-14,-21,-24,-30,-15,-17,-19
-17,-23,-6,20,-6,-15,-22,-25,-31,-16,-18,-20
-19,-24,-5,21,-7,-15,-22,-26,-31,-16,-19,-21
-19,-25,-6,22,-7,-16,-22,-25,-31,-16,-20,-22
-18,-24,-6,21,-6,-15,-22,-25,-32,-16,-20,-22
-15,-22,-7,18,-4,-15,-21,-23,-32,-16,-19,-21
-12,-19,-7,15,-3,-13,-20,-22,-31,-16,-18,-20
-12,-19,-7,15,-3,-13,-21,-23,-31,-16,-18,-20
-16,-22,-6,19,-5,-14,-22,-25,-33,-18,-20,-21
-18,-27,-9,22,-5,-18,-24,-27,-34,-19,-20,-22
-20,-30,-10,25,-5,-20,-24,-27,-35,-19,-21,-23
-18,-27,-9,22,-5,-18,-22,-26,-34,-18,-20,-21
-14,-23,-9,18,-3,-16,-22,-25,-33,-17,-20,-21
-12,-22,-10,17,-1,-16,-22,-25,-33,-17,-20,-21
-14,-22,-8,18,-3,-15,-22,-25,-33,-17,-20,-20
-17,-25,-8,21,-5,-17,-24,-26,-34,-18,-20,-21
-18,-25,-7,21,-6,-16,-24,-26,-33,-18,-21,-22
-15,-22,-7,18,-4,-15,-23,-24,-31,-17,-20,-20
-13,-20,-7,16,-3,-14,-23,-24,-31,-17,-19,-20
-16,-24,-8,20,-4,-16,-24,-25,-32,-18,-20,-22
-19,-27,-8,23,-6,-18,-24,-26,-34,-18,-20,-23
-18,-27,-9,22,-5,-18,-23,-26,-34,-18,-20,-23
-18,-27,-9,22,-5,-18,-22,-26,-34,-17,-19,-23
-22,-31,-9,26,-7,-20,-24,-27,-36,-19,-20,-25
-24,-33,-9,28,-8,-21,-25,-28,-37,-20,-21,-26
-23,-31,-8,27,-8,-20,-25,-27,-36,-21,-21,-25
-23,-28,-5,25,-9,-17,-25,-27,-36,-20,-21,-25
-21,-28,-7,24,-7,-18,-25,-27,-36,-20,-21,-25
-18,-28,-10,23,-4,-19,-27,-28,-36,-20,-21,-25
-16,-27,-11,21,-3,-19,-26,-28,-35,-19,-20,-24
-14,-25,-11,19,-2,-18,-24,-27,-34,-18,-19,-23
-11,-23,-12,17,0,-18,-23,-27,-33,-17,-19,-23
-14,-26,-12,20,-1,-19,-24,-28,-34,-18,-20,-24
-13,-25,-12,19,-1,-19,-23,-27,-34,-18,-20,-23
-12,-24,-12,18,0,-18,-23,-26,-33,-17,-19,-23
-14,-25,-11,19,-2,-18,-22,-25,-33,-17,-19,-23
-16,-26,-10,21,-3,-18,-22,-25,-33,-17,-19,-22
-14,-24,-10,19,-2,-17,-22,-24,-32,-17,-19,-22
-10,-20,-10,15,0,-15,-21,-23,-32,-16,-18,-21
-10,-20,-10,15,0,-15,-21,-23,-32,-16,-18,-21
-9,-20,-11,14,1,-16,-22,-23,-32,-16,-18,-22
-9,-21,-12,15,1,-17,-22,-24,-32,-16,-18,-22
-9,-20,-11,14,1,-16,-22,-23,-31,-16,-18,-22
-8,-18,-10,13,1,-14,-21,-22,-31,-15,-18,-21
-8,-17,-9,12,0,-13,-20,-22,-30,-15,-17,-20
-7,-15,-8,11,0,-12,-20,-22,-30,-14,-16,-19
-7,-14,-7,10,0,-11,-19,-22,-30,-14,-16,-19
-9,-16,-7,12,-1,-12,-20,-23,-30,-14,-16,-19
-11,-18,-7,14,-2,-13,-22,-25,-32,-15,-18,-21
-11,-18,-7,14,-2,-13,-22,-26,-33,-16,-18,-23
-10,-18,-8,14,-1,-13,-21,-25,-32,-15,-18,-23
-14,-22,-8,18,-3,-15,-21,-25,-32,-16,-18,-23
-18,-25,-7,21,-6,-16,-21,-25,-31,-15,-17,-22
-19,-25,-6,22,-7,-16,-20,-25,-30,-14,-17,-21
-17,-23,-6,20,-6,-15,-19,-25,-29,-13,-16,-20
-14,-19,-5,16,-5,-12,-18,-24,-28,-13,-15,-19
-14,-17,-3,15,-6,-10,-18,-23,-28,-12,-15,-19
-13,-13,0,13,-7,-7,-16,-21,-28,-11,-16,-19
-10,-8,2,9,-6,-3,-14,-19,-26,-10,-15,-17
-5,-3,2,4,-4,-1,-11,-17,-25,-8,-13,-16
-3,-1,2,2,-3,0,-8,-16,-24,-9,-12,-15
-5,-3,2,4,-4,-1,-7,-16,-24,-9,-11,-16
-10,-9,1,9,-6,-4,-7,-17,-24,-10,-13,-17
-14,-13,1,13,-8,-6,-7,-17,-25,-11,-14,-19
-14,-13,1,13,-8,-6,-6,-16,-24,-11,-14,-18
-15,-12,3,13,-9,-5,-5,-16,-24,-10,-15,-18
-13,-7,6,10,-10,-1,-4,-15,-25,-11,-15,-17
-13,-4,9,8,-11,2,-4,-15,-26,-11,-16,-17
-12,-2,10,7,-11,4,-5,-16,-28,-13,-16,-18
-11,1,12,5,-11,6,-7,-18,-29,-13,-15,-19
-11,3,14,4,-12,8,-9,-19,-29,-12,-14,-18
-10,6,16,2,-13,11,-10,-20,-28,-10,-12,-16
-8,7,15,0,-11,11,-12,-21,-27,-9,-12,-15
-8,4,12,2,-10,8,-16,-23,-28,-9,-13,-16
-9,2,11,3,-10,6,-20,-25,-29,-9,-15,-16
-10,0,10,5,-10,5,-23,-27,-30,-10,-15,-16
-12,0,12,6,-12,6,-25,-28,-31,-10,-15,-16
-14,-1,13,7,-14,6,-27,-30,-32,-11,-15,-15
-13,0,13,6,-13,6,-29,-32,-32,-11,-14,-15
-8,5,13,1,-10,9,-30,-33,-31,-10,-12,-14
-2,11,13,-4,-7,12,-30,-32,-30,-10,-10,-12
1,12,11,-6,-5,12,-30,-32,-30,-10,-9,-12
3,12,9,-7,-3,11,-31,-31,-31,-9,-7,-11
6,11,5,-8,1,8,-32,-30,-30,-7,-6,-10
8,10,2,-9,3,6,-34,-29,-29,-6,-5,-8
8,9,1,-8,4,5,-33,-28,-27,-4,-3,-6
6,7,1,-6,3,4,-32,-28,-26,-3,-3,-6
2,2,0,-2,1,1,-33,-28,-26,-3,-4,-7
1,0,-1,0,1,0,-32,-27,-25,-3,-5,-8
1,0,-1,0,1,0,-31,-26,-24,-2,-4,-8
-2,-4,-2,3,0,-3,-30,-25,-24,-3,-5,-9
-4,-5,-1,4,-2,-3,-29,-24,-23,-3,-4,-10
-5,-9,-4,7,-1,-7,-27,-23,-23,-3,-4,-10
-8,-14,-6,11,-1,-10,-27,-23,-24,-5,-5,-11
-10,-17,-7,13,-2,-12,-28,-24,-26,-7,-8,-13
-12,-19,-7,15,-3,-13,-27,-25,-27,-9,-10,-15
-12,-19,-7,15,-3,-13,-26,-25,-27,-10,-11,-16
-12,-20,-8,16,-2,-14,-26,-27,-29,-12,-13,-17
-13,-22,-9,17,-2,-16,-26,-28,-31,-15,-15,-19
-13,-21,-8,17,-3,-15,-26,-30,-32,-17,-16,-21
-10,-19,-9,14,-1,-14,-25,-30,-34,-18,-17,-22
-8,-18,-10,13,1,-14,-25,-31,-35,-19,-18,-23
-5,-17,-12,11,3,-15,-25,-31,-36,-19,-18,-23
-3,-16,-13,9,5,-15,-25,-30,-36,-18,-18,-22
-2,-16,-14,9,6,-15,-25,-30,-35,-17,-17,-22
-3,-18,-15,10,6,-17,-25,-31,-36,-17,-18,-22
-4,-20,-16,12,6,-18,-26,-31,-37,-18,-21,-23
-5,-21,-16,13,5,-19,-27,-31,-38,-18,-21,-24
-7,-22,-15,14,4,-19,-27,-31,-38,-19,-21,-25
-6,-21,-15,13,4,-18,-26,-30,-37,-19,-20,-24
-6,-20,-14,13,4,-17,-25,-30,-36,-19,-20,-24
-7,-20,-13,13,3,-17,-25,-31,-36,-19,-20,-24
-10,-23,-13,16,1,-18,-26,-32,-37,-20,-21,-25
-9,-24,-15,16,3,-20,-27,-33,-36,-20,-21,-25
-9,-24,-15,16,3,-20,-26,-32,-37,-20,-21,-25
-8,-24,-16,16,4,-20,-26,-32,-36,-19,-21,-24
-7,-23,-16,15,4,-20,-26,-32,-36,-19,-21,-24
-8,-24,-16,16,4,-20,-26,-32,-36,-20,-22,-25
-10,-25,-15,17,2,-20,-27,-32,-37,-21,-22,-25
-11,-26,-15,18,2,-21,-27,-32,-37,-22,-22,-26
-10,-26,-16,18,3,-21,-27,-31,-38,-22,-23,-27
-9,-24,-15,16,3,-20,-26,-30,-37,-21,-21,-27
-8,-24,-16,16,4,-20,-25,-30,-36,-21,-20,-26
-6,-22,-16,14,5,-19,-24,-30,-36,-20,-20,-25
-6,-21,-15,13,4,-18,-22,-29,-34,-19,-18,-23
-4,-19,-15,11,5,-17,-21,-28,-33,-18,-18,-22
-3,-19,-16,11,6,-18,-21,-29,-34,-19,-18,-23
-3,-18,-15,10,6,-17,-21,-28,-33,-18,-18,-23
-2,-18,-16,10,7,-17,-21,-27,-31,-16,-17,-22
-4,-20,-16,12,6,-18,-21,-26,-29,-14,-16,-22
-5,-22,-17,13,6,-20,-21,-24,-27,-12,-15,-21
-5,-22,-17,13,6,-20,-20,-21,-22,-8,-13,-19
-6,-21,-15,13,4,-18,-19,-17,-16,-4,-9,-17
-8,-20,-12,14,2,-16,-12,-7,-8,1,-6,-14
-7,-15,-8,11,0,-12,0,14,10,15,4,-5
-3,-3,0,3,-2,-2,14,40,36,38,22,10
0,8,8,-4,-4,8,25,59,60,64,44,29
4,24,20,-14,-8,22,37,72,85,98,72,53
10,42,32,-26,-11,37,47,84,116,139,107,83
17,67,50,-42,-16,59,54,96,152,187,146,115
26,96,70,-61,-22,83,49,104,189,236,189,152
38,126,88,-82,-25,107,33,105,224,287,235,192
50,152,102,-101,-26,127,9,97,251,332,276,229
59,167,108,-113,-24,138,-17,85,270,364,308,258
70,173,103,-121,-16,138,-44,74,283,384,328,276
81,175,94,-128,-6,135,-74,55,281,386,334,283
90,171,81,-130,5,126,-110,23,255,364,321,275
90,161,71,-125,10,116,-146,-23,197,308,283,247
81,147,66,-114,8,107,-179,-84,108,222,220,201
71,122,51,-96,10,87,-199,-137,21,136,154,149
64,90,26,-77,19,58,-208,-176,-47,67,100,104
55,58,3,-56,26,31,-209,-198,-97,13,56,66
43,29,-14,-36,29,8,-201,-206,-128,-26,20,33
32,9,-23,-20,28,-7,-187,-202,-142,-51,-5,8
25,-2,-27,-11,26,-14,-169,-189,-143,-65,-23,-10
15,-12,-27,-1,21,-19,-148,-169,-136,-68,-32,-22
7,-19,-26,6,16,-22,-126,-147,-122,-65,-35,-28
1,-24,-25,11,13,-24,-105,-123,-104,-58,-35,-30
0,-25,-25,12,12,-25,-85,-100,-87,-50,-33,-31
0,-25,-25,12,12,-25,-69,-81,-72,-43,-31,-31
-3,-25,-22,14,9,-24,-55,-65,-60,-38,-30,-31
-5,-23,-18,14,6,-21,-43,-52,-51,-33,-28,-30
-6,-22,-16,14,5,-19,-34,-40,-43,-30,-25,-28
-8,-22,-14,15,3,-18,-26,-32,-39,-27,-23,-26
-7,-18,-11,12,2,-15,-19,-26,-35,-24,-20,-25
-6,-15,-9,10,1,-12,-14,-23,-33,-22,-19,-23
-7,-15,-8,11,0,-12,-11,-21,-31,-21,-18,-23
-7,-16,-9,11,1,-13,-8,-17,-28,-18,-18,-23
-6,-13,-7,9,0,-10,-4,-14,-24,-16,-16,-22
-6,-13,-7,9,0,-10,-3,-11,-21,-15,-16,-22
-7,-15,-8,11,0,-12,-3,-10,-19,-15,-18,-22
-6,-16,-10,11,2,-13,-2,-8,-18,-15,-18,-22
-6,-17,-11,11,2,-14,-1,-5,-17,-15,-18,-22
-8,-18,-10,13,1,-14,0,-4,-17,-15,-18,-22
-8,-17,-9,12,0,-13,0,-4,-17,-15,-17,-22
-9,-17,-8,13,-1,-13,0,-3,-18,-15,-18,-23
-11,-16,-5,13,-3,-11,2,-2,-17,-14,-17,-23
-9,-14,-5,11,-2,-10,3,-1,-15,-13,-16,-22
-8,-10,-2,9,-3,-6,5,0,-13,-11,-15,-21
-5,-9,-4,7,-1,-7,7,1,-13,-10,-15,-20
-4,-11,-7,7,1,-9,7,2,-12,-9,-15,-20
-3,-11,-8,7,2,-10,9,4,-11,-8,-14,-20
-4,-13,-9,8,2,-11,10,5,-11,-8,-14,-20
-4,-14,-10,9,3,-12,10,6,-12,-8,-14,-20
-5,-15,-10,10,2,-13,9,6,-13,-8,-15,-21
-8,-17,-9,12,0,-13,8,5,-14,-9,-16,-22
-8,-17,-9,12,0,-13,7,5,-14,-9,-15,-22
-10,-17,-7,13,-2,-12,7,5,-13,-9,-15,-20
-9,-15,-6,12,-2,-11,7,6,-13,-9,-15,-19
-9,-14,-5,11,-2,-10,7,7,-12,-10,-16,-19
-9,-15,-6,12,-2,-11,7,7,-12,-11,-16,-19
-10,-18,-8,14,-1,-13,7,7,-12,-11,-17,-19
-11,-20,-9,15,-1,-15,7,7,-10,-10,-16,-19
-9,-17,-8,13,-1,-13,9,9,-8,-8,-14,-18
-6,-15,-9,10,1,-12,10,10,-7,-7,-13,-18
-5,-13,-8,9,1,-11,11,11,-7,-6,-12,-18
-5,-12,-7,8,1,-10,11,11,-7,-6,-12,-19
-5,-11,-6,8,0,-9,11,12,-7,-6,-12,-18
-6,-11,-5,8,-1,-8,11,12,-6,-6,-12,-18
-6,-12,-6,9,0,-9,11,13,-7,-6,-13,-19
-3,-9,-6,6,1,-8,12,15,-5,-5,-12,-18
-4,-8,-4,6,0,-6,12,17,-5,-5,-12,-18
-8,-12,-4,10,-2,-8,11,16,-5,-5,-13,-19
-9,-12,-3,10,-3,-8,11,18,-3,-5,-13,-19
-9,-12,-3,10,-3,-8,13,19,-3,-4,-12,-19
-10,-13,-3,11,-4,-8,14,19,-3,-5,-12,-20
-9,-11,-2,10,-4,-7,15,20,-2,-5,-12,-20
-7,-9,-2,8,-3,-6,16,20,-1,-4,-11,-19
-3,-8,-5,5,1,-7,16,20,-1,-4,-11,-19
-3,-11,-8,7,2,-10,14,19,-1,-4,-12,-20
-6,-14,-8,10,1,-11,14,18,-3,-4,-13,-20
-9,-16,-7,12,-1,-12,13,18,-3,-4,-13,-20
-12,-16,-4,14,-4,-10,13,19,-2,-2,-13,-19
-13,-16,-3,14,-5,-10,15,21,-1,-2,-12,-19
-18,-20,-2,19,-8,-11,14,21,-2,-3,-13,-19
-18,-20,-2,19,-8,-11,14,23,-1,-4,-13,-19
-15,-16,-1,15,-7,-9,15,25,0,-3,-11,-18
-12,-12,0,12,-6,-6,17,27,1,-3,-10,-17
-14,-15,-1,14,-7,-8,16,27,1,-3,-11,-18
-18,-20,-2,19,-8,-11,14,25,0,-5,-13,-20
-18,-19,-1,18,-9,-10,15,25,1,-4,-13,-20
-15,-16,-1,15,-7,-9,17,27,4,-2,-12,-19
-14,-15,-1,14,-7,-8,18,28,5,-1,-12,-19
-15,-18,-3,16,-6,-11,17,28,5,-2,-14,-20
-16,-18,-2,17,-7,-10,17,29,5,-2,-14,-20
-15,-16,-1,15,-7,-9,18,31,6,-2,-13,-19
-12,-14,-2,13,-5,-8,18,33,7,-1,-12,-17
-12,-13,-1,12,-6,-7,19,35,8,0,-11,-16
-13,-14,-1,13,-6,-8,19,36,8,0,-11,-17
-12,-16,-4,14,-4,-10,19,36,8,-1,-11,-17
-12,-16,-4,14,-4,-10,20,36,9,-1,-11,-18
-12,-17,-5,14,-4,-11,21,38,10,0,-11,-18
-12,-16,-4,14,-4,-10,22,39,11,0,-11,-19
-11,-14,-3,12,-4,-9,23,42,13,1,-10,-18
-11,-14,-3,12,-4,-9,24,45,14,2,-10,-17
-12,-14,-2,13,-5,-8,25,47,15,3,-10,-17
-13,-15,-2,14,-6,-9,24,48,15,3,-11,-17
-11,-14,-3,12,-4,-9,25,49,16,3,-10,-16
-11,-14,-3,12,-4,-9,25,51,17,4,-9,-15
-10,-12,-2,11,-4,-7,26,52,18,5,-8,-14
-9,-10,-1,9,-4,-6,27,54,20,6,-7,-13
-7,-8,-1,7,-3,-5,28,56,22,7,-5,-12
-5,-5,0,5,-3,-3,29,58,24,9,-4,-11
-3,-3,0,3,-2,-2,30,60,28,10,-2,-10
-1,0,1,0,-1,0,32,63,31,12,-1,-9
-3,-1,2,2,-3,0,34,66,32,13,-1,-9
-7,-6,1,6,-4,-3,34,67,33,13,-2,-9
-7,-7,0,7,-4,-4,35,69,34,13,-2,-9
-5,-5,0,5,-3,-3,36,72,36,15,0,-7
-5,-4,1,4,-3,-2,37,74,38,17,1,-7
-7,-6,1,6,-4,-3,36,75,40,17,2,-8
-8,-7,1,7,-5,-3,36,76,41,18,2,-8
-5,-3,2,4,-4,-1,38,81,45,21,4,-6
-4,-2,2,3,-3,0,39,84,48,23,5,-5
-5,-2,3,3,-4,0,40,86,50,25,5,-4
-5,-2,3,3,-4,0,41,88,53,25,6,-3
-6,-3,3,4,-5,0,41,90,55,27,6,-2
-8,-3,5,5,-7,1,41,92,57,28,7,-1
-8,-2,6,5,-7,2,42,95,59,29,9,0
-6,0,6,3,-6,3,42,98,61,31,11,0
-4,2,6,1,-5,4,44,101,64,33,13,2
-7,0,7,3,-7,3,43,103,65,33,12,2
-7,0,7,3,-7,3,43,105,67,34,13,2
-6,1,7,2,-6,4,42,108,70,36,13,3
-2,4,6,-1,-4,5,44,112,75,40,16,5
0,8,8,-4,-4,8,46,115,79,42,18,7
-1,8,9,-3,-5,8,47,117,81,44,19,8
-1,9,10,-4,-5,9,47,119,84,46,22,10
1,13,12,-7,-5,13,49,122,88,49,26,12
2,14,12,-8,-5,13,51,124,91,51,28,13
1,11,10,-6,-4,11,50,125,92,51,29,13
0,10,10,-5,-5,10,49,127,93,51,29,14
0,8,8,-4,-4,8,48,128,94,52,30,15
0,9,9,-4,-4,9,48,129,96,54,30,16
5,13,8,-9,-1,11,49,132,99,58,32,18
8,18,10,-13,-1,14,50,134,102,61,34,20
8,21,13,-14,-2,17,50,135,104,63,34,21
7,22,15,-14,-4,19,50,136,105,64,35,21
6,22,16,-14,-5,19,50,136,106,65,36,22
6,23,17,-14,-5,20,49,136,108,66,37,23
5,21,16,-13,-5,19,48,136,108,66,38,24
4,21,17,-12,-6,19,47,135,109,67,39,25
6,22,16,-14,-5,19,46,135,110,68,41,26
11,26,15,-18,-2,21,46,135,110,69,42,27
16,32,16,-24,0,24,46,135,112,71,43,28
18,37,19,-27,0,28,46,134,112,72,44,30
13,32,19,-22,-3,26,43,130,109,70,42,28
6,27,21,-16,-7,24,39,125,106,68,39,26
2,24,22,-13,-10,23,37,121,104,68,39,26
1,23,22,-12,-10,23,34,117,101,67,38,26
3,25,22,-14,-9,24,33,114,101,68,39,26
5,26,21,-15,-8,24,31,111,99,68,40,27
7,27,20,-17,-6,24,30,107,96,68,40,26
9,31,22,-20,-6,27,29,103,94,67,40,27
8,30,22,-19,-7,26,26,97,89,65,38,25
5,26,21,-15,-8,24,23,90,83,61,36,24
4,25,21,-14,-8,23,19,83,78,58,34,23
4,25,21,-14,-8,23,16,77,74,56,34,23
5,26,21,-15,-8,24,15,72,70,54,33,23
5,25,20,-15,-7,23,13,67,65,51,32,22
5,25,20,-15,-7,23,11,63,61,49,30,20
4,24,20,-14,-8,22,8,57,55,46,27,18
5,24,19,-14,-7,22,6,52,51,44,25,16
4,22,18,-13,-7,20,4,47,46,42,24,15
3,20,17,-11,-7,19,3,43,41,39,23,14
3,20,17,-11,-7,19,2,39,36,36,22,13
3,18,15,-10,-6,17,1,34,32,33,20,12
0,13,13,-6,-6,13,0,28,26,29,17,9
0,11,11,-5,-5,11,-2,23,21,25,14,7
3,13,10,-8,-3,12,-2,20,18,23,13,6
5,13,8,-9,-1,11,-3,16,15,20,11,4
5,12,7,-8,-1,10,-4,13,11,18,8,2
0,8,8,-4,-4,8,-5,9,7,15,6,0
-4,4,8,0,-6,6,-7,6,3,12,4,-2
-6,1,7,2,-6,4,-7,3,0,9,1,-4
-9,-3,6,6,-8,1,-8,1,-3,5,0,-5
-8,-3,5,5,-7,1,-8,0,-5,3,-2,-6
-4,0,4,2,-4,2,-8,0,-6,3,-4,-7
-2,0,2,1,-2,1,-9,-3,-9,1,-6,-9
-4,-4,0,4,-2,-2,-10,-6,-11,0,-8,-12
-4,-6,-2,5,-1,-4,-11,-8,-13,-2,-10,-14
-3,-6,-3,4,0,-5,-10,-8,-14,-3,-10,-13
-3,-6,-3,4,0,-5,-10,-9,-15,-4,-10,-13
-3,-7,-4,5,0,-6,-9,-10,-16,-6,-11,-14
-5,-9,-4,7,-1,-7,-8,-9,-17,-6,-12,-14
-9,-13,-4,11,-3,-9,-9,-12,-20,-8,-14,-15
-12,-17,-5,14,-4,-11,-9,-13,-22,-10,-16,-17
-9,-15,-6,12,-2,-11,-9,-13,-22,-10,-16,-18
-8,-15,-7,11,-1,-11,-11,-15,-24,-11,-17,-20
-7,-15,-8,11,0,-12,-13,-16,-25,-11,-18,-21
-6,-13,-7,9,0,-10,-11,-15,-24,-11,-17,-20
-6,-11,-5,8,-1,-8,-10,-15,-24,-11,-17,-20
-7,-11,-4,9,-2,-8,-10,-15,-24,-12,-17,-20
-9,-13,-4,11,-3,-9,-10,-16,-26,-15,-18,-20
-9,-14,-5,11,-2,-10,-9,-16,-26,-15,-19,-20
-5,-12,-7,8,1,-10,-9,-15,-27,-16,-19,-20
-4,-12,-8,8,2,-10,-10,-16,-27,-16,-20,-21
-4,-12,-8,8,2,-10,-11,-16,-27,-16,-21,-22
-6,-14,-8,10,1,-11,-12,-16,-27,-17,-22,-23
-11,-17,-6,14,-3,-12,-13,-17,-27,-17,-23,-24
-13,-18,-5,15,-4,-12,-13,-17,-27,-18,-23,-24
-13,-17,-4,15,-5,-11,-13,-17,-27,-18,-23,-24
-13,-17,-4,15,-5,-11,-12,-17,-27,-19,-23,-24
-14,-18,-4,16,-5,-11,-12,-16,-28,-19,-22,-24
-14,-19,-5,16,-5,-12,-12,-16,-28,-18,-22,-24
-13,-20,-7,16,-3,-14,-11,-15,-27,-18,-23,-24
-8,-18,-10,13,1,-14,-10,-14,-26,-17,-22,-23
-4,-14,-10,9,3,-12,-9,-13,-25,-16,-22,-22
-2,-14,-12,8,5,-13,-10,-13,-26,-17,-23,-22
-6,-16,-10,11,2,-13,-10,-14,-27,-18,-24,-23
-8,-16,-8,12,0,-12,-9,-14,-28,-19,-24,-23
-9,-15,-6,12,-2,-11,-9,-14,-27,-19,-23,-23
-10,-15,-5,12,-3,-10,-9,-14,-27,-19,-23,-23
-14,-18,-4,16,-5,-11,-10,-15,-28,-20,-24,-23
-15,-21,-6,18,-5,-14,-11,-17,-29,-21,-26,-24
-12,-21,-9,16,-2,-15,-10,-15,-28,-19,-25,-24
-8,-18,-10,13,1,-14,-9,-15,-28,-19,-25,-24
-7,-17,-10,12,1,-14,-10,-15,-28,-20,-26,-24
-8,-18,-10,13,1,-14,-10,-15,-29,-22,-27,-25
-10,-19,-9,14,-1,-14,-10,-15,-30,-23,-28,-26
-13,-19,-6,16,-4,-13,-9,-15,-30,-24,-28,-27
-14,-17,-3,15,-6,-10,-9,-15,-31,-23,-28,-27
-16,-16,0,16,-8,-8,-9,-15,-31,-24,-28,-27
-14,-14,0,14,-7,-7,-8,-14,-30,-22,-27,-26
-12,-13,-1,12,-6,-7,-8,-14,-29,-22,-27,-26
-14,-18,-4,16,-5,-11,-9,-15,-30,-23,-28,-27
-16,-20,-4,18,-6,-12,-11,-16,-32,-24,-29,-28
-14,-21,-7,17,-4,-14,-10,-16,-33,-25,-30,-29
-10,-19,-9,14,-1,-14,-9,-15,-33,-26,-29,-28
-10,-17,-7,13,-2,-12,-9,-15,-33,-26,-29,-28
-8,-13,-5,10,-2,-9,-8,-14,-33,-26,-28,-27
-8,-12,-4,10,-2,-8,-8,-14,-33,-26,-28,-27
-10,-13,-3,11,-4,-8,-8,-15,-33,-25,-29,-27
-13,-15,-2,14,-6,-9,-8,-15,-34,-25,-29,-27
-15,-18,-3,16,-6,-11,-9,-16,-34,-25,-29,-27
-16,-19,-3,17,-7,-11,-9,-17,-33,-24,-29,-27
-18,-21,-3,19,-8,-12,-9,-17,-33,-24,-29,-27
-18,-23,-5,20,-7,-14,-9,-17,-33,-24,-29,-27
-15,-20,-5,17,-5,-13,-8,-16,-33,-24,-28,-27
-12,-16,-4,14,-4,-10,-8,-15,-32,-23,-27,-26
-10,-12,-2,11,-4,-7,-8,-15,-32,-23,-27,-25
-9,-10,-1,9,-4,-6,-8,-16,-33,-23,-27,-24
-9,-9,0,9,-5,-5,-8,-16,-33,-23,-26,-24
-10,-9,1,9,-6,-4,-9,-16,-32,-23,-25,-24
-12,-10,2,11,-7,-4,-9,-16,-32,-23,-25,-22
-12,-10,2,11,-7,-4,-9,-15,-31,-21,-24,-21
-11,-10,1,10,-6,-5,-8,-14,-30,-20,-23,-21
-9,-10,-1,9,-4,-6,-8,-14,-30,-19,-23,-21
-9,-10,-1,9,-4,-6,-8,-14,-30,-20,-24,-22
-12,-14,-2,13,-5,-8,-10,-16,-32,-22,-26,-24
-13,-14,-1,13,-6,-8,-11,-17,-32,-22,-25,-23
-13,-14,-1,13,-6,-8,-11,-17,-32,-22,-24,-23
-13,-13,0,13,-7,-7,-12,-17,-33,-21,-24,-23
-13,-13,0,13,-7,-7,-11,-17,-33,-21,-24,-22
-12,-13,-1,12,-6,-7,-11,-18,-32,-20,-23,-22
-10,-11,-1,10,-5,-6,-10,-17,-31,-19,-22,-21
-9,-11,-2,10,-4,-7,-8,-17,-30,-18,-22,-20
-11,-12,-1,11,-5,-7,-8,-18,-30,-18,-22,-20
-12,-14,-2,13,-5,-8,-9,-18,-30,-18,-21,-20
-13,-13,0,13,-7,-7,-9,-17,-29,-17,-20,-19
-11,-11,0,11,-6,-6,-9,-16,-28,-16,-19,-18
-7,-9,-2,8,-3,-6,-9,-15,-27,-14,-18,-17
-9,-9,0,9,-5,-5,-9,-16,-27,-14,-18,-17
-11,-12,-1,11,-5,-7,-10,-17,-26,-15,-18,-17
-13,-12,1,12,-7,-6,-10,-16,-25,-14,-17,-16
-11,-11,0,11,-6,-6,-10,-16,-25,-13,-16,-16
-11,-11,0,11,-6,-6,-11,-17,-26,-14,-16,-16
-12,-13,-1,12,-6,-7,-13,-18,-27,-14,-17,-18
-12,-15,-3,13,-5,-9,-14,-19,-29,-15,-18,-19
-12,-16,-4,14,-4,-10,-15,-20,-30,-15,-18,-19
-13,-17,-4,15,-5,-11,-15,-19,-30,-16,-18,-19
-12,-16,-4,14,-4,-10,-15,-18,-29,-15,-19,-19
-10,-13,-3,11,-4,-8,-13,-16,-27,-14,-18,-18
-11,-13,-2,12,-5,-8,-12,-16,-27,-14,-18,-17
-12,-15,-3,13,-5,-9,-12,-17,-27,-14,-19,-17
-14,-16,-2,15,-6,-9,-13,-19,-28,-14,-19,-17
-13,-13,0,13,-7,-7,-12,-18,-27,-13,-18,-16
-7,-7,0,7,-4,-4,-11,-17,-26,-11,-16,-14
-2,-3,-1,2,-1,-2,-11,-17,-25,-11,-16,-14
0,-1,-1,0,0,-1,-11,-16,-25,-11,-15,-15
0,-3,-3,1,1,-3,-12,-16,-25,-11,-15,-16
-4,-7,-3,5,-1,-5,-14,-17,-25,-12,-16,-16
-9,-12,-3,10,-3,-8,-15,-19,-26,-13,-17,-17
-10,-13,-3,11,-4,-8,-14,-19,-25,-12,-16,-16
-7,-10,-3,8,-2,-7,-12,-18,-24,-10,-15,-14
-4,-6,-2,5,-1,-4,-11,-17,-23,-9,-14,-14
-4,-6,-2,5,-1,-4,-11,-18,-23,-10,-15,-13
-9,-13,-4,11,-3,-9,-13,-21,-26,-12,-17,-16
-14,-19,-5,16,-5,-12,-16,-24,-29,-14,-19,-18
-14,-20,-6,17,-4,-13,-16,-23,-30,-14,-19,-18
-11,-20,-9,15,-1,-15,-16,-23,-30,-14,-19,-18
-12,-21,-9,16,-2,-15,-17,-22,-30,-15,-19,-18
-14,-21,-7,17,-4,-14,-17,-22,-29,-15,-19,-18
-13,-19,-6,16,-4,-13,-17,-22,-29,-15,-19,-18
-14,-19,-5,16,-5,-12,-17,-23,-29,-15,-19,-18
-17,-20,-3,18,-7,-12,-18,-23,-30,-16,-20,-20
-14,-17,-3,15,-6,-10,-16,-22,-29,-14,-20,-19
-13,-16,-3,14,-5,-10,-15,-22,-29,-13,-20,-19
-12,-17,-5,14,-4,-11,-15,-22,-29,-13,-20,-18
-8,-15,-7,11,-1,-11,-14,-21,-28,-11,-19,-17
-5,-12,-7,8,1,-10,-13,-20,-27,-11,-18,-16
-5,-12,-7,8,1,-10,-14,-20,-27,-11,-18,-17
-6,-13,-7,9,0,-10,-15,-21,-28,-12,-18,-18
-8,-15,-7,11,-1,-11,-15,-21,-28,-12,-18,-18
-10,-16,-6,13,-2,-11,-15,-21,-28,-12,-19,-17
-11,-15,-4,13,-4,-10,-15,-21,-29,-13,-19,-17
-13,-16,-3,14,-5,-10,-15,-22,-29,-13,-19,-18
-13,-17,-4,15,-5,-11,-15,-23,-30,-14,-19,-18
-16,-21,-5,18,-6,-13,-17,-24,-31,-14,-20,-19
-16,-22,-6,19,-5,-14,-17,-23,-30,-13,-20,-20
-15,-21,-6,18,-5,-14,-16,-23,-29,-12,-19,-19
-12,-19,-7,15,-3,-13,-15,-22,-29,-12,-19,-19
-10,-18,-8,14,-1,-13,-15,-22,-29,-12,-19,-19
-8,-16,-8,12,0,-12,-14,-22,-28,-12,-19,-19
-9,-17,-8,13,-1,-13,-14,-22,-29,-13,-20,-19
-10,-16,-6,13,-2,-11,-14,-22,-30,-13,-20,-19
-9,-15,-6,12,-2,-11,-13,-21,-30,-13,-20,-18
-10,-16,-6,13,-2,-11,-13,-22,-30,-13,-20,-18
-12,-18,-6,15,-3,-12,-15,-23,-31,-15,-21,-19
-12,-18,-6,15,-3,-12,-15,-22,-30,-15,-20,-19
-11,-18,-7,14,-2,-13,-16,-23,-30,-15,-20,-19
-10,-18,-8,14,-1,-13,-16,-23,-30,-15,-19,-20
-11,-19,-8,15,-2,-14,-16,-24,-30,-15,-19,-20
-13,-19,-6,16,-4,-13,-15,-24,-30,-14,-19,-21
-13,-19,-6,16,-4,-13,-15,-24,-30,-14,-19,-21
-13,-18,-5,15,-4,-12,-15,-23,-31,-14,-19,-20
-10,-15,-5,12,-3,-10,-15,-23,-30,-13,-19,-20
-8,-13,-5,10,-2,-9,-15,-22,-29,-13,-19,-19
-8,-13,-5,10,-2,-9,-15,-22,-29,-13,-20,-19
-7,-15,-8,11,0,-12,-16,-23,-29,-13,-20,-19
-6,-14,-8,10,1,-11,-15,-22,-29,-13,-19,-19
-8,-18,-10,13,1,-14,-16,-23,-29,-14,-19,-19
-10,-18,-8,14,-1,-13,-15,-23,-29,-14,-19,-20
-9,-18,-9,13,0,-14,-15,-24,-29,-14,-19,-21
-10,-19,-9,14,-1,-14,-17,-25,-30,-16,-21,-22
-11,-19,-8,15,-2,-14,-17,-25,-31,-16,-21,-22
-11,-19,-8,15,-2,-14,-18,-25,-31,-16,-21,-21
-10,-17,-7,13,-2,-12,-17,-24,-31,-15,-20,-21
-12,-20,-8,16,-2,-14,-18,-25,-32,-15,-21,-20
-16,-23,-7,19,-5,-15,-19,-26,-34,-16,-23,-22
-16,-23,-7,19,-5,-15,-18,-25,-33,-16,-22,-21
-16,-22,-6,19,-5,-14,-17,-24,-32,-15,-21,-21
-16,-22,-6,19,-5,-14,-17,-23,-31,-15,-21,-21
-16,-23,-7,19,-5,-15,-18,-24,-32,-15,-22,-21
-15,-24,-9,19,-3,-17,-18,-24,-32,-16,-22,-21
-13,-21,-8,17,-3,-15,-17,-23,-32,-15,-21,-21
-12,-19,-7,15,-3,-13,-15,-22,-31,-15,-20,-21
-11,-19,-8,15,-2,-14,-15,-22,-31,-15,-20,-21
-11,-19,-8,15,-2,-14,-15,-23,-32,-15,-21,-21
-12,-20,-8,16,-2,-14,-16,-24,-33,-16,-22,-21
-11,-19,-8,15,-2,-14,-16,-24,-32,-16,-22,-20
-11,-18,-7,14,-2,-13,-17,-25,-31,-15,-21,-20
-11,-18,-7,14,-2,-13,-17,-25,-31,-15,-21,-19
-11,-18,-7,14,-2,-13,-18,-25,-31,-16,-20,-20
-11,-19,-8,15,-2,-14,-18,-25,-32,-16,-21,-20
-12,-20,-8,16,-2,-14,-19,-25,-32,-16,-21,-21
-9,-17,-8,13,-1,-13,-17,-22,-30,-14,-19,-20
-8,-17,-9,12,0,-13,-17,-21,-30,-14,-19,-20
-7,-17,-10,12,1,-14,-16,-20,-30,-14,-20,-20
-9,-18,-9,13,0,-14,-16,-20,-31,-14,-21,-20
-10,-18,-8,14,-1,-13,-17,-21,-30,-15,-22,-20
-8,-16,-8,12,0,-12,-17,-21,-30,-15,-21,-19
-9,-15,-6,12,-2,-11,-16,-21,-29,-15,-20,-19
-9,-15,-6,12,-2,-11,-16,-22,-29,-15,-19,-19
-7,-12,-5,9,-1,-9,-16,-22,-29,-14,-18,-19
-3,-9,-6,6,1,-8,-15,-21,-28,-13,-17,-18
-3,-11,-8,7,2,-10,-15,-22,-28,-13,-17,-18
-7,-17,-10,12,1,-14,-15,-22,-28,-13,-19,-18
-10,-22,-12,16,1,-17,-16,-23,-30,-14,-20,-20
-11,-23,-12,17,0,-18,-16,-23,-30,-15,-22,-20
-8,-21,-13,14,2,-17,-15,-22,-29,-13,-20,-18
-8,-19,-11,13,1,-15,-15,-21,-28,-13,-19,-17
-10,-19,-9,14,-1,-14,-16,-23,-30,-14,-19,-19
-13,-20,-7,16,-3,-14,-18,-24,-32,-16,-21,-21
-16,-22,-6,19,-5,-14,-19,-25,-33,-17,-21,-22
-16,-21,-5,18,-6,-13,-19,-26,-33,-17,-21,-22
-14,-21,-7,17,-4,-14,-20,-26,-33,-17,-22,-22
-13,-21,-8,17,-3,-15,-19,-25,-32,-17,-22,-21
-10,-19,-9,14,-1,-14,-17,-23,-31,-16,-21,-21
-6,-16,-10,11,2,-13,-16,-22,-30,-16,-21,-21
-3,-14,-11,8,4,-13,-15,-21,-28,-15,-20,-20
-5,-15,-10,10,2,-13,-15,-21,-29,-15,-20,-21
-8,-18,-10,13,1,-14,-16,-21,-29,-16,-19,-21
-11,-21,-10,16,-1,-16,-17,-23,-31,-17,-20,-22
-12,-22,-10,17,-1,-16,-18,-25,-32,-17,-20,-22
-13,-22,-9,17,-2,-16,-19,-26,-32,-17,-20,-22
-15,-22,-7,18,-4,-15,-20,-25,-31,-17,-20,-21
-15,-22,-7,18,-4,-15,-20,-25,-31,-17,-21,-22
-10,-20,-10,15,0,-15,-19,-25,-30,-16,-21,-21
-7,-19,-12,13,2,-16,-17,-24,-30,-16,-21,-20
-7,-20,-13,13,3,-17,-16,-24,-30,-15,-21,-20
-8,-22,-14,15,3,-18,-16,-24,-31,-16,-23,-22
-11,-23,-12,17,0,-18,-15,-24,-32,-16,-21,-21
-13,-23,-10,18,-2,-17,-15,-24,-32,-15,-20,-21
-13,-22,-9,17,-2,-16,-16,-23,-31,-15,-19,-20
-12,-19,-7,15,-3,-13,-17,-22,-30,-15,-19,-19
-13,-20,-7,16,-3,-14,-18,-22,-30,-15,-20,-19
-14,-22,-8,18,-3,-15,-19,-23,-31,-17,-22,-21
-14,-23,-9,18,-3,-16,-18,-23,-32,-17,-23,-22
-12,-21,-9,16,-2,-15,-16,-23,-32,-17,-23,-22
-11,-21,-10,16,-1,-16,-16,-23,-31,-16,-22,-22
-12,-20,-8,16,-2,-14,-17,-24,-31,-15,-22,-21
-12,-20,-8,16,-2,-14,-17,-24,-31,-15,-21,-21
-13,-21,-8,17,-3,-15,-17,-24,-31,-15,-20,-21
-16,-23,-7,19,-5,-15,-17,-24,-32,-15,-20,-20
-14,-20,-6,17,-4,-13,-16,-23,-31,-14,-19,-19
-10,-17,-7,13,-2,-12,-16,-23,-30,-14,-19,-17
-9,-17,-8,13,-1,-13,-16,-23,-30,-15,-20,-17
-9,-17,-8,13,-1,-13,-15,-23,-29,-15,-20,-17
-10,-20,-10,15,0,-15,-17,-24,-30,-16,-21,-19
-9,-19,-10,14,0,-15,-16,-23,-30,-16,-21,-20
-6,-16,-10,11,2,-13,-14,-20,-28,-14,-19,-18
-6,-15,-9,10,1,-12,-13,-19,-27,-14,-18,-18
-7,-15,-8,11,0,-12,-13,-20,-28,-14,-18,-18
-8,-17,-9,12,0,-13,-12,-20,-29,-15,-18,-18
-7,-15,-8,11,0,-12,-12,-20,-28,-14,-18,-17
-7,-16,-9,11,1,-13,-13,-21,-29,-14,-18,-18
-7,-16,-9,11,1,-13,-14,-22,-30,-15,-19,-18
-8,-16,-8,12,0,-12,-14,-22,-30,-14,-18,-18
-11,-18,-7,14,-2,-13,-14,-22,-30,-15,-19,-18
-13,-20,-7,16,-3,-14,-14,-23,-30,-15,-19,-18
-10,-18,-8,14,-1,-13,-14,-23,-29,-15,-19,-18
-12,-19,-7,15,-3,-13,-15,-23,-29,-15,-19,-18
-14,-22,-8,18,-3,-15,-16,-24,-30,-16,-20,-20
-12,-20,-8,16,-2,-14,-16,-22,-29,-16,-20,-19
-9,-19,-10,14,0,-15,-15,-21,-29,-16,-20,-19
-9,-18,-9,13,0,-14,-14,-20,-29,-15,-20,-19
-9,-19,-10,14,0,-15,-14,-20,-29,-15,-20,-20
-9,-18,-9,13,0,-14,-14,-20,-29,-15,-20,-20
-8,-15,-7,11,-1,-11,-12,-19,-28,-14,-18,-19
-8,-14,-6,11,-1,-10,-11,-18,-27,-13,-18,-19
-9,-12,-3,10,-3,-8,-9,-17,-27,-12,-18,-18
-9,-10,-1,9,-4,-6,-8,-16,-26,-11,-18,-18
-11,-11,0,11,-6,-6,-7,-17,-26,-12,-18,-19
-13,-12,1,12,-7,-6,-7,-17,-27,-12,-19,-19
-12,-11,1,11,-7,-5,-6,-17,-26,-11,-19,-19
-12,-10,2,11,-7,-4,-4,-16,-24,-10,-18,-18
-12,-10,2,11,-7,-4,-3,-15,-23,-10,-17,-17
-12,-10,2,11,-7,-4,-2,-14,-22,-10,-16,-16
-12,-10,2,11,-7,-4,-1,-13,-22,-10,-16,-16
-12,-9,3,10,-8,-3,0,-13,-22,-10,-15,-17
-11,-6,5,8,-8,-1,2,-13,-21,-9,-15,-16
-13,-6,7,9,-10,0,3,-13,-21,-9,-14,-15
-14,-5,9,9,-12,2,3,-13,-22,-9,-14,-15
-13,-3,10,8,-12,3,1,-14,-22,-8,-13,-14
-11,0,11,5,-11,5,-2,-15,-23,-8,-13,-14
-10,1,11,4,-10,6,-4,-16,-24,-8,-13,-14
-10,1,11,4,-10,6,-6,-16,-24,-8,-13,-13
-7,5,12,1,-9,8,-8,-16,-24,-8,-12,-12
-4,7,11,-1,-7,9,-9,-16,-24,-7,-11,-12
-8,5,13,1,-10,9,-12,-19,-25,-8,-11,-13
-10,4,14,3,-12,9,-15,-21,-26,-8,-11,-13
-7,6,13,0,-10,9,-17,-23,-26,-7,-10,-13
-5,8,13,-1,-9,10,-20,-25,-27,-8,-10,-13
-4,9,13,-2,-8,11,-22,-27,-27,-9,-10,-12
-3,9,12,-3,-7,10,-24,-29,-27,-8,-10,-11
0,9,9,-4,-4,9,-25,-28,-27,-8,-10,-10
0,7,7,-3,-3,7,-26,-28,-28,-8,-10,-11
-2,5,7,-1,-4,6,-28,-28,-28,-8,-10,-11
-5,1,6,2,-5,3,-29,-28,-29,-8,-10,-11
-4,1,5,1,-4,3,-29,-27,-28,-6,-8,-10
0,3,3,-1,-1,3,-27,-24,-25,-3,-5,-8
5,5,0,-5,3,3,-25,-23,-23,-2,-3,-7
10,7,-3,-8,7,2,-24,-22,-22,-1,-3,-6
12,5,-7,-8,10,-1,-23,-21,-21,-1,-3,-6
10,2,-8,-6,9,-3,-22,-21,-21,-1,-3,-6
2,-5,-7,1,4,-6,-22,-21,-22,-3,-5,-7
-2,-8,-6,5,2,-7,-21,-20,-22,-3,-5,-7
-5,-10,-5,7,0,-8,-19,-20,-22,-3,-6,-8
-7,-11,-4,9,-2,-8,-19,-20,-23,-4,-7,-10
-8,-12,-4,10,-2,-8,-20,-22,-25,-6,-9,-11
-9,-14,-5,11,-2,-10,-20,-23,-26,-7,-11,-14
-11,-18,-7,14,-2,-13,-21,-24,-28,-10,-13,-17
-11,-19,-8,15,-2,-14,-20,-25,-28,-11,-15,-18
-9,-21,-12,15,1,-17,-19,-25,-29,-12,-16,-19
-7,-20,-13,13,3,-17,-18,-26,-31,-14,-17,-19
-4,-19,-15,11,5,-17,-18,-26,-32,-15,-18,-19
-4,-18,-14,11,5,-16,-18,-26,-33,-17,-19,-20
-5,-20,-15,12,5,-18,-19,-27,-34,-18,-20,-21
-9,-24,-15,16,3,-20,-21,-29,-36,-20,-21,-23
-8,-24,-16,16,4,-20,-21,-30,-36,-19,-21,-23
-7,-22,-15,14,4,-19,-21,-29,-35,-19,-21,-22
-8,-23,-15,15,3,-19,-22,-30,-36,-19,-21,-22
-8,-23,-15,15,3,-19,-22,-31,-36,-19,-21,-22
-8,-24,-16,16,4,-20,-22,-30,-35,-18,-21,-22
-6,-22,-16,14,5,-19,-21,-29,-34,-18,-20,-21
-5,-21,-16,13,5,-19,-21,-28,-34,-18,-20,-21
-9,-23,-14,16,2,-19,-21,-29,-34,-19,-20,-22
-11,-24,-13,17,1,-19,-21,-29,-34,-20,-20,-23
-11,-24,-13,17,1,-19,-21,-28,-34,-20,-20,-24
-12,-28,-16,20,2,-22,-22,-29,-35,-21,-21,-25
-13,-29,-16,21,1,-23,-22,-29,-35,-21,-21,-25
-12,-28,-16,20,2,-22,-22,-29,-35,-20,-21,-24
-12,-29,-17,20,2,-23,-22,-30,-36,-21,-22,-24
-11,-27,-16,19,2,-22,-22,-29,-36,-21,-22,-24
-9,-25,-16,17,3,-21,-22,-29,-36,-21,-22,-24
-7,-23,-16,15,4,-20,-20,-28,-35,-20,-21,-23
-9,-23,-14,16,2,-19,-20,-27,-35,-20,-21,-23
-12,-26,-14,19,1,-20,-20,-28,-35,-20,-21,-24
-15,-30,-15,22,0,-23,-21,-29,-35,-21,-22,-25
-14,-28,-14,21,0,-21,-19,-27,-33,-19,-20,-24
-8,-22,-14,15,3,-18,-17,-26,-32,-19,-17,-22
-6,-19,-13,12,3,-16,-17,-26,-31,-19,-17,-22
-8,-20,-12,14,2,-16,-18,-27,-31,-19,-17,-22
-9,-22,-13,15,2,-18,-20,-27,-31,-19,-18,-21
-10,-23,-13,16,1,-18,-21,-26,-29,-17,-18,-20
-11,-23,-12,17,0,-18,-20,-24,-27,-15,-16,-19
-9,-22,-13,15,2,-18,-18,-21,-22,-11,-13,-17
-6,-20,-14,13,4,-17,-15,-14,-16,-5,-10,-15
-2,-14,-12,8,5,-13,-5,-1,-5,1,-4,-11
0,-6,-6,3,3,-6,10,21,14,17,6,-2
2,3,1,-2,1,2,24,45,40,39,24,12
3,12,9,-7,-3,11,35,62,64,65,45,29
4,24,20,-14,-8,22,44,75,92,98,73,53
8,41,33,-24,-12,37,53,88,125,140,107,83
11,62,51,-36,-20,57,56,103,163,187,146,116
21,90,69,-55,-24,80,50,113,202,237,189,154
36,122,86,-79,-25,104,34,119,240,290,236,195
54,151,97,-102,-21,124,11,116,269,336,278,231
68,168,100,-118,-16,134,-14,107,289,366,307,256
79,174,95,-126,-8,135,-40,97,301,382,323,271
90,177,87,-133,2,132,-70,79,298,381,325,274
95,171,76,-133,10,124,-108,46,268,353,308,264
95,162,67,-128,14,115,-146,-3,208,296,270,238
84,148,64,-116,10,106,-181,-68,116,212,210,195
70,122,52,-96,9,87,-202,-127,27,128,147,146
60,91,31,-75,15,61,-211,-170,-44,61,96,103
50,60,10,-55,20,35,-210,-195,-96,8,53,66
40,33,-7,-36,24,13,-201,-204,-128,-28,19,34
28,14,-14,-21,21,0,-186,-201,-142,-52,-6,8
21,2,-19,-11,20,-8,-166,-186,-142,-64,-22,-9
15,-6,-21,-4,18,-13,-145,-166,-133,-66,-30,-20
10,-12,-22,1,16,-17,-123,-141,-118,-63,-34,-25
8,-15,-23,3,15,-19,-102,-117,-99,-57,-33,-26
3,-20,-23,8,13,-21,-83,-95,-84,-50,-32,-26
-2,-22,-20,12,9,-21,-67,-77,-71,-45,-31,-26
-5,-21,-16,13,5,-19,-51,-62,-60,-39,-29,-26
-7,-20,-13,13,3,-17,-39,-49,-52,-34,-27,-25
-7,-18,-11,12,2,-15,-29,-40,-45,-31,-25,-25
-8,-18,-10,13,1,-14,-22,-34,-41,-28,-23,-25
-10,-18,-8,14,-1,-13,-17,-29,-39,-27,-22,-24
-8,-15,-7,11,-1,-11,-13,-25,-35,-24,-21,-23
-6,-13,-7,9,0,-10,-9,-20,-32,-22,-20,-22
-5,-11,-6,8,0,-9,-6,-17,-28,-21,-19,-22
-3,-11,-8,7,2,-10,-3,-13,-26,-20,-19,-21
-3,-10,-7,6,2,-9,-1,-10,-23,-18,-18,-20
-4,-10,-6,7,1,-8,1,-7,-21,-16,-17,-20
-5,-11,-6,8,0,-9,3,-6,-21,-16,-17,-20
-5,-12,-7,8,1,-10,4,-4,-21,-17,-18,-21
-5,-13,-8,9,1,-11,5,-3,-21,-18,-18,-22
-6,-15,-9,10,1,-12,5,-3,-21,-18,-19,-22
-6,-14,-8,10,1,-11,5,-2,-20,-18,-19,-21
-7,-14,-7,10,0,-11,6,-1,-19,-17,-19,-21
-9,-16,-7,12,-1,-12,6,-1,-18,-17,-19,-21
-9,-15,-6,12,-2,-11,6,-1,-18,-16,-19,-21
-5,-12,-7,8,1,-10,8,0,-17,-15,-18,-20
-4,-11,-7,7,1,-9,10,1,-16,-15,-17,-20
-4,-11,-7,7,1,-9,10,2,-16,-15,-17,-20
-4,-11,-7,7,1,-9,11,4,-15,-15,-16,-20
-5,-12,-7,8,1,-10,11,4,-15,-15,-16,-20
-7,-13,-6,10,-1,-10,10,4,-15,-15,-17,-21
-9,-12,-3,10,-3,-8,10,4,-14,-14,-17,-20
-9,-12,-3,10,-3,-8,10,4,-13,-14,-17,-19
-10,-14,-4,12,-3,-9,10,4,-13,-14,-17,-19
-12,-16,-4,14,-4,-10,11,5,-12,-13,-17,-19
-10,-15,-5,12,-3,-10,12,6,-11,-12,-16,-19
-8,-13,-5,10,-2,-9,14,7,-10,-11,-15,-19
-5,-10,-5,7,0,-8,14,8,-9,-9,-15,-18
-4,-10,-6,7,1,-8,14,9,-9,-9,-14,-18
-5,-9,-4,7,-1,-7,14,9,-11,-9,-14,-18
-5,-8,-3,6,-1,-6,14,10,-11,-9,-13,-18
-8,-11,-3,9,-3,-7,13,10,-11,-9,-14,-18
-9,-12,-3,10,-3,-8,14,11,-10,-9,-13,-17
-11,-12,-1,11,-5,-7,13,11,-9,-9,-13,-17
-11,-14,-3,12,-4,-9,13,11,-9,-10,-13,-17
-9,-12,-3,10,-3,-8,14,13,-8,-9,-13,-17
-8,-10,-2,9,-3,-6,15,13,-7,-10,-14,-16
-9,-11,-2,10,-4,-7,15,14,-7,-10,-14,-17
-10,-14,-4,12,-3,-9,14,14,-7,-10,-15,-18
-10,-14,-4,12,-3,-9,15,14,-6,-10,-14,-18
-8,-11,-3,9,-3,-7,16,15,-5,-8,-12,-17
-8,-8,0,8,-4,-4,18,16,-4,-7,-11,-16
-8,-7,1,7,-5,-3,18,17,-4,-7,-11,-16
-9,-10,-1,9,-4,-6,17,16,-5,-7,-13,-16
-12,-14,-2,13,-5,-8,16,16,-6,-9,-15,-18
-14,-17,-3,15,-6,-10,16,17,-6,-9,-15,-18
-14,-19,-5,16,-5,-12,15,17,-6,-11,-17,-20
-10,-15,-5,12,-3,-10,16,19,-4,-9,-15,-19
-7,-12,-5,9,-1,-9,17,21,-3,-8,-15,-18
-7,-12,-5,9,-1,-9,16,22,-3,-8,-14,-19
-10,-14,-4,12,-3,-9,16,22,-3,-8,-15,-19
-11,-12,-1,11,-5,-7,18,23,-2,-7,-14,-18
-11,-11,0,11,-6,-6,19,23,-1,-6,-14,-18
-9,-10,-1,9,-4,-6,21,25,0,-5,-13,-17
-9,-11,-2,10,-4,-7,22,26,1,-4,-13,-16
-12,-15,-3,13,-5,-9,21,27,0,-4,-14,-16
-14,-19,-5,16,-5,-12,20,26,0,-5,-15,-17
-13,-18,-5,15,-4,-12,21,27,2,-4,-14,-16
-8,-13,-5,10,-2,-9,23,30,4,-2,-12,-15
-6,-9,-3,7,-2,-6,23,31,6,-3,-11,-15
-5,-7,-2,6,-2,-5,23,33,6,-3,-11,-16
-3,-6,-3,4,0,-5,23,34,6,-3,-11,-16
-2,-4,-2,3,0,-3,23,35,7,-2,-11,-16
-2,-4,-2,3,0,-3,25,37,9,0,-10,-15
-3,-5,-2,4,-1,-4,25,38,10,0,-10,-14
-5,-7,-2,6,-2,-5,25,39,10,0,-10,-13
-7,-8,-1,7,-3,-5,26,40,11,1,-10,-13
-9,-9,0,9,-5,-5,26,41,12,0,-10,-13
-10,-10,0,10,-5,-5,27,42,12,-1,-10,-13
-12,-11,1,11,-7,-5,28,43,12,-1,-10,-14
-13,-12,1,12,-7,-6,28,44,13,-1,-10,-14
-14,-14,0,14,-7,-7,28,44,13,-1,-10,-14
-14,-16,-2,15,-6,-9,28,44,13,-3,-11,-15
-15,-16,-1,15,-7,-9,29,45,14,-2,-12,-16
-12,-12,0,12,-6,-6,30,48,15,0,-10,-14
-8,-8,0,8,-4,-4,31,50,17,1,-9,-14
-5,-5,0,5,-3,-3,32,53,19,2,-7,-13
-4,-4,0,4,-2,-2,33,55,20,4,-6,-11
-2,-2,0,2,-1,-1,34,58,23,6,-4,-10
-2,-2,0,2,-1,-1,35,60,25,7,-4,-9
-3,-4,-1,3,-1,-3,36,62,27,8,-4,-8
-3,-3,0,3,-2,-2,36,64,29,9,-2,-7
-3,-1,2,2,-3,0,37,66,31,10,-1,-6
-3,-1,2,2,-3,0,38,68,33,11,0,-6
-4,-1,3,2,-4,1,37,69,34,11,0,-5
-7,-3,4,5,-6,0,37,71,35,12,0,-5
-8,-2,6,5,-7,2,37,73,36,12,1,-4
-8,-1,7,4,-8,3,38,76,38,14,3,-4
-8,-1,7,4,-8,3,38,78,40,16,3,-3
-5,2,7,1,-6,4,40,81,43,17,4,-3
-1,3,4,-1,-2,3,42,83,45,19,5,-2
1,3,2,-2,0,3,42,85,47,20,5,-1
3,4,1,-3,1,3,42,89,49,21,6,0
3,5,2,-4,1,4,43,91,51,23,9,1
5,7,2,-6,2,5,44,94,53,25,10,3
4,7,3,-5,1,5,44,96,55,26,12,3
1,6,5,-3,-2,6,45,97,57,27,12,4
-1,5,6,-2,-3,5,45,99,60,27,12,4
0,9,9,-4,-4,9,47,102,63,30,14,5
2,11,9,-6,-3,10,48,105,66,31,15,6
2,9,7,-5,-2,8,47,107,68,33,16,7
1,8,7,-4,-3,8,47,110,71,34,17,7
0,8,8,-4,-4,8,48,113,74,36,19,8
-1,8,9,-3,-5,8,48,114,76,38,20,10
-2,8,10,-3,-6,9,48,115,78,39,21,11
-1,10,11,-4,-6,10,49,118,81,42,22,13
0,11,11,-5,-5,11,49,120,84,44,23,14
2,13,11,-7,-4,12,50,123,87,46,24,15
4,15,11,-9,-3,13,50,126,90,49,26,17
8,18,10,-13,-1,14,51,128,93,52,29,19
10,21,11,-15,0,16,50,130,95,53,31,21
10,21,11,-15,0,16,49,130,97,55,32,21
10,22,12,-16,-1,17,49,131,100,57,34,23
8,20,12,-14,-2,16,48,132,102,59,35,24
5,20,15,-12,-5,18,48,132,102,60,35,24
7,22,15,-14,-4,19,48,134,104,62,37,25
9,25,16,-17,-3,21,48,135,106,64,39,26
9,26,17,-17,-4,22,47,134,106,65,40,27
10,26,16,-18,-3,21,46,133,106,64,40,28
14,30,16,-22,-1,23,46,133,106,65,41,29
16,31,15,-23,1,23,46,131,107,65,42,31
15,30,15,-22,0,23,44,129,106,65,41,30
11,28,17,-19,-3,23,42,127,104,64,40,29
9,25,16,-17,-3,21,41,124,103,63,39,29
12,29,17,-20,-2,23,40,122,103,65,40,30
14,33,19,-23,-2,26,39,120,103,66,41,31
13,34,21,-23,-4,28,37,117,101,65,40,31
13,34,21,-23,-4,28,34,113,99,64,39,30
13,35,22,-24,-4,29,32,109,96,62,39,30
14,36,22,-25,-4,29,29,104,93,60,38,30
16,37,21,-26,-2,29,27,99,90,59,37,29
14,34,20,-24,-3,27,24,92,85,56,35,28
13,35,22,-24,-4,29,22,87,81,56,35,28
16,37,21,-26,-2,29,21,82,77,55,34,28
16,36,20,-26,-2,28,19,76,72,53,33,26
13,34,21,-23,-4,28,17,70,66,51,31,25
10,30,20,-20,-5,25,13,64,60,48,29,23
7,26,19,-16,-6,23,10,58,55,44,26,22
8,28,20,-18,-6,24,9,53,50,41,25,21
8,26,18,-17,-5,22,7,49,45,38,22,19
6,21,15,-13,-4,18,4,44,40,34,20,17
5,17,12,-11,-3,15,2,39,35,30,18,14
6,16,10,-11,-2,13,1,34,31,27,16,12
7,16,9,-11,-1,13,0,30,28,26,15,11
9,18,9,-13,0,14,0,27,25,24,14,10
7,16,9,-11,-1,13,-1,22,19,22,11,7
2,11,9,-6,-3,10,-3,17,14,18,8,5
1,8,7,-4,-3,8,-4,13,10,14,5,3
1,7,6,-4,-2,7,-5,9,7,12,3,3
0,6,6,-3,-3,6,-6,7,4,10,1,1
0,5,5,-2,-2,5,-6,5,2,9,0,1
1,5,4,-3,-1,5,-6,3,0,7,0,0
3,6,3,-4,0,5,-6,1,-1,6,-2,-1
3,6,3,-4,0,5,-5,0,-3,4,-3,-2
2,5,3,-3,0,4,-6,-1,-6,3,-5,-4
2,5,3,-3,0,4,-5,-3,-8,1,-6,-5
4,4,0,-4,2,2,-5,-4,-10,0,-7,-6
3,2,-1,-2,2,1,-6,-6,-12,-3,-9,-8
2,-1,-3,0,2,-2,-7,-7,-14,-5,-11,-9
-4,-7,-3,5,-1,-5,-9,-9,-16,-7,-12,-10
-9,-13,-4,11,-3,-9,-10,-11,-18,-9,-14,-12
-11,-15,-4,13,-4,-10,-11,-13,-20,-11,-15,-13
-12,-17,-5,14,-4,-11,-11,-14,-21,-12,-16,-14
-12,-17,-5,14,-4,-11,-11,-15,-22,-12,-17,-15
-11,-14,-3,12,-4,-9,-11,-16,-23,-13,-18,-16
-8,-11,-3,9,-3,-7,-12,-16,-24,-13,-19,-17
-4,-8,-4,6,0,-6,-13,-16,-24,-14,-19,-18
-1,-8,-7,4,3,-8,-13,-16,-24,-14,-20,-18
0,-8,-8,4,4,-8,-12,-16,-24,-14,-20,-18
0,-9,-9,4,4,-9,-12,-16,-24,-14,-20,-18
0,-11,-11,5,5,-11,-12,-16,-25,-14,-20,-18
0,-13,-13,6,6,-13,-12,-17,-26,-15,-21,-19
-2,-13,-11,7,4,-12,-12,-17,-27,-16,-21,-18
-4,-13,-9,8,2,-11,-11,-17,-26,-16,-21,-18
-4,-12,-8,8,2,-10,-10,-15,-26,-15,-21,-17
-4,-11,-7,7,1,-9,-10,-14,-26,-16,-21,-17
-3,-11,-8,7,2,-10,-10,-14,-26,-16,-21,-17
-1,-11,-10,6,4,-11,-11,-14,-26,-16,-22,-17
-2,-13,-11,7,4,-12,-11,-14,-27,-17,-22,-17
-6,-17,-11,11,2,-14,-12,-15,-27,-18,-24,-19
-8,-20,-12,14,2,-16,-12,-16,-27,-19,-25,-20
-6,-17,-11,11,2,-14,-11,-16,-26,-19,-25,-20
-6,-14,-8,10,1,-11,-10,-16,-26,-18,-24,-20
-9,-15,-6,12,-2,-11,-10,-16,-26,-19,-25,-20
-11,-17,-6,14,-3,-12,-11,-17,-27,-19,-25,-20
-10,-17,-7,13,-2,-12,-11,-16,-28,-20,-26,-20
-10,-17,-7,13,-2,-12,-11,-15,-28,-20,-26,-21
-9,-18,-9,13,0,-14,-10,-14,-28,-20,-26,-21
-5,-16,-11,10,3,-14,-9,-13,-27,-21,-26,-21
-1,-13,-12,7,5,-13,-7,-13,-26,-21,-27,-21
0,-13,-13,6,6,-13,-7,-13,-27,-22,-27,-21
-2,-12,-10,7,4,-11,-8,-14,-28,-22,-28,-22
-6,-13,-7,9,0,-10,-8,-15,-29,-23,-29,-22
-13,-17,-4,15,-5,-11,-9,-16,-30,-24,-30,-23
-16,-19,-3,17,-7,-11,-10,-16,-31,-24,-31,-23
-17,-22,-5,19,-6,-14,-11,-17,-31,-25,-31,-24
-15,-20,-5,17,-5,-13,-10,-16,-30,-25,-31,-24
-11,-19,-8,15,-2,-14,-10,-16,-30,-25,-30,-24
-9,-20,-11,14,1,-16,-10,-17,-30,-26,-30,-25
-7,-18,-11,12,2,-15,-10,-17,-30,-27,-30,-25
-7,-18,-11,12,2,-15,-9,-16,-30,-27,-30,-25
-9,-18,-9,13,0,-14,-9,-15,-31,-26,-31,-25
-12,-18,-6,15,-3,-12,-9,-15,-31,-26,-31,-25
-13,-17,-4,15,-5,-11,-9,-14,-32,-27,-32,-25
-10,-15,-5,12,-3,-10,-9,-14,-32,-26,-31,-24
-10,-15,-5,12,-3,-10,-9,-14,-32,-27,-32,-25
-10,-16,-6,13,-2,-11,-8,-14,-31,-27,-31,-24
-12,-19,-7,15,-3,-13,-9,-16,-31,-27,-31,-25
-13,-20,-7,16,-3,-14,-11,-18,-33,-28,-32,-26
-11,-18,-7,14,-2,-13,-10,-17,-32,-27,-30,-24
-10,-15,-5,12,-3,-10,-10,-17,-32,-26,-29,-23
-8,-13,-5,10,-2,-9,-10,-16,-32,-26,-29,-21
-7,-10,-3,8,-2,-7,-10,-16,-32,-26,-29,-21
-7,-7,0,7,-4,-4,-9,-15,-33,-26,-29,-21
-5,-5,0,5,-3,-3,-9,-15,-32,-25,-28,-21
-6,-8,-2,7,-2,-5,-9,-15,-32,-24,-28,-21
-8,-10,-2,9,-3,-6,-9,-16,-33,-23,-29,-22
-9,-13,-4,11,-3,-9,-9,-16,-32,-23,-29,-22
-9,-14,-5,11,-2,-10,-9,-17,-33,-24,-29,-23
-11,-16,-5,13,-3,-11,-10,-18,-34,-24,-30,-23
-13,-18,-5,15,-4,-12,-11,-18,-35,-25,-31,-24
-12,-17,-5,14,-4,-11,-12,-19,-36,-26,-31,-25
-10,-14,-4,12,-3,-9,-12,-17,-36,-25,-29,-24
-8,-11,-3,9,-3,-7,-11,-17,-35,-25,-28,-23
-10,-12,-2,11,-4,-7,-11,-16,-34,-25,-28,-22
-10,-13,-3,11,-4,-8,-10,-17,-32,-24,-28,-21
-11,-16,-5,13,-3,-11,-10,-16,-31,-24,-27,-20
-12,-18,-6,15,-3,-12,-11,-16,-31,-24,-27,-20
-13,-18,-5,15,-4,-12,-11,-17,-31,-23,-27,-20
-13,-17,-4,15,-5,-11,-11,-18,-30,-22,-25,-19
-11,-15,-4,13,-4,-10,-11,-18,-30,-20,-23,-17
-10,-11,-1,10,-5,-6,-11,-18,-29,-18,-21,-17
-8,-10,-2,9,-3,-6,-12,-18,-29,-18,-21,-16
-8,-10,-2,9,-3,-6,-12,-19,-29,-18,-21,-17
-7,-8,-1,7,-3,-5,-13,-18,-28,-18,-21,-16
-7,-9,-2,8,-3,-6,-13,-18,-28,-18,-21,-16
-11,-14,-3,12,-4,-9,-14,-19,-29,-19,-22,-18
-13,-15,-2,14,-6,-9,-13,-18,-30,-19,-22,-18
-8,-12,-4,10,-2,-8,-11,-17,-29,-17,-21,-15
-6,-11,-5,8,-1,-8,-11,-17,-29,-16,-21,-15
-6,-12,-6,9,0,-9,-12,-18,-29,-16,-22,-15
-8,-13,-5,10,-2,-9,-13,-20,-30,-16,-22,-15
-11,-15,-4,13,-4,-10,-14,-22,-31,-16,-22,-15
-11,-14,-3,12,-4,-9,-15,-21,-31,-17,-23,-15
-10,-12,-2,11,-4,-7,-14,-20,-30,-16,-22,-14
-8,-11,-3,9,-3,-7,-14,-20,-30,-16,-21,-14
-9,-11,-2,10,-4,-7,-15,-19,-30,-15,-21,-14
-9,-12,-3,10,-3,-8,-15,-19,-29,-16,-20,-14
-10,-14,-4,12,-3,-9,-16,-20,-30,-16,-21,-14
-9,-14,-5,11,-2,-10,-15,-20,-30,-16,-20,-14
-8,-13,-5,10,-2,-9,-14,-19,-28,-14,-18,-13
-6,-10,-4,8,-1,-7,-12,-18,-25,-12,-16,-11
-3,-7,-4,5,0,-6,-12,-18,-25,-11,-16,-11
-4,-7,-3,5,-1,-5,-13,-19,-25,-11,-16,-11
-6,-8,-2,7,-2,-5,-14,-19,-25,-10,-16,-11
-10,-13,-3,11,-4,-8,-16,-20,-26,-12,-18,-12
-13,-18,-5,15,-4,-12,-17,-21,-28,-14,-20,-14
-15,-22,-7,18,-4,-15,-18,-22,-29,-16,-22,-15
-15,-22,-7,18,-4,-15,-18,-23,-30,-17,-22,-15
-16,-24,-8,20,-4,-16,-18,-24,-31,-18,-23,-16
-15,-23,-8,19,-4,-16,-19,-24,-31,-19,-23,-16
-11,-18,-7,14,-2,-13,-17,-24,-30,-17,-21,-15
-7,-14,-7,10,0,-11,-17,-24,-30,-16,-20,-15
-6,-10,-4,8,-1,-7,-16,-23,-29,-14,-19,-15
-4,-9,-5,6,0,-7,-16,-22,-28,-12,-18,-14
-2,-6,-4,4,1,-5,-15,-20,-27,-11,-17,-12
-1,-7,-6,4,2,-7,-15,-20,-27,-11,-17,-12
-2,-9,-7,5,2,-8,-16,-21,-28,-12,-18,-12
-2,-11,-9,6,3,-10,-16,-22,-28,-13,-19,-11
-2,-13,-11,7,4,-12,-16,-22,-27,-13,-19,-11
-3,-15,-12,9,4,-14,-17,-23,-27,-13,-19,-11
-7,-18,-11,12,2,-15,-18,-23,-28,-14,-19,-13
-13,-22,-9,17,-2,-16,-22,-26,-31,-17,-22,-16
-17,-24,-7,20,-5,-16,-23,-27,-33,-19,-23,-18
-16,-22,-6,19,-5,-14,-22,-27,-33,-19,-24,-19
-14,-20,-6,17,-4,-13,-21,-27,-33,-18,-23,-19
-9,-17,-8,13,-1,-13,-20,-26,-31,-16,-22,-17
-9,-17,-8,13,-1,-13,-19,-26,-31,-16,-22,-16
-7,-16,-9,11,1,-13,-19,-25,-30,-16,-22,-16
-6,-16,-10,11,2,-13,-20,-24,-31,-17,-22,-16
-4,-14,-10,9,3,-12,-18,-22,-29,-15,-21,-15
-3,-13,-10,8,3,-12,-17,-21,-29,-15,-20,-15
-6,-14,-8,10,1,-11,-17,-22,-29,-15,-20,-16
-7,-15,-8,11,0,-12,-17,-24,-30,-15,-21,-16
-7,-14,-7,10,0,-11,-17,-23,-29,-14,-21,-15
-7,-15,-8,11,0,-12,-16,-24,-30,-15,-22,-15
-7,-14,-7,10,0,-11,-16,-23,-30,-15,-22,-14
-7,-14,-7,10,0,-11,-16,-23,-30,-14,-21,-14
-7,-15,-8,11,0,-12,-17,-24,-30,-15,-21,-14
-4,-15,-11,9,3,-13,-17,-25,-30,-15,-21,-13
-3,-14,-11,8,4,-13,-17,-25,-29,-15,-20,-12
-4,-13,-9,8,2,-11,-16,-24,-28,-14,-19,-12
-7,-16,-9,11,1,-13,-18,-25,-29,-14,-20,-13
-10,-18,-8,14,-1,-13,-19,-25,-29,-15,-21,-14
-9,-17,-8,13,-1,-13,-19,-25,-29,-14,-22,-14
-11,-18,-7,14,-2,-13,-20,-25,-30,-15,-23,-16
-12,-22,-10,17,-1,-16,-19,-26,-32,-16,-24,-17
-9,-21,-12,15,1,-17,-18,-25,-32,-16,-24,-16
-10,-22,-12,16,1,-17,-19,-26,-33,-17,-24,-18
-11,-23,-12,17,0,-18,-18,-26,-33,-16,-23,-17
-12,-22,-10,17,-1,-16,-18,-26,-33,-16,-23,-16
-14,-24,-10,19,-2,-17,-19,-27,-34,-18,-24,-17
-12,-23,-11,17,-1,-17,-20,-27,-34,-18,-25,-17
-11,-20,-9,15,-1,-15,-19,-26,-33,-17,-24,-16
-8,-17,-9,12,0,-13,-19,-25,-32,-16,-23,-15
-6,-15,-9,10,1,-12,-18,-25,-31,-16,-23,-15
-7,-15,-8,11,0,-12,-18,-25,-31,-16,-23,-15
-7,-16,-9,11,1,-13,-18,-25,-31,-16,-23,-15
-5,-16,-11,10,3,-14,-18,-26,-31,-16,-22,-15
-3,-15,-12,9,4,-14,-18,-27,-31,-15,-22,-14
-2,-14,-12,8,5,-13,-18,-26,-30,-14,-21,-14
-3,-14,-11,8,4,-13,-18,-26,-30,-15,-21,-14
-5,-17,-12,11,3,-15,-18,-26,-31,-15,-22,-15
-9,-19,-10,14,0,-15,-19,-27,-32,-16,-23,-16
-9,-19,-10,14,0,-15,-19,-27,-33,-17,-23,-16
-6,-16,-10,11,2,-13,-19,-26,-32,-17,-23,-16
-5,-15,-10,10,2,-13,-19,-25,-32,-16,-23,-17
-3,-13,-10,8,3,-12,-18,-25,-32,-16,-23,-17
-1,-11,-10,6,4,-11,-17,-24,-31,-15,-22,-16
-1,-11,-10,6,4,-11,-17,-24,-32,-15,-23,-16
-7,-18,-11,12,2,-15,-18,-25,-34,-17,-25,-18
-12,-21,-9,16,-2,-15,-18,-27,-35,-18,-25,-19
-10,-20,-10,15,0,-15,-18,-27,-34,-17,-24,-17
-10,-20,-10,15,0,-15,-18,-27,-32,-16,-23,-17
-9,-20,-11,14,1,-16,-19,-26,-32,-16,-24,-17
-7,-19,-12,13,2,-16,-19,-26,-32,-16,-24,-17
-7,-18,-11,12,2,-15,-21,-27,-32,-15,-24,-18
-6,-17,-11,11,2,-14,-20,-27,-32,-15,-23,-17
-3,-16,-13,9,5,-15,-19,-26,-31,-15,-22,-16
-2,-13,-11,7,4,-12,-17,-25,-29,-14,-20,-15
-5,-15,-10,10,2,-13,-17,-25,-29,-14,-20,-15
-5,-15,-10,10,2,-13,-18,-24,-28,-13,-20,-14
-3,-13,-10,8,3,-12,-17,-22,-27,-12,-19,-13
-3,-11,-8,7,2,-10,-18,-22,-27,-12,-20,-13
-7,-15,-8,11,0,-12,-19,-24,-29,-13,-22,-14
-8,-16,-8,12,0,-12,-20,-24,-29,-13,-22,-15
-5,-16,-11,10,3,-14,-19,-24,-29,-12,-22,-14
-2,-15,-13,8,5,-14,-18,-23,-28,-12,-20,-13
-1,-15,-14,8,6,-15,-17,-23,-28,-12,-19,-12
-4,-18,-14,11,5,-16,-18,-25,-28,-13,-20,-13
-6,-19,-13,12,3,-16,-19,-26,-29,-14,-21,-14
-4,-18,-14,11,5,-16,-19,-25,-29,-14,-21,-14
-3,-15,-12,9,4,-14,-18,-24,-29,-14,-20,-13
-3,-13,-10,8,3,-12,-18,-23,-29,-14,-20,-13
-2,-11,-9,6,3,-10,-18,-23,-29,-14,-21,-12
1,-8,-9,3,5,-8,-16,-22,-27,-12,-20,-11
3,-6,-9,1,6,-7,-16,-21,-27,-11,-19,-10
2,-9,-11,3,6,-10,-17,-22,-27,-12,-19,-12
-1,-13,-12,7,5,-13,-19,-24,-29,-13,-20,-14
-2,-14,-12,8,5,-13,-17,-25,-29,-13,-20,-14
0,-11,-11,5,5,-11,-16,-24,-28,-12,-20,-14
0,-11,-11,5,5,-11,-16,-24,-28,-13,-20,-14
-2,-13,-11,7,4,-12,-17,-26,-30,-14,-21,-15
-2,-12,-10,7,4,-11,-17,-25,-30,-15,-21,-15
-2,-11,-9,6,3,-10,-18,-25,-30,-15,-21,-14
-1,-10,-9,5,4,-10,-17,-24,-30,-13,-20,-12
0,-11,-11,5,5,-11,-17,-24,-29,-13,-20,-11
-4,-14,-10,9,3,-12,-17,-24,-29,-13,-19,-11
-5,-14,-9,9,2,-12,-17,-24,-28,-12,-19,-11
-5,-14,-9,9,2,-12,-17,-23,-27,-12,-18,-11
-4,-14,-10,9,3,-12,-16,-23,-27,-12,-18,-10
-2,-14,-12,8,5,-13,-16,-23,-27,-12,-18,-10
-1,-12,-11,6,5,-12,-16,-24,-27,-12,-18,-11
1,-10,-11,4,6,-10,-15,-24,-27,-11,-17,-10
4,-7,-11,1,7,-9,-14,-23,-26,-10,-16,-10
7,-4,-11,-1,9,-7,-14,-23,-26,-10,-15,-10
7,-5,-12,-1,9,-8,-14,-23,-27,-11,-16,-10
6,-5,-11,0,8,-8,-15,-23,-28,-12,-17,-11
5,-5,-10,0,7,-7,-15,-23,-28,-12,-17,-11
2,-9,-11,3,6,-10,-16,-23,-29,-13,-17,-11
2,-9,-11,3,6,-10,-16,-23,-28,-12,-17,-11
4,-8,-12,2,8,-10,-16,-23,-28,-12,-17,-11
2,-8,-10,3,6,-9,-16,-23,-28,-12,-17,-12
1,-10,-11,4,6,-10,-16,-23,-28,-12,-18,-13
0,-10,-10,5,5,-10,-16,-22,-27,-11,-17,-13
-1,-9,-8,5,3,-9,-16,-22,-28,-11,-17,-13
1,-7,-8,3,4,-7,-15,-20,-27,-10,-17,-12
2,-6,-8,2,5,-7,-15,-20,-26,-10,-17,-12
0,-9,-9,4,4,-9,-15,-20,-27,-11,-18,-13
-1,-11,-10,6,4,-11,-15,-21,-28,-13,-19,-13
0,-10,-10,5,5,-10,-15,-22,-28,-13,-19,-13
0,-11,-11,5,5,-11,-15,-22,-28,-14,-19,-14
-1,-12,-11,6,5,-12,-15,-21,-28,-13,-18,-13
-1,-11,-10,6,4,-11,-15,-21,-27,-11,-17,-12
-1,-10,-9,5,4,-10,-15,-21,-27,-11,-17,-12
-1,-9,-8,5,3,-9,-15,-22,-27,-11,-17,-11
0,-8,-8,4,4,-8,-16,-22,-27,-10,-17,-10
0,-10,-10,5,5,-10,-16,-22,-28,-11,-18,-10
1,-9,-10,4,5,-9,-15,-20,-27,-10,-17,-9
3,-9,-12,3,7,-10,-15,-20,-26,-10,-17,-9
2,-11,-13,4,7,-12,-16,-20,-27,-12,-17,-10
-1,-14,-13,7,6,-14,-16,-21,-27,-12,-18,-12
-4,-15,-11,9,3,-13,-16,-21,-27,-13,-19,-13
-7,-16,-9,11,1,-13,-17,-22,-27,-13,-19,-14
-9,-16,-7,12,-1,-12,-16,-22,-27,-12,-18,-14
-11,-17,-6,14,-3,-12,-16,-21,-27,-11,-17,-13
-12,-16,-4,14,-4,-10,-15,-20,-27,-11,-17,-13
-10,-15,-5,12,-3,-10,-14,-19,-27,-11,-17,-12
-9,-15,-6,12,-2,-11,-13,-19,-27,-11,-17,-12
-11,-17,-6,14,-3,-12,-13,-19,-28,-12,-17,-12
-10,-17,-7,13,-2,-12,-12,-19,-27,-11,-17,-12
-7,-12,-5,9,-1,-9,-11,-18,-25,-10,-16,-11
-5,-8,-3,6,-1,-6,-10,-18,-24,-9,-16,-10
-7,-7,0,7,-4,-4,-10,-19,-25,-9,-16,-10
-9,-9,0,9,-5,-5,-10,-19,-25,-9,-17,-11
-11,-11,0,11,-6,-6,-8,-18,-25,-9,-17,-11
-12,-13,-1,12,-6,-7,-7,-17,-24,-8,-17,-12
-13,-13,0,13,-7,-7,-5,-16,-24,-8,-17,-12
-15,-15,0,15,-8,-8,-5,-16,-24,-8,-17,-12
-16,-15,1,15,-9,-7,-4,-16,-24,-9,-17,-12
-16,-13,3,14,-10,-5,-3,-14,-24,-9,-16,-11
-15,-10,5,12,-10,-3,-2,-14,-23,-9,-16,-11
-13,-7,6,10,-10,-1,-2,-15,-24,-9,-16,-11
-13,-5,8,9,-11,1,-1,-15,-23,-9,-16,-11
-14,-5,9,9,-12,2,-3,-16,-24,-9,-15,-11
-12,-4,8,8,-10,2,-4,-17,-25,-8,-15,-11
-12,-4,8,8,-10,2,-6,-19,-26,-8,-15,-10
-13,-5,8,9,-11,1,-9,-21,-27,-9,-16,-11
-14,-5,9,9,-12,2,-12,-22,-28,-9,-16,-10
-14,-4,10,9,-12,3,-15,-23,-28,-9,-16,-9
-12,-2,10,7,-11,4,-18,-25,-29,-9,-16,-7
-10,0,10,5,-10,5,-21,-26,-30,-9,-15,-6
-9,1,10,4,-9,5,-23,-28,-30,-9,-14,-5
-14,-3,11,8,-13,4,-26,-31,-32,-10,-15,-6
-17,-6,11,11,-14,2,-28,-33,-32,-11,-15,-6
-14,-5,9,9,-12,2,-29,-32,-31,-9,-12,-4
-11,-2,9,6,-10,3,-30,-31,-30,-8,-11,-3
-9,-3,6,6,-8,1,-32,-31,-30,-8,-12,-4
-8,-5,3,6,-6,-1,-34,-32,-31,-8,-12,-3
-8,-7,1,7,-5,-3,-35,-32,-30,-7,-12,-3
-9,-9,0,9,-5,-5,-35,-32,-30,-7,-12,-3
-9,-10,-1,9,-4,-6,-34,-30,-29,-6,-11,-3
-10,-11,-1,10,-5,-6,-33,-29,-27,-5,-10,-2
-9,-13,-4,11,-3,-9,-32,-28,-26,-4,-9,-2
-8,-16,-8,12,0,-12,-32,-28,-26,-4,-9,-2
-8,-18,-10,13,1,-14,-31,-27,-24,-4,-8,-2
-8,-19,-11,13,1,-15,-29,-26,-23,-4,-8,-3
-9,-20,-11,14,1,-16,-27,-25,-23,-4,-9,-4
-10,-19,-9,14,-1,-14,-26,-25,-23,-4,-11,-5
-12,-21,-9,16,-2,-15,-26,-26,-25,-6,-13,-7
-11,-19,-8,15,-2,-14,-24,-25,-25,-7,-14,-9
-10,-20,-10,15,0,-15,-24,-25,-26,-8,-15,-10
-12,-23,-11,17,-1,-17,-24,-26,-28,-11,-16,-12
-15,-28,-13,21,-1,-21,-25,-28,-31,-15,-20,-15
-20,-36,-16,28,-2,-26,-26,-31,-35,-18,-23,-18
-25,-42,-17,33,-4,-30,-28,-34,-37,-20,-24,-20
-26,-43,-17,34,-5,-30,-28,-35,-38,-21,-26,-21
-25,-42,-17,33,-4,-30,-28,-35,-39,-20,-26,-21
-22,-40,-18,31,-2,-29,-28,-35,-39,-20,-26,-22
-20,-40,-20,30,0,-30,-29,-36,-39,-20,-27,-23
-21,-41,-20,31,-1,-31,-29,-36,-38,-20,-26,-23
-23,-43,-20,33,-2,-32,-29,-36,-38,-20,-26,-24
-22,-42,-20,32,-1,-31,-29,-34,-36,-20,-25,-23
-18,-39,-21,28,1,-30,-28,-33,-36,-19,-24,-21
-18,-39,-21,28,1,-30,-29,-32,-36,-20,-24,-20
-17,-39,-22,28,2,-31,-28,-32,-36,-20,-24,-19
-18,-39,-21,28,1,-30,-28,-32,-37,-21,-25,-19
-23,-42,-19,32,-2,-31,-28,-33,-38,-22,-26,-21
-26,-46,-20,36,-3,-33,-28,-34,-40,-22,-28,-22
-26,-44,-18,35,-4,-31,-27,-34,-38,-20,-26,-22
-26,-45,-19,35,-4,-32,-27,-34,-37,-20,-26,-22
-26,-47,-21,36,-3,-34,-28,-35,-37,-21,-26,-23
-26,-48,-22,37,-2,-35,-29,-35,-37,-21,-26,-24
-28,-49,-21,38,-4,-35,-29,-35,-37,-22,-27,-24
-30,-50,-20,40,-5,-35,-29,-35,-38,-22,-28,-24
-31,-50,-19,40,-6,-35,-29,-34,-38,-22,-28,-24
-28,-47,-19,37,-5,-33,-28,-34,-38,-22,-28,-24
-28,-47,-19,37,-5,-33,-28,-34,-39,-23,-28,-24
-28,-48,-20,38,-4,-34,-28,-34,-40,-22,-27,-24
-27,-47,-20,37,-4,-34,-28,-34,-39,-21,-27,-23
-26,-47,-21,36,-3,-34,-28,-33,-39,-21,-27,-23
-26,-47,-21,36,-3,-34,-28,-32,-39,-21,-26,-23
-28,-49,-21,38,-4,-35,-30,-32,-38,-20,-26,-23
-28,-51,-23,39,-3,-37,-30,-30,-36,-18,-24,-22
-26,-50,-24,38,-1,-37,-30,-29,-33,-15,-23,-21
-28,-51,-23,39,-3,-37,-30,-29,-30,-14,-22,-21
-30,-51,-21,40,-5,-36,-29,-26,-27,-12,-20,-20
-27,-45,-18,36,-5,-32,-27,-21,-22,-8,-17,-17
-27,-41,-14,34,-7,-28,-19,-8,-12,1,-12,-13
-28,-35,-7,31,-11,-21,-7,15,11,19,2,-1
-25,-25,0,25,-13,-13,6,45,42,46,23,16
-22,-14,8,18,-15,-3,18,68,72,78,50,37
-12,5,17,3,-14,11,32,86,103,118,84,67
-3,26,29,-11,-16,27,44,100,134,162,121,98
0,45,45,-22,-22,45,49,108,165,206,159,130
5,67,62,-36,-28,65,45,112,196,255,201,168
16,95,79,-55,-31,87,31,109,226,303,245,206
28,120,92,-74,-32,106,10,99,247,342,282,241
43,136,93,-89,-25,115,-10,88,265,369,309,266
57,145,88,-101,-15,117,-31,76,272,381,324,279
65,146,81,-105,-8,114,-61,50,258,368,317,276
64,135,71,-99,-3,103,-99,9,215,326,288,255
55,121,66,-88,-5,94,-136,-48,139,251,233,214
43,103,60,-73,-8,82,-168,-108,49,161,165,161
33,73,40,-53,-3,57,-188,-156,-29,84,103,112
26,41,15,-33,6,28,-199,-191,-89,22,54,71
16,12,-4,-14,10,4,-201,-209,-131,-23,13,36
8,-9,-17,0,12,-13,-194,-212,-153,-54,-15,9
0,-23,-23,11,11,-23,-181,-205,-159,-72,-35,-11
-8,-34,-26,21,9,-30,-165,-190,-157,-82,-48,-26
-14,-40,-26,27,6,-33,-147,-170,-145,-82,-53,-34
-18,-44,-26,31,4,-35,-127,-148,-129,-77,-53,-38
-20,-46,-26,33,3,-36,-108,-124,-111,-68,-51,-39
-21,-46,-25,33,2,-36,-90,-101,-92,-57,-47,-37
-25,-47,-22,36,-2,-35,-74,-82,-76,-47,-44,-36
-27,-47,-20,37,-4,-34,-59,-67,-64,-40,-41,-34
-27,-46,-19,36,-4,-33,-48,-55,-55,-35,-39,-33
-28,-47,-19,37,-5,-33,-40,-47,-49,-32,-36,-32
-30,-48,-18,39,-6,-33,-33,-39,-44,-29,-34,-31
-30,-47,-17,38,-7,-32,-28,-33,-41,-28,-32,-29
-29,-45,-16,37,-7,-31,-23,-28,-38,-26,-30,-28
-29,-44,-15,36,-7,-30,-20,-23,-36,-26,-29,-28
-32,-46,-14,39,-9,-30,-18,-20,-34,-25,-30,-29
-31,-42,-11,36,-10,-27,-14,-16,-31,-22,-29,-28
-26,-37,-11,31,-8,-24,-10,-13,-28,-19,-27,-26
-22,-33,-11,27,-6,-22,-8,-10,-25,-18,-26,-25
-19,-29,-10,24,-5,-20,-6,-8,-22,-16,-25,-24
-20,-30,-10,25,-5,-20,-5,-8,-21,-16,-25,-24
-24,-36,-12,30,-6,-24,-6,-8,-22,-17,-26,-25
-28,-40,-12,34,-8,-26,-6,-8,-22,-17,-26,-26
-30,-40,-10,35,-10,-25,-5,-8,-22,-17,-26,-24
-29,-39,-10,34,-10,-25,-4,-7,-22,-16,-25,-24
-30,-40,-10,35,-10,-25,-5,-7,-22,-16,-26,-24
-32,-41,-9,36,-12,-25,-5,-7,-21,-16,-27,-24
-33,-41,-8,37,-13,-25,-5,-6,-21,-16,-27,-25
-33,-42,-9,37,-12,-26,-5,-5,-21,-17,-27,-26
-34,-43,-9,38,-13,-26,-5,-5,-20,-17,-28,-26
-35,-43,-8,39,-14,-26,-5,-4,-20,-17,-28,-26
-33,-43,-10,38,-12,-27,-4,-4,-20,-17,-28,-27
-29,-38,-9,33,-10,-24,-2,-2,-18,-15,-26,-25
-26,-34,-8,30,-9,-21,0,-1,-16,-12,-24,-24
-27,-36,-9,31,-9,-23,0,-1,-16,-12,-24,-24
-29,-37,-8,33,-11,-23,0,-1,-16,-11,-24,-24
-27,-36,-9,31,-9,-23,0,0,-16,-11,-24,-25
-25,-34,-9,29,-8,-22,-1,1,-16,-11,-23,-24
-23,-32,-9,27,-7,-21,0,2,-15,-10,-22,-23
-22,-31,-9,26,-7,-20,0,4,-14,-10,-22,-23
-22,-32,-10,27,-6,-21,0,4,-13,-10,-22,-23
-23,-31,-8,27,-8,-20,1,3,-13,-9,-22,-23
-25,-33,-8,29,-9,-21,1,3,-13,-9,-23,-24
-26,-34,-8,30,-9,-21,1,3,-12,-9,-23,-23
-26,-36,-10,31,-8,-23,1,3,-12,-9,-23,-24
-28,-38,-10,33,-9,-24,1,4,-12,-9,-24,-24
-27,-37,-10,32,-9,-24,3,5,-11,-9,-23,-23
-26,-36,-10,31,-8,-23,4,7,-11,-9,-22,-23
-24,-34,-10,29,-7,-22,4,8,-10,-9,-22,-22
-23,-32,-9,27,-7,-21,5,8,-10,-10,-21,-22
-24,-32,-8,28,-8,-20,5,8,-10,-10,-21,-23
-24,-30,-6,27,-9,-18,5,8,-10,-10,-21,-22
-22,-29,-7,25,-8,-18,5,9,-8,-9,-20,-21
-22,-28,-6,25,-8,-17,6,10,-7,-8,-20,-20
-20,-27,-7,23,-7,-17,7,11,-5,-7,-19,-20
-18,-26,-8,22,-5,-17,9,13,-4,-6,-19,-19
-20,-29,-9,24,-6,-19,7,12,-4,-6,-19,-20
-26,-35,-9,30,-9,-22,5,12,-6,-8,-21,-22
-28,-36,-8,32,-10,-22,4,12,-7,-9,-21,-23
-25,-33,-8,29,-9,-21,5,14,-5,-7,-19,-22
-24,-31,-7,27,-9,-19,7,16,-4,-7,-18,-22
-25,-30,-5,27,-10,-18,8,18,-4,-6,-18,-21
-26,-29,-3,27,-12,-16,10,18,-4,-6,-18,-22
-27,-29,-2,28,-13,-16,10,18,-4,-6,-18,-22
-27,-32,-5,29,-11,-19,9,18,-4,-6,-19,-23
-29,-34,-5,31,-12,-20,9,18,-3,-6,-19,-23
-27,-34,-7,30,-10,-21,9,19,-1,-5,-18,-22
-25,-34,-9,29,-8,-22,9,19,0,-4,-18,-22
-25,-33,-8,29,-9,-21,9,20,0,-4,-17,-22
-24,-31,-7,27,-9,-19,10,22,0,-4,-16,-21
-23,-28,-5,25,-9,-17,11,24,1,-3,-16,-20
-21,-26,-5,23,-8,-16,12,25,2,-2,-15,-19
-19,-23,-4,21,-8,-14,13,27,4,-1,-14,-18
-19,-23,-4,21,-8,-14,13,28,6,-1,-14,-18
-21,-27,-6,24,-8,-17,12,28,6,-1,-15,-19
-24,-30,-6,27,-9,-18,12,28,5,-1,-15,-19
-28,-35,-7,31,-11,-21,11,28,4,-2,-16,-20
-25,-32,-7,28,-9,-20,12,30,6,0,-15,-19
-24,-28,-4,26,-10,-16,14,33,8,0,-14,-18
-24,-29,-5,26,-10,-17,15,34,9,1,-13,-19
-24,-29,-5,26,-10,-17,15,36,10,0,-13,-19
-24,-29,-5,26,-10,-17,15,37,12,0,-14,-18
-23,-29,-6,26,-9,-18,15,37,13,0,-14,-18
-22,-29,-7,25,-8,-18,16,38,13,0,-13,-17
-21,-27,-6,24,-8,-17,18,42,16,3,-11,-15
-19,-23,-4,21,-8,-14,21,45,18,6,-9,-14
-18,-22,-4,20,-7,-13,22,47,19,7,-9,-14
-18,-23,-5,20,-7,-14,22,48,19,7,-9,-15
-20,-24,-4,22,-8,-14,23,50,21,7,-9,-14
-20,-24,-4,22,-8,-14,23,51,22,8,-8,-14
-19,-24,-5,21,-7,-15,23,53,24,8,-7,-14
-19,-24,-5,21,-7,-15,23,54,26,9,-7,-13
-17,-22,-5,19,-6,-14,24,56,28,10,-5,-12
-17,-21,-4,19,-7,-13,25,60,30,12,-4,-10
-17,-19,-2,18,-8,-11,26,62,32,14,-3,-8
-17,-18,-1,17,-8,-10,26,64,34,14,-3,-8
-16,-16,0,16,-8,-8,27,66,36,15,-2,-7
-15,-14,1,14,-8,-7,29,70,39,18,0,-5
-12,-12,0,12,-6,-6,31,74,42,21,2,-2
-10,-11,-1,10,-5,-6,31,77,44,23,3,-2
-11,-12,-1,11,-5,-7,31,79,46,24,4,-2
-9,-12,-3,10,-3,-8,32,81,48,25,5,0
-8,-11,-3,9,-3,-7,33,83,51,26,6,0
-12,-12,0,12,-6,-6,33,84,53,27,6,1
-14,-12,2,13,-8,-5,35,87,56,28,7,1
-13,-10,3,11,-8,-4,36,90,59,29,8,2
-10,-6,4,8,-7,-1,38,93,62,31,10,3
-9,-5,4,7,-7,-1,38,96,64,33,12,3
-7,-4,3,5,-5,-1,38,99,65,33,12,3
-6,-4,2,5,-4,-1,38,102,67,35,12,4
-6,-4,2,5,-4,-1,38,105,69,37,13,5
-7,-5,2,6,-5,-2,38,107,72,39,14,6
-9,-6,3,7,-6,-2,38,109,75,42,16,8
-7,-4,3,5,-5,-1,39,111,78,44,18,9
-7,-3,4,5,-6,0,40,112,81,45,20,10
-10,-5,5,7,-8,0,39,113,82,46,21,10
-11,-5,6,8,-9,0,39,117,85,46,22,11
-9,-3,6,6,-8,1,41,120,88,49,25,13
-7,-2,5,4,-6,1,42,123,91,51,26,15
-5,0,5,2,-5,2,43,126,94,54,28,17
-3,2,5,0,-4,3,43,128,96,56,30,19
0,5,5,-2,-2,5,43,130,99,58,31,19
-1,5,6,-2,-3,5,42,131,101,60,32,20
-2,4,6,-1,-4,5,41,131,103,61,32,20
-4,4,8,0,-6,6,41,132,105,63,34,21
-3,4,7,0,-5,5,41,133,106,64,35,22
-4,4,8,0,-6,6,40,133,106,64,35,22
-2,7,9,-2,-5,8,40,134,108,66,36,23
0,10,10,-5,-5,10,41,134,109,67,37,25
-3,7,10,-2,-6,8,38,132,108,67,36,24
-2,7,9,-2,-5,8,38,131,108,67,37,25
0,9,9,-4,-4,9,37,130,107,67,37,26
0,10,10,-5,-5,10,37,129,107,68,38,26
0,11,11,-5,-5,11,35,127,106,68,38,26
1,12,11,-6,-5,12,34,126,106,68,38,27
3,14,11,-8,-4,13,33,124,105,69,39,28
5,15,10,-10,-2,13,31,121,104,69,39,28
7,16,9,-11,-1,13,30,118,102,69,40,29
8,17,9,-12,0,13,28,114,100,68,40,29
8,19,11,-13,-1,15,27,110,97,67,40,29
8,21,13,-14,-2,17,25,105,95,66,40,29
6,21,15,-13,-4,18,23,100,92,65,39,29
4,19,15,-11,-5,17,20,94,88,63,38,28
4,19,15,-11,-5,17,17,88,84,61,36,27
4,19,15,-11,-5,17,14,82,79,58,34,26
5,21,16,-13,-5,19,13,78,75,57,33,26
4,18,14,-11,-5,16,10,71,68,53,31,24
-1,13,14,-6,-7,13,7,63,60,48,27,20
-3,9,12,-3,-7,10,4,57,53,44,25,17
-6,6,12,0,-9,9,2,50,46,40,22,15
-7,5,12,1,-9,8,0,45,42,37,21,14
-7,4,11,1,-9,7,-1,41,38,34,19,12
-5,4,9,0,-7,6,-2,36,35,33,18,11
-4,6,10,-1,-7,8,-3,33,32,31,17,10
-3,6,9,-1,-6,7,-4,29,29,29,15,8
-4,4,8,0,-6,6,-7,25,24,26,12,6
-5,2,7,1,-6,4,-9,20,19,23,9,5
-7,0,7,3,-7,3,-9,16,15,20,7,4
-8,-2,6,5,-7,2,-10,12,10,17,5,2
-9,-4,5,6,-7,0,-12,9,6,14,3,1
-10,-5,5,7,-8,0,-12,6,3,11,2,0
-10,-6,4,8,-7,-1,-12,4,0,9,1,-2
-7,-5,2,6,-5,-2,-12,2,-2,7,0,-4
-4,-2,2,3,-3,0,-12,1,-4,6,-1,-5
-4,-3,1,3,-3,-1,-12,0,-7,5,-2,-6
-9,-8,1,8,-5,-4,-13,-4,-11,2,-5,-9
-12,-14,-2,13,-5,-8,-14,-8,-14,0,-8,-12
-12,-14,-2,13,-5,-8,-14,-10,-16,-2,-9,-13
-12,-13,-1,12,-6,-7,-13,-10,-16,-2,-9,-12
-15,-17,-2,16,-7,-10,-14,-12,-18,-6,-11,-14
-16,-19,-3,17,-7,-11,-16,-14,-20,-8,-12,-15
-15,-18,-3,16,-6,-11,-16,-14,-21,-9,-12,-15
-16,-21,-5,18,-6,-13,-16,-15,-23,-11,-13,-16
-17,-23,-6,20,-6,-15,-17,-16,-24,-12,-15,-17
-18,-23,-5,20,-7,-14,-16,-17,-25,-11,-15,-17
-18,-22,-4,20,-7,-13,-16,-18,-25,-11,-15,-17
-16,-21,-5,18,-6,-13,-16,-17,-26,-12,-16,-17
-14,-21,-7,17,-4,-14,-17,-18,-26,-12,-17,-18
-13,-21,-8,17,-3,-15,-17,-19,-28,-14,-19,-20
-12,-19,-7,15,-3,-13,-16,-19,-28,-15,-19,-20
-12,-18,-6,15,-3,-12,-15,-19,-29,-16,-19,-20
-13,-20,-7,16,-3,-14,-16,-20,-30,-17,-20,-21
-16,-22,-6,19,-5,-14,-17,-21,-31,-18,-21,-21
-18,-25,-7,21,-6,-16,-16,-22,-31,-19,-22,-22
-17,-26,-9,21,-4,-18,-16,-22,-31,-18,-21,-23
-15,-24,-9,19,-3,-17,-14,-21,-30,-17,-20,-22
-14,-23,-9,18,-3,-16,-12,-21,-29,-16,-20,-22
-13,-21,-8,17,-3,-15,-12,-20,-29,-16,-20,-22
-14,-22,-8,18,-3,-15,-13,-20,-29,-18,-21,-23
-18,-25,-7,21,-6,-16,-14,-21,-30,-19,-22,-24
-20,-26,-6,23,-7,-16,-14,-21,-32,-20,-23,-24
-19,-27,-8,23,-6,-18,-16,-22,-32,-21,-24,-25
-18,-26,-8,22,-5,-17,-15,-21,-32,-20,-24,-25
-17,-27,-10,22,-4,-19,-15,-21,-32,-21,-24,-25
-18,-29,-11,23,-4,-20,-15,-21,-33,-23,-26,-27
-18,-28,-10,23,-4,-19,-13,-21,-33,-23,-25,-27
-17,-26,-9,21,-4,-18,-11,-20,-32,-22,-24,-26
-17,-24,-7,20,-5,-16,-11,-19,-32,-22,-24,-26
-18,-26,-8,22,-5,-17,-13,-21,-33,-24,-25,-27
-19,-27,-8,23,-6,-18,-14,-22,-34,-24,-27,-27
-20,-30,-10,25,-5,-20,-15,-23,-35,-24,-27,-28
-19,-30,-11,24,-4,-21,-15,-22,-35,-23,-27,-28
-18,-27,-9,22,-5,-18,-14,-21,-35,-23,-27,-28
-19,-28,-9,23,-5,-19,-15,-22,-35,-23,-28,-28
-19,-27,-8,23,-6,-18,-14,-21,-35,-24,-28,-28
-19,-26,-7,22,-6,-17,-12,-20,-34,-25,-28,-28
-19,-25,-6,22,-7,-16,-11,-19,-34,-25,-28,-28
-21,-27,-6,24,-8,-17,-11,-19,-34,-26,-28,-28
-19,-24,-5,21,-7,-15,-9,-18,-33,-24,-27,-26
-18,-23,-5,20,-7,-14,-9,-18,-34,-24,-27,-26
-17,-21,-4,19,-7,-13,-10,-18,-34,-23,-26,-25
-14,-19,-5,16,-5,-12,-10,-17,-35,-23,-26,-25
-15,-20,-5,17,-5,-13,-10,-17,-36,-23,-27,-25
-19,-24,-5,21,-7,-15,-11,-17,-36,-24,-28,-26
-22,-26,-4,24,-9,-15,-12,-18,-37,-26,-29,-27
-23,-28,-5,25,-9,-17,-13,-18,-36,-26,-29,-28
-24,-28,-4,26,-10,-16,-13,-19,-36,-26,-29,-28
-24,-29,-5,26,-10,-17,-13,-19,-36,-25,-29,-27
-21,-25,-4,23,-9,-15,-13,-19,-35,-23,-27,-26
-17,-21,-4,19,-7,-13,-12,-18,-34,-22,-26,-25
-17,-20,-3,18,-7,-12,-12,-18,-34,-22,-26,-25
-17,-20,-3,18,-7,-12,-12,-18,-33,-22,-26,-25
