TS,I,If,II,IIf,III,IIIf,aVR,aVRf,aVL,aVLf,aVF,aVFf,V1,V1f,V2,V2f,V3,V3f,V4,V4f,V5,V5f,V6,V6f
1,-7,1,-14,1,-7,1,10,1,0,1,-11,1,0,1,-21,1,-28,1,-28,1,-18,1,-17,1
2,-7,1,-14,1,-7,1,10,1,0,1,-11,1,0,1,-21,1,-28,1,-28,1,-18,1,-17,1
3,-8,1,-15,1,-7,1,11,1,-1,1,-11,1,0,1,-21,1,-27,1,-27,1,-17,1,-16,1
4,-8,1,-16,1,-8,1,12,1,0,1,-12,1,-2,1,-21,1,-27,1,-27,1,-17,1,-16,1
5,-7,1,-15,1,-8,1,11,1,0,1,-12,1,-2,1,-22,1,-27,1,-27,1,-17,1,-16,1
6,-7,1,-15,1,-8,1,11,1,0,1,-12,1,-3,1,-22,1,-27,1,-28,1,-17,1,-16,1
7,-7,1,-14,1,-7,1,10,1,0,1,-11,1,-3,1,-22,1,-28,1,-29,1,-18,1,-17,1
8,-8,1,-14,1,-6,1,11,1,-1,1,-10,1,-3,1,-22,1,-29,1,-29,1,-18,1,-17,1
9,-7,1,-14,1,-7,1,10,1,0,1,-11,1,-2,1,-22,1,-29,1,-28,1,-18,1,-17,1
10,-7,1,-14,1,-7,1,10,1,0,1,-11,1,-2,1,-22,1,-29,1,-29,1,-18,1,-18,1
11,-8,1,-16,1,-8,1,12,1,0,1,-12,1,-1,1,-20,1,-28,1,-28,1,-18,1,-18,1
12,-8,1,-15,1,-7,1,11,1,-1,1,-11,1,0,1,-19,1,-27,1,-27,1,-16,1,-17,1
13,-8,1,-15,1,-7,1,11,1,-1,1,-11,1,-1,1,-20,1,-27,1,-28,1,-16,1,-18,1
14,-9,1,-16,1,-7,1,12,1,-1,1,-12,1,-2,1,-20,1,-27,1,-26,1,-16,1,-18,1
15,-9,1,-16,1,-7,1,12,1,-1,1,-12,1,-2,1,-20,1,-28,1,-26,1,-17,1,-18,1
16,-10,1,-16,1,-6,1,13,1,-2,1,-11,1,-4,1,-22,1,-29,1,-28,1,-18,1,-20,1
17,-10,1,-15,1,-5,1,12,1,-3,1,-10,1,-3,1,-21,1,-28,1,-28,1,-18,1,-19,1
18,-10,1,-17,1,-7,1,13,1,-2,1,-12,1,-3,1,-22,1,-28,1,-29,1,-18,1,-19,1
19,-9,1,-15,1,-6,1,12,1,-2,1,-11,1,-4,1,-22,1,-29,1,-30,1,-18,1,-18,1
20,-9,1,-15,1,-6,1,12,1,-2,1,-11,1,-3,1,-21,1,-29,1,-30,1,-18,1,-18,1
21,-9,1,-14,1,-5,1,11,1,-2,1,-10,1,-1,1,-20,1,-27,1,-28,1,-17,1,-18,1
22,-7,1,-12,1,-5,1,9,1,-1,1,-9,1,0,1,-19,1,-25,1,-26,1,-15,1,-16,1
23,-6,1,-13,1,-7,1,9,1,0,1,-10,1,0,1,-19,1,-25,1,-26,1,-15,1,-16,1
24,-6,1,-14,1,-8,1,10,1,1,1,-11,1,0,1,-18,1,-25,1,-25,1,-15,1,-17,1
25,-6,1,-14,1,-8,1,10,1,1,1,-11,1,0,1,-20,1,-26,1,-27,1,-16,1,-18,1
26,-6,1,-14,1,-8,1,10,1,1,1,-11,1,0,1,-20,1,-26,1,-28,1,-16,1,-17,1
27,-6,1,-15,1,-9,1,10,1,1,1,-12,1,-2,1,-22,1,-28,1,-30,1,-18,1,-18,1
28,-7,1,-16,1,-9,1,11,1,1,1,-13,1,-2,1,-22,1,-28,1,-30,1,-18,1,-19,1
29,-6,1,-13,1,-7,1,9,1,0,1,-10,1,-2,1,-21,1,-28,1,-29,1,-18,1,-18,1
30,-6,1,-13,1,-7,1,9,1,0,1,-10,1,-1,1,-21,1,-27,1,-29,1,-17,1,-18,1
31,-6,1,-14,1,-8,1,10,1,1,1,-11,1,0,1,-19,1,-25,1,-28,1,-17,1,-17,1
32,-5,1,-13,1,-8,1,9,1,1,1,-11,1,1,1,-19,1,-25,1,-28,1,-16,1,-17,1
33,-3,1,-12,1,-9,1,7,1,3,1,-11,1,0,1,-19,1,-26,1,-28,1,-16,1,-17,1
34,-3,1,-11,1,-8,1,7,1,2,1,-10,1,0,1,-17,1,-24,1,-26,1,-16,1,-17,1
35,-2,1,-8,1,-6,1,5,1,2,1,-7,1,0,1,-16,1,-22,1,-24,1,-15,1,-16,1
36,0,1,-5,1,-5,1,2,1,2,1,-5,1,1,1,-16,1,-22,1,-24,1,-13,1,-16,1
37,0,1,-4,1,-4,1,2,1,2,1,-4,1,1,1,-15,1,-22,1,-23,1,-13,1,-15,1
38,1,1,-4,1,-5,1,1,1,3,1,-4,1,-1,1,-15,1,-21,1,-22,1,-12,1,-15,1
39,3,1,-4,1,-7,1,0,1,5,1,-5,1,-2,1,-14,1,-19,1,-21,1,-11,1,-14,1
40,5,1,-6,1,-11,1,0,1,8,1,-8,1,0,1,-13,1,-18,1,-20,1,-10,1,-13,1
41,5,1,-8,1,-13,1,1,1,9,1,-10,1,0,1,-13,1,-18,1,-21,1,-10,1,-13,1
42,5,1,-10,1,-15,1,2,1,10,1,-12,1,-1,1,-14,1,-20,1,-22,1,-11,1,-14,1
43,5,1,-8,1,-13,1,1,1,9,1,-10,1,-1,1,-13,1,-18,1,-21,1,-9,1,-11,1
44,5,1,-7,1,-12,1,1,1,8,1,-9,1,-2,1,-14,1,-18,1,-20,1,-8,1,-10,1
45,6,1,-4,1,-10,1,-1,1,8,1,-7,1,-3,1,-14,1,-17,1,-18,1,-7,1,-9,1
46,9,1,0,1,-9,1,-4,1,9,1,-4,1,-4,1,-16,1,-17,1,-18,1,-7,1,-9,1
47,7,1,1,1,-6,1,-4,1,7,1,-2,1,-6,1,-16,1,-17,1,-18,1,-7,1,-9,1
48,6,1,-1,1,-7,1,-2,1,6,1,-4,1,-8,1,-19,1,-20,1,-20,1,-9,1,-11,1
49,6,1,0,1,-6,1,-3,1,6,1,-3,1,-8,1,-20,1,-20,1,-21,1,-9,1,-11,1
50,5,1,0,1,-5,1,-2,1,5,1,-2,1,-10,1,-21,1,-21,1,-21,1,-10,1,-12,1
51,4,1,-2,1,-6,1,-1,1,5,1,-4,1,-9,1,-21,1,-22,1,-22,1,-10,1,-13,1
52,5,1,-3,1,-8,1,-1,1,6,1,-5,1,-9,1,-21,1,-23,1,-23,1,-11,1,-14,1
53,5,1,-3,1,-8,1,-1,1,6,1,-5,1,-9,1,-20,1,-23,1,-23,1,-12,1,-15,1
54,5,1,-4,1,-9,1,0,1,7,1,-6,1,-7,1,-19,1,-22,1,-22,1,-11,1,-15,1
55,5,1,-4,1,-9,1,0,1,7,1,-6,1,-7,1,-19,1,-22,1,-22,1,-11,1,-13,1
56,7,1,-1,1,-8,1,-3,1,7,1,-4,1,-9,1,-20,1,-23,1,-20,1,-9,1,-11,1
57,7,1,-2,1,-9,1,-2,1,8,1,-5,1,-9,1,-20,1,-22,1,-19,1,-9,1,-11,1
58,7,1,-4,1,-11,1,-1,1,9,1,-7,1,-9,1,-20,1,-21,1,-20,1,-9,1,-11,1
59,7,1,-4,1,-11,1,-1,1,9,1,-7,1,-9,1,-21,1,-22,1,-21,1,-10,1,-12,1
60,6,1,-6,1,-12,1,0,1,9,1,-9,1,-10,1,-22,1,-23,1,-22,1,-10,1,-12,1
61,6,1,-7,1,-13,1,0,1,9,1,-10,1,-8,1,-21,1,-23,1,-21,1,-9,1,-12,1
62,8,1,-7,1,-15,1,0,1,11,1,-11,1,-9,1,-21,1,-23,1,-21,1,-9,1,-12,1
63,7,1,-7,1,-14,1,0,1,10,1,-10,1,-9,1,-22,1,-23,1,-22,1,-10,1,-12,1
64,6,1,-9,1,-15,1,1,1,10,1,-12,1,-9,1,-22,1,-24,1,-23,1,-10,1,-13,1
65,5,1,-9,1,-14,1,2,1,9,1,-11,1,-9,1,-23,1,-25,1,-24,1,-11,1,-15,1
66,6,1,-7,1,-13,1,0,1,9,1,-10,1,-11,1,-25,1,-27,1,-26,1,-13,1,-17,1
67,4,1,-6,1,-10,1,1,1,7,1,-8,1,-10,1,-23,1,-26,1,-25,1,-13,1,-16,1
68,3,1,-6,1,-9,1,1,1,6,1,-7,1,-8,1,-21,1,-23,1,-25,1,-12,1,-16,1
69,3,1,-6,1,-9,1,1,1,6,1,-7,1,-8,1,-22,1,-24,1,-25,1,-12,1,-16,1
70,2,1,-8,1,-10,1,3,1,6,1,-9,1,-8,1,-22,1,-25,1,-26,1,-13,1,-17,1
71,0,1,-9,1,-9,1,4,1,4,1,-9,1,-6,1,-19,1,-23,1,-25,1,-13,1,-17,1
72,-2,1,-9,1,-7,1,5,1,2,1,-8,1,-5,1,-18,1,-22,1,-25,1,-14,1,-16,1
73,-2,1,-9,1,-7,1,5,1,2,1,-8,1,-4,1,-17,1,-22,1,-25,1,-13,1,-16,1
74,-3,1,-9,1,-6,1,6,1,1,1,-8,1,-3,1,-17,1,-21,1,-23,1,-12,1,-16,1
75,-4,1,-9,1,-5,1,6,1,0,1,-7,1,-3,1,-17,1,-22,1,-23,1,-12,1,-15,1
76,-5,1,-11,1,-6,1,8,1,0,1,-9,1,-4,1,-19,1,-24,1,-26,1,-15,1,-17,1
77,-8,1,-15,1,-7,1,11,1,-1,1,-11,1,-4,1,-21,1,-27,1,-28,1,-17,1,-20,1
78,-9,1,-16,1,-7,1,12,1,-1,1,-12,1,-6,1,-23,1,-29,1,-29,1,-18,1,-21,1
79,-7,1,-15,1,-8,1,11,1,0,1,-12,1,-6,1,-24,1,-29,1,-29,1,-18,1,-22,1
80,-7,1,-16,1,-9,1,11,1,1,1,-13,1,-6,1,-24,1,-30,1,-29,1,-19,1,-22,1
81,-9,1,-18,1,-9,1,13,1,0,1,-14,1,-6,1,-26,1,-31,1,-31,1,-20,1,-23,1
82,-10,1,-18,1,-8,1,14,1,-1,1,-13,1,-6,1,-25,1,-30,1,-31,1,-20,1,-23,1
83,-9,1,-16,1,-7,1,12,1,-1,1,-12,1,-5,1,-24,1,-30,1,-30,1,-19,1,-23,1
84,-9,1,-16,1,-7,1,12,1,-1,1,-12,1,-5,1,-23,1,-30,1,-30,1,-19,1,-22,1
85,-9,1,-17,1,-8,1,13,1,-1,1,-13,1,-5,1,-23,1,-30,1,-29,1,-18,1,-22,1
86,-10,1,-17,1,-7,1,13,1,-2,1,-12,1,-7,1,-25,1,-31,1,-31,1,-18,1,-23,1
87,-9,1,-17,1,-8,1,13,1,-1,1,-13,1,-7,1,-25,1,-31,1,-31,1,-18,1,-23,1
88,-10,1,-18,1,-8,1,14,1,-1,1,-13,1,-6,1,-26,1,-31,1,-31,1,-18,1,-22,1
89,-10,1,-17,1,-7,1,13,1,-2,1,-12,1,-6,1,-24,1,-31,1,-30,1,-18,1,-22,1
90,-10,1,-18,1,-8,1,14,1,-1,1,-13,1,-5,1,-24,1,-30,1,-30,1,-18,1,-22,1
91,-10,1,-19,1,-9,1,14,1,-1,1,-14,1,-5,1,-24,1,-30,1,-29,1,-17,1,-22,1
92,-11,1,-18,1,-7,1,14,1,-2,1,-13,1,-4,1,-22,1,-28,1,-28,1,-16,1,-21,1
93,-11,1,-18,1,-7,1,14,1,-2,1,-13,1,-2,1,-22,1,-28,1,-28,1,-16,1,-21,1
94,-10,1,-18,1,-8,1,14,1,-1,1,-13,1,-3,1,-22,1,-29,1,-29,1,-17,1,-21,1
95,-9,1,-17,1,-8,1,13,1,-1,1,-13,1,-4,1,-23,1,-30,1,-29,1,-17,1,-22,1
96,-10,1,-17,1,-7,1,13,1,-2,1,-12,1,-6,1,-24,1,-31,1,-30,1,-18,1,-22,1
97,-11,1,-17,1,-6,1,14,1,-3,1,-12,1,-5,1,-24,1,-30,1,-29,1,-18,1,-22,1
98,-11,1,-18,1,-7,1,14,1,-2,1,-13,1,-5,1,-23,1,-30,1,-29,1,-20,1,-22,1
99,-11,1,-18,1,-7,1,14,1,-2,1,-13,1,-5,1,-23,1,-29,1,-29,1,-20,1,-23,1
100,-12,1,-18,1,-6,1,15,1,-3,1,-12,1,-3,1,-21,1,-28,1,-29,1,-20,1,-24,1
101,-13,1,-17,1,-4,1,15,1,-5,1,-11,1,2,1,-17,1,-25,1,-28,1,-20,1,-24,1
102,-16,1,-16,1,0,1,16,1,-8,1,-8,1,11,1,-9,1,-20,1,-26,1,-20,1,-25,1
103,-18,1,-16,1,2,1,17,1,-10,1,-7,1,19,1,0,1,-16,1,-24,1,-20,1,-25,1
104,-17,1,-15,1,2,1,16,1,-10,1,-7,1,26,1,11,1,-10,1,-21,1,-17,1,-23,1
105,-14,1,-13,1,1,1,13,1,-8,1,-6,1,29,1,18,1,-3,1,-15,1,-13,1,-19,1
106,-9,1,-13,1,-4,1,11,1,-3,1,-9,1,32,1,27,1,5,1,-9,1,-8,1,-15,1
107,-2,1,-12,1,-10,1,7,1,4,1,-11,1,37,1,44,1,19,1,0,1,-1,1,-10,1
108,6,1,-10,1,-16,1,2,1,11,1,-13,1,44,1,66,1,40,1,15,1,8,1,-4,1
109,16,1,-2,1,-18,1,-7,1,17,1,-10,1,58,1,92,1,68,1,37,1,25,1,9,1
110,27,1,10,1,-17,1,-18,1,22,1,-3,1,68,1,115,1,105,1,68,1,48,1,27,1
111,39,1,23,1,-16,1,-31,1,28,1,4,1,70,1,130,1,141,1,102,1,74,1,47,1
112,56,1,42,1,-14,1,-49,1,35,1,14,1,55,1,128,1,171,1,136,1,102,1,70,1
113,72,1,61,1,-11,1,-66,1,42,1,25,1,33,1,116,1,198,1,172,1,133,1,95,1
114,88,1,85,1,-3,1,-86,1,46,1,41,1,3,1,95,1,220,1,207,1,164,1,122,1
115,104,1,113,1,9,1,-108,1,48,1,61,1,-47,1,45,1,217,1,229,1,191,1,150,1
116,117,1,139,1,22,1,-128,1,48,1,81,1,-97,1,-15,1,202,1,243,1,214,1,174,1
117,121,1,149,1,28,1,-135,1,47,1,89,1,-136,1,-68,1,188,1,250,1,225,1,184,1
118,119,1,152,1,33,1,-135,1,43,1,93,1,-160,1,-103,1,181,1,255,1,229,1,188,1
119,104,1,131,1,27,1,-117,1,39,1,79,1,-156,1,-121,1,176,1,245,1,215,1,172,1
120,85,1,105,1,20,1,-95,1,33,1,63,1,-149,1,-136,1,157,1,218,1,187,1,145,1
121,67,1,89,1,22,1,-78,1,23,1,56,1,-147,1,-156,1,120,1,173,1,151,1,119,1
122,47,1,72,1,25,1,-59,1,11,1,49,1,-149,1,-178,1,69,1,119,1,110,1,87,1
123,27,1,52,1,25,1,-39,1,1,1,39,1,-151,1,-205,1,6,1,58,1,64,1,52,1
124,6,1,29,1,23,1,-17,1,-8,1,26,1,-154,1,-235,1,-77,1,-14,1,16,1,19,1
125,-14,1,13,1,27,1,0,1,-20,1,20,1,-154,1,-265,1,-163,1,-80,1,-26,1,-8,1
126,-28,1,2,1,30,1,13,1,-29,1,16,1,-158,1,-280,1,-214,1,-125,1,-57,1,-31,1
127,-37,1,-3,1,34,1,20,1,-36,1,15,1,-157,1,-273,1,-227,1,-140,1,-69,1,-41,1
128,-44,1,-9,1,35,1,26,1,-40,1,13,1,-148,1,-258,1,-219,1,-139,1,-73,1,-46,1
129,-49,1,-15,1,34,1,32,1,-42,1,9,1,-138,1,-238,1,-205,1,-135,1,-75,1,-51,1
130,-51,1,-18,1,33,1,34,1,-42,1,7,1,-131,1,-223,1,-194,1,-131,1,-77,1,-55,1
131,-51,1,-23,1,28,1,37,1,-40,1,2,1,-126,1,-208,1,-180,1,-125,1,-76,1,-57,1
132,-51,1,-27,1,24,1,39,1,-38,1,-2,1,-122,1,-193,1,-167,1,-121,1,-76,1,-60,1
133,-51,1,-29,1,22,1,40,1,-37,1,-4,1,-116,1,-178,1,-154,1,-116,1,-75,1,-61,1
134,-48,1,-25,1,23,1,36,1,-36,1,-1,1,-108,1,-162,1,-139,1,-106,1,-68,1,-56,1
135,-43,1,-19,1,24,1,31,1,-34,1,2,1,-101,1,-145,1,-124,1,-95,1,-60,1,-50,1
136,-39,1,-16,1,23,1,27,1,-31,1,3,1,-88,1,-129,1,-108,1,-82,1,-52,1,-45,1
137,-33,1,-11,1,22,1,22,1,-28,1,5,1,-72,1,-109,1,-90,1,-68,1,-43,1,-38,1
138,-27,1,-5,1,22,1,16,1,-25,1,8,1,-57,1,-87,1,-72,1,-55,1,-34,1,-32,1
139,-21,1,2,1,23,1,9,1,-22,1,12,1,-43,1,-68,1,-56,1,-42,1,-24,1,-23,1
140,-17,1,3,1,20,1,7,1,-18,1,11,1,-31,1,-53,1,-45,1,-34,1,-19,1,-19,1
141,-15,1,3,1,18,1,6,1,-16,1,10,1,-20,1,-41,1,-36,1,-28,1,-15,1,-16,1
142,-11,1,2,1,13,1,4,1,-12,1,7,1,-13,1,-33,1,-28,1,-23,1,-11,1,-14,1
143,-8,1,0,1,8,1,4,1,-8,1,4,1,-8,1,-24,1,-21,1,-19,1,-10,1,-14,1
144,-8,1,-4,1,4,1,6,1,-6,1,0,1,-3,1,-17,1,-15,1,-17,1,-8,1,-12,1
145,-8,1,-7,1,1,1,7,1,-5,1,-3,1,0,1,-12,1,-11,1,-15,1,-8,1,-12,1
146,-7,1,-8,1,-1,1,7,1,-3,1,-5,1,1,1,-9,1,-11,1,-15,1,-8,1,-13,1
147,-7,1,-8,1,-1,1,7,1,-3,1,-5,1,1,1,-9,1,-10,1,-15,1,-8,1,-13,1
148,-6,1,-8,1,-2,1,7,1,-2,1,-5,1,3,1,-7,1,-8,1,-13,1,-7,1,-13,1
149,-6,1,-8,1,-2,1,7,1,-2,1,-5,1,4,1,-4,1,-6,1,-12,1,-6,1,-12,1
150,-6,1,-9,1,-3,1,7,1,-2,1,-6,1,6,1,-3,1,-4,1,-12,1,-6,1,-11,1
151,-5,1,-10,1,-5,1,7,1,0,1,-8,1,7,1,0,1,-2,1,-11,1,-6,1,-11,1
152,-4,1,-9,1,-5,1,6,1,0,1,-7,1,9,1,1,1,-1,1,-10,1,-5,1,-11,1
153,-4,1,-7,1,-3,1,5,1,-1,1,-5,1,9,1,2,1,1,1,-8,1,-3,1,-9,1
154,-3,1,-7,1,-4,1,5,1,0,1,-6,1,9,1,3,1,1,1,-8,1,-3,1,-9,1
155,-3,1,-7,1,-4,1,5,1,0,1,-6,1,9,1,3,1,1,1,-8,1,-4,1,-10,1
156,-3,1,-7,1,-4,1,5,1,0,1,-6,1,10,1,4,1,2,1,-7,1,-4,1,-9,1
157,-3,1,-7,1,-4,1,5,1,0,1,-6,1,10,1,4,1,2,1,-7,1,-3,1,-9,1
158,-4,1,-8,1,-4,1,6,1,0,1,-6,1,10,1,5,1,2,1,-7,1,-4,1,-10,1
159,-3,1,-8,1,-5,1,5,1,1,1,-7,1,10,1,5,1,3,1,-7,1,-3,1,-10,1
160,-2,1,-7,1,-5,1,4,1,1,1,-6,1,11,1,7,1,5,1,-4,1,-2,1,-9,1
161,-2,1,-7,1,-5,1,4,1,1,1,-6,1,13,1,10,1,7,1,-2,1,0,1,-8,1
162,-1,1,-6,1,-5,1,3,1,2,1,-6,1,14,1,11,1,8,1,-2,1,1,1,-8,1
163,-1,1,-5,1,-4,1,3,1,1,1,-5,1,14,1,11,1,8,1,-2,1,1,1,-8,1
164,-1,1,-5,1,-4,1,3,1,1,1,-5,1,13,1,11,1,9,1,-2,1,2,1,-8,1
165,0,1,-4,1,-4,1,2,1,2,1,-4,1,12,1,12,1,9,1,-3,1,1,1,-8,1
166,1,1,-4,1,-5,1,1,1,3,1,-4,1,11,1,11,1,9,1,-2,1,2,1,-8,1
167,0,1,-4,1,-4,1,2,1,2,1,-4,1,12,1,12,1,9,1,0,1,2,1,-7,1
168,-1,1,-4,1,-3,1,2,1,1,1,-4,1,13,1,13,1,10,1,0,1,3,1,-7,1
169,0,1,-3,1,-3,1,1,1,1,1,-3,1,13,1,14,1,11,1,0,1,3,1,-7,1
170,1,1,-4,1,-5,1,1,1,3,1,-4,1,13,1,15,1,13,1,1,1,4,1,-6,1
171,1,1,-6,1,-7,1,2,1,4,1,-6,1,15,1,17,1,15,1,3,1,5,1,-5,1
172,2,1,-5,1,-7,1,1,1,4,1,-6,1,16,1,17,1,16,1,4,1,5,1,-5,1
173,2,1,-4,1,-6,1,1,1,4,1,-5,1,16,1,18,1,16,1,5,1,6,1,-4,1
174,2,1,-3,1,-5,1,0,1,3,1,-4,1,17,1,19,1,17,1,6,1,6,1,-3,1
175,3,1,-2,1,-5,1,0,1,4,1,-3,1,17,1,19,1,18,1,6,1,7,1,-3,1
176,4,1,-1,1,-5,1,-1,1,4,1,-3,1,16,1,19,1,19,1,6,1,7,1,-3,1
177,4,1,-1,1,-5,1,-1,1,4,1,-3,1,16,1,19,1,20,1,7,1,8,1,-2,1
178,4,1,-1,1,-5,1,-1,1,4,1,-3,1,16,1,20,1,20,1,7,1,8,1,-1,1
179,4,1,-1,1,-5,1,-1,1,4,1,-3,1,15,1,21,1,22,1,9,1,8,1,0,1
180,4,1,-1,1,-5,1,-1,1,4,1,-3,1,16,1,22,1,23,1,9,1,9,1,0,1
181,5,1,-1,1,-6,1,-2,1,5,1,-3,1,18,1,24,1,25,1,10,1,10,1,1,1
182,4,1,-1,1,-5,1,-1,1,4,1,-3,1,18,1,25,1,27,1,12,1,11,1,2,1
183,5,1,0,1,-5,1,-2,1,5,1,-2,1,18,1,25,1,27,1,12,1,11,1,2,1
184,6,1,0,1,-6,1,-3,1,6,1,-3,1,18,1,26,1,28,1,14,1,12,1,3,1
185,6,1,0,1,-6,1,-3,1,6,1,-3,1,19,1,27,1,29,1,14,1,13,1,3,1
186,6,1,0,1,-6,1,-3,1,6,1,-3,1,17,1,26,1,29,1,15,1,13,1,3,1
187,8,1,1,1,-7,1,-4,1,8,1,-3,1,17,1,27,1,29,1,15,1,14,1,3,1
188,9,1,1,1,-8,1,-5,1,9,1,-3,1,17,1,28,1,30,1,16,1,15,1,4,1
189,8,1,1,1,-7,1,-4,1,8,1,-3,1,17,1,28,1,32,1,17,1,15,1,4,1
190,7,1,1,1,-6,1,-4,1,7,1,-2,1,18,1,29,1,33,1,19,1,16,1,4,1
191,7,1,1,1,-6,1,-4,1,7,1,-2,1,20,1,32,1,36,1,20,1,16,1,4,1
192,9,1,3,1,-6,1,-6,1,8,1,-1,1,22,1,34,1,38,1,22,1,18,1,5,1
193,9,1,4,1,-5,1,-6,1,7,1,0,1,21,1,35,1,40,1,23,1,18,1,5,1
194,10,1,4,1,-6,1,-7,1,8,1,-1,1,21,1,35,1,40,1,23,1,18,1,6,1
195,10,1,4,1,-6,1,-7,1,8,1,-1,1,21,1,35,1,41,1,25,1,19,1,6,1
196,10,1,6,1,-4,1,-8,1,7,1,1,1,22,1,36,1,43,1,27,1,22,1,8,1
197,12,1,6,1,-6,1,-9,1,9,1,0,1,21,1,37,1,44,1,28,1,22,1,8,1
198,12,1,7,1,-5,1,-9,1,9,1,1,1,21,1,37,1,45,1,29,1,22,1,8,1
199,14,1,7,1,-7,1,-10,1,11,1,0,1,21,1,39,1,47,1,31,1,24,1,9,1
200,15,1,7,1,-8,1,-11,1,12,1,0,1,23,1,42,1,50,1,32,1,26,1,11,1
201,14,1,7,1,-7,1,-10,1,11,1,0,1,24,1,45,1,52,1,33,1,28,1,11,1
202,15,1,8,1,-7,1,-11,1,11,1,1,1,24,1,46,1,55,1,35,1,29,1,12,1
203,15,1,9,1,-6,1,-12,1,11,1,2,1,25,1,47,1,56,1,36,1,29,1,13,1
204,17,1,11,1,-6,1,-14,1,12,1,3,1,25,1,48,1,57,1,37,1,29,1,13,1
205,16,1,11,1,-5,1,-13,1,11,1,3,1,25,1,50,1,59,1,39,1,30,1,13,1
206,18,1,12,1,-6,1,-15,1,12,1,3,1,25,1,51,1,60,1,39,1,30,1,13,1
207,19,1,13,1,-6,1,-16,1,13,1,4,1,25,1,53,1,62,1,41,1,32,1,15,1
208,19,1,14,1,-5,1,-16,1,12,1,5,1,25,1,54,1,64,1,43,1,34,1,17,1
209,21,1,16,1,-5,1,-18,1,13,1,6,1,27,1,56,1,68,1,45,1,35,1,19,1
210,21,1,17,1,-4,1,-19,1,13,1,7,1,27,1,58,1,69,1,47,1,37,1,19,1
211,21,1,17,1,-4,1,-19,1,13,1,7,1,29,1,61,1,73,1,49,1,38,1,21,1
212,23,1,18,1,-5,1,-20,1,14,1,7,1,30,1,64,1,76,1,52,1,41,1,23,1
213,24,1,19,1,-5,1,-21,1,15,1,7,1,30,1,65,1,78,1,54,1,42,1,25,1
214,25,1,20,1,-5,1,-22,1,15,1,8,1,31,1,67,1,81,1,56,1,44,1,26,1
215,26,1,19,1,-7,1,-22,1,17,1,6,1,30,1,68,1,82,1,58,1,44,1,26,1
216,28,1,21,1,-7,1,-24,1,18,1,7,1,29,1,68,1,83,1,59,1,46,1,28,1
217,28,1,23,1,-5,1,-25,1,17,1,9,1,29,1,71,1,86,1,61,1,48,1,30,1
218,28,1,24,1,-4,1,-26,1,16,1,10,1,29,1,72,1,89,1,63,1,50,1,31,1
219,29,1,24,1,-5,1,-26,1,17,1,10,1,30,1,73,1,91,1,66,1,52,1,32,1
220,30,1,24,1,-6,1,-27,1,18,1,9,1,30,1,75,1,94,1,69,1,53,1,33,1
221,32,1,27,1,-5,1,-29,1,19,1,11,1,33,1,79,1,98,1,72,1,56,1,36,1
222,34,1,29,1,-5,1,-31,1,20,1,12,1,34,1,80,1,101,1,74,1,58,1,37,1
223,34,1,30,1,-4,1,-32,1,19,1,13,1,32,1,81,1,104,1,77,1,60,1,38,1
224,36,1,31,1,-5,1,-33,1,21,1,13,1,32,1,83,1,107,1,79,1,62,1,40,1
225,37,1,33,1,-4,1,-35,1,21,1,15,1,31,1,84,1,109,1,82,1,64,1,42,1
226,38,1,35,1,-3,1,-36,1,21,1,16,1,31,1,85,1,110,1,83,1,65,1,42,1
227,39,1,36,1,-3,1,-37,1,21,1,17,1,30,1,85,1,112,1,84,1,66,1,44,1
228,40,1,37,1,-3,1,-38,1,22,1,17,1,30,1,86,1,114,1,86,1,67,1,45,1
229,42,1,38,1,-4,1,-40,1,23,1,17,1,30,1,87,1,116,1,87,1,70,1,46,1
230,43,1,39,1,-4,1,-41,1,24,1,18,1,30,1,87,1,116,1,88,1,70,1,47,1
231,42,1,40,1,-2,1,-41,1,22,1,19,1,32,1,90,1,119,1,90,1,72,1,49,1
232,43,1,42,1,-1,1,-42,1,22,1,21,1,31,1,90,1,121,1,91,1,73,1,50,1
233,44,1,43,1,-1,1,-43,1,23,1,21,1,31,1,91,1,122,1,93,1,75,1,51,1
234,44,1,44,1,0,1,-44,1,22,1,22,1,31,1,90,1,122,1,93,1,75,1,51,1
235,44,1,45,1,1,1,-44,1,22,1,23,1,30,1,90,1,122,1,94,1,76,1,51,1
236,45,1,47,1,2,1,-46,1,22,1,25,1,28,1,88,1,121,1,94,1,76,1,52,1
237,46,1,48,1,2,1,-47,1,22,1,25,1,27,1,88,1,121,1,94,1,76,1,52,1
238,46,1,48,1,2,1,-47,1,22,1,25,1,28,1,88,1,122,1,94,1,77,1,53,1
239,46,1,49,1,3,1,-47,1,22,1,26,1,27,1,87,1,121,1,95,1,78,1,53,1
240,45,1,49,1,4,1,-47,1,21,1,27,1,27,1,88,1,122,1,96,1,77,1,54,1
241,45,1,49,1,4,1,-47,1,21,1,27,1,28,1,88,1,123,1,96,1,77,1,54,1
242,46,1,50,1,4,1,-48,1,21,1,27,1,28,1,87,1,124,1,97,1,77,1,54,1
243,47,1,51,1,4,1,-49,1,22,1,28,1,27,1,85,1,123,1,97,1,79,1,56,1
244,45,1,51,1,6,1,-48,1,20,1,29,1,26,1,83,1,122,1,97,1,80,1,57,1
245,45,1,51,1,6,1,-48,1,20,1,29,1,25,1,81,1,120,1,95,1,79,1,57,1
246,47,1,52,1,5,1,-49,1,21,1,29,1,23,1,79,1,119,1,95,1,79,1,56,1
247,47,1,52,1,5,1,-49,1,21,1,29,1,23,1,78,1,118,1,94,1,79,1,58,1
248,47,1,52,1,5,1,-49,1,21,1,29,1,22,1,76,1,117,1,94,1,79,1,58,1
249,47,1,52,1,5,1,-49,1,21,1,29,1,22,1,74,1,116,1,94,1,78,1,57,1
250,45,1,52,1,7,1,-48,1,19,1,30,1,21,1,71,1,114,1,93,1,77,1,57,1
251,45,1,51,1,6,1,-48,1,20,1,29,1,22,1,71,1,113,1,91,1,77,1,56,1
252,45,1,51,1,6,1,-48,1,20,1,29,1,21,1,69,1,111,1,89,1,75,1,55,1
253,43,1,52,1,9,1,-47,1,17,1,31,1,21,1,67,1,108,1,88,1,75,1,55,1
254,42,1,50,1,8,1,-46,1,17,1,29,1,20,1,65,1,104,1,86,1,73,1,54,1
255,40,1,50,1,10,1,-45,1,15,1,30,1,19,1,62,1,100,1,83,1,70,1,51,1
256,40,1,49,1,9,1,-44,1,16,1,29,1,17,1,58,1,95,1,79,1,66,1,49,1
257,38,1,49,1,11,1,-43,1,14,1,30,1,17,1,54,1,91,1,76,1,65,1,47,1
258,37,1,48,1,11,1,-42,1,13,1,30,1,15,1,50,1,86,1,73,1,62,1,45,1
259,35,1,45,1,10,1,-40,1,13,1,28,1,15,1,47,1,82,1,68,1,60,1,42,1
260,34,1,44,1,10,1,-39,1,12,1,27,1,15,1,45,1,78,1,64,1,57,1,40,1
261,32,1,42,1,10,1,-37,1,11,1,26,1,16,1,42,1,74,1,62,1,56,1,39,1
262,30,1,41,1,11,1,-35,1,10,1,26,1,16,1,40,1,71,1,59,1,54,1,38,1
263,28,1,37,1,9,1,-32,1,10,1,23,1,15,1,36,1,65,1,55,1,49,1,35,1
264,26,1,35,1,9,1,-30,1,9,1,22,1,13,1,32,1,60,1,50,1,46,1,32,1
265,24,1,33,1,9,1,-28,1,8,1,21,1,13,1,28,1,56,1,46,1,42,1,29,1
266,22,1,32,1,10,1,-27,1,6,1,21,1,11,1,24,1,50,1,42,1,39,1,26,1
267,19,1,29,1,10,1,-24,1,5,1,20,1,11,1,21,1,46,1,38,1,35,1,24,1
268,17,1,26,1,9,1,-21,1,4,1,18,1,11,1,18,1,43,1,34,1,32,1,22,1
269,16,1,23,1,7,1,-19,1,5,1,15,1,11,1,16,1,39,1,30,1,30,1,20,1
270,14,1,19,1,5,1,-16,1,5,1,12,1,11,1,14,1,34,1,26,1,27,1,17,1
271,12,1,16,1,4,1,-14,1,4,1,10,1,12,1,12,1,31,1,23,1,24,1,14,1
272,11,1,15,1,4,1,-13,1,4,1,10,1,10,1,10,1,28,1,20,1,20,1,11,1
273,10,1,13,1,3,1,-11,1,4,1,8,1,10,1,7,1,23,1,16,1,17,1,9,1
274,8,1,11,1,3,1,-9,1,3,1,7,1,9,1,3,1,19,1,13,1,15,1,6,1
275,6,1,10,1,4,1,-8,1,1,1,7,1,9,1,2,1,16,1,10,1,13,1,6,1
276,4,1,9,1,5,1,-6,1,0,1,7,1,7,1,0,1,13,1,8,1,11,1,4,1
277,4,1,8,1,4,1,-6,1,0,1,6,1,6,1,-4,1,9,1,5,1,8,1,1,1
278,4,1,6,1,2,1,-5,1,1,1,4,1,6,1,-5,1,6,1,3,1,6,1,0,1
279,2,1,5,1,3,1,-3,1,0,1,4,1,6,1,-6,1,3,1,0,1,4,1,-2,1
280,1,1,3,1,2,1,-2,1,0,1,3,1,6,1,-7,1,2,1,-1,1,4,1,-3,1
281,-1,1,0,1,1,1,0,1,-1,1,0,1,8,1,-7,1,1,1,-3,1,3,1,-4,1
282,-1,1,0,1,1,1,0,1,-1,1,0,1,6,1,-9,1,-1,1,-5,1,0,1,-6,1
283,-1,1,0,1,1,1,0,1,-1,1,0,1,6,1,-11,1,-5,1,-7,1,-1,1,-8,1
284,-3,1,-2,1,1,1,2,1,-2,1,-1,1,6,1,-12,1,-6,1,-9,1,-3,1,-9,1
285,-3,1,-3,1,0,1,3,1,-2,1,-2,1,5,1,-13,1,-8,1,-11,1,-5,1,-10,1
286,-3,1,-3,1,0,1,3,1,-2,1,-2,1,4,1,-15,1,-10,1,-13,1,-5,1,-11,1
287,-3,1,-3,1,0,1,3,1,-2,1,-2,1,4,1,-17,1,-12,1,-14,1,-6,1,-12,1
288,-4,1,-4,1,0,1,4,1,-2,1,-2,1,4,1,-17,1,-11,1,-14,1,-7,1,-12,1
289,-5,1,-6,1,-1,1,5,1,-2,1,-4,1,4,1,-18,1,-12,1,-15,1,-8,1,-13,1
290,-6,1,-7,1,-1,1,6,1,-3,1,-4,1,4,1,-17,1,-12,1,-16,1,-8,1,-12,1
291,-7,1,-9,1,-2,1,8,1,-3,1,-6,1,6,1,-16,1,-13,1,-15,1,-8,1,-13,1
292,-6,1,-8,1,-2,1,7,1,-2,1,-5,1,7,1,-16,1,-12,1,-15,1,-8,1,-13,1
293,-6,1,-8,1,-2,1,7,1,-2,1,-5,1,6,1,-17,1,-12,1,-15,1,-8,1,-13,1
294,-6,1,-8,1,-2,1,7,1,-2,1,-5,1,5,1,-18,1,-14,1,-17,1,-9,1,-13,1
295,-6,1,-8,1,-2,1,7,1,-2,1,-5,1,5,1,-18,1,-14,1,-17,1,-10,1,-13,1
296,-5,1,-6,1,-1,1,5,1,-2,1,-4,1,4,1,-18,1,-15,1,-16,1,-10,1,-14,1
297,-7,1,-7,1,0,1,7,1,-4,1,-4,1,4,1,-19,1,-16,1,-17,1,-11,1,-15,1
298,-8,1,-9,1,-1,1,8,1,-4,1,-5,1,4,1,-19,1,-16,1,-18,1,-12,1,-16,1
299,-6,1,-9,1,-3,1,7,1,-2,1,-6,1,4,1,-19,1,-16,1,-18,1,-13,1,-17,1
300,-6,1,-9,1,-3,1,7,1,-2,1,-6,1,4,1,-19,1,-16,1,-18,1,-13,1,-17,1
301,-7,1,-9,1,-2,1,8,1,-3,1,-6,1,6,1,-17,1,-14,1,-17,1,-11,1,-16,1
302,-8,1,-9,1,-1,1,8,1,-4,1,-5,1,8,1,-17,1,-14,1,-17,1,-11,1,-16,1
303,-7,1,-9,1,-2,1,8,1,-3,1,-6,1,6,1,-18,1,-15,1,-19,1,-12,1,-17,1
304,-7,1,-10,1,-3,1,8,1,-2,1,-7,1,6,1,-18,1,-16,1,-18,1,-12,1,-17,1
305,-6,1,-8,1,-2,1,7,1,-2,1,-5,1,6,1,-18,1,-15,1,-18,1,-12,1,-16,1
306,-5,1,-7,1,-2,1,6,1,-2,1,-5,1,6,1,-19,1,-15,1,-17,1,-10,1,-15,1
307,-5,1,-7,1,-2,1,6,1,-2,1,-5,1,5,1,-18,1,-16,1,-17,1,-10,1,-15,1
308,-6,1,-7,1,-1,1,6,1,-3,1,-4,1,6,1,-18,1,-15,1,-17,1,-10,1,-14,1
309,-5,1,-7,1,-2,1,6,1,-2,1,-5,1,5,1,-18,1,-15,1,-17,1,-10,1,-15,1
310,-5,1,-8,1,-3,1,6,1,-1,1,-6,1,5,1,-18,1,-16,1,-18,1,-11,1,-15,1
311,-6,1,-9,1,-3,1,7,1,-2,1,-6,1,7,1,-17,1,-14,1,-17,1,-10,1,-15,1
312,-6,1,-9,1,-3,1,7,1,-2,1,-6,1,7,1,-16,1,-14,1,-17,1,-10,1,-15,1
313,-6,1,-9,1,-3,1,7,1,-2,1,-6,1,8,1,-15,1,-14,1,-17,1,-10,1,-15,1
314,-7,1,-10,1,-3,1,8,1,-2,1,-7,1,7,1,-15,1,-14,1,-16,1,-10,1,-15,1
315,-5,1,-9,1,-4,1,7,1,-1,1,-7,1,7,1,-15,1,-14,1,-16,1,-10,1,-15,1
316,-5,1,-8,1,-3,1,6,1,-1,1,-6,1,6,1,-15,1,-13,1,-16,1,-10,1,-14,1
317,-7,1,-9,1,-2,1,8,1,-3,1,-6,1,6,1,-15,1,-14,1,-16,1,-10,1,-14,1
318,-7,1,-9,1,-2,1,8,1,-3,1,-6,1,6,1,-15,1,-14,1,-16,1,-10,1,-14,1
319,-6,1,-9,1,-3,1,7,1,-2,1,-6,1,6,1,-15,1,-14,1,-15,1,-10,1,-14,1
320,-6,1,-9,1,-3,1,7,1,-2,1,-6,1,6,1,-15,1,-15,1,-16,1,-11,1,-15,1
321,-6,1,-9,1,-3,1,7,1,-2,1,-6,1,7,1,-14,1,-14,1,-15,1,-11,1,-15,1
322,-6,1,-8,1,-2,1,7,1,-2,1,-5,1,8,1,-13,1,-13,1,-14,1,-9,1,-14,1
323,-6,1,-8,1,-2,1,7,1,-2,1,-5,1,8,1,-14,1,-13,1,-15,1,-10,1,-14,1
324,-6,1,-8,1,-2,1,7,1,-2,1,-5,1,7,1,-14,1,-13,1,-15,1,-9,1,-14,1
325,-7,1,-8,1,-1,1,7,1,-3,1,-5,1,7,1,-14,1,-13,1,-15,1,-9,1,-15,1
326,-7,1,-8,1,-1,1,7,1,-3,1,-5,1,6,1,-14,1,-13,1,-15,1,-9,1,-14,1
327,-6,1,-7,1,-1,1,6,1,-3,1,-4,1,6,1,-14,1,-13,1,-15,1,-9,1,-14,1
328,-5,1,-7,1,-2,1,6,1,-2,1,-5,1,6,1,-14,1,-13,1,-15,1,-9,1,-13,1
329,-5,1,-7,1,-2,1,6,1,-2,1,-5,1,7,1,-14,1,-13,1,-15,1,-9,1,-13,1
330,-5,1,-7,1,-2,1,6,1,-2,1,-5,1,7,1,-13,1,-13,1,-15,1,-9,1,-14,1
331,-5,1,-9,1,-4,1,7,1,-1,1,-7,1,8,1,-13,1,-13,1,-15,1,-9,1,-14,1
332,-5,1,-9,1,-4,1,7,1,-1,1,-7,1,8,1,-12,1,-13,1,-15,1,-8,1,-14,1
333,-4,1,-9,1,-5,1,6,1,0,1,-7,1,8,1,-12,1,-12,1,-15,1,-8,1,-14,1
334,-4,1,-9,1,-5,1,6,1,0,1,-7,1,8,1,-13,1,-11,1,-14,1,-7,1,-14,1
335,-4,1,-10,1,-6,1,7,1,1,1,-8,1,7,1,-12,1,-10,1,-14,1,-7,1,-12,1
336,-3,1,-9,1,-6,1,6,1,1,1,-8,1,7,1,-13,1,-11,1,-15,1,-8,1,-13,1
337,-4,1,-9,1,-5,1,6,1,0,1,-7,1,6,1,-13,1,-11,1,-15,1,-7,1,-13,1
338,-5,1,-9,1,-4,1,7,1,-1,1,-7,1,7,1,-13,1,-11,1,-14,1,-8,1,-13,1
339,-5,1,-10,1,-5,1,7,1,0,1,-8,1,7,1,-13,1,-11,1,-14,1,-8,1,-13,1
340,-5,1,-10,1,-5,1,7,1,0,1,-8,1,7,1,-13,1,-11,1,-14,1,-8,1,-12,1
341,-4,1,-10,1,-6,1,7,1,1,1,-8,1,8,1,-12,1,-10,1,-13,1,-7,1,-11,1
342,-5,1,-10,1,-5,1,7,1,0,1,-8,1,9,1,-11,1,-8,1,-13,1,-7,1,-12,1
343,-5,1,-10,1,-5,1,7,1,0,1,-8,1,8,1,-11,1,-7,1,-14,1,-8,1,-12,1
344,-3,1,-11,1,-8,1,7,1,2,1,-10,1,8,1,-13,1,-6,1,-15,1,-9,1,-14,1
345,-4,1,-11,1,-7,1,7,1,1,1,-9,1,7,1,-13,1,-6,1,-15,1,-9,1,-14,1
346,-4,1,-10,1,-6,1,7,1,1,1,-8,1,6,1,-12,1,-9,1,-16,1,-10,1,-15,1
347,-5,1,-9,1,-4,1,7,1,-1,1,-7,1,6,1,-12,1,-10,1,-16,1,-10,1,-15,1
348,-6,1,-11,1,-5,1,8,1,-1,1,-8,1,6,1,-12,1,-10,1,-15,1,-9,1,-14,1
349,-5,1,-11,1,-6,1,8,1,0,1,-9,1,7,1,-12,1,-10,1,-15,1,-9,1,-14,1
350,-5,1,-11,1,-6,1,8,1,0,1,-9,1,7,1,-12,1,-11,1,-16,1,-10,1,-14,1
351,-6,1,-12,1,-6,1,9,1,0,1,-9,1,9,1,-10,1,-11,1,-16,1,-10,1,-14,1
352,-6,1,-12,1,-6,1,9,1,0,1,-9,1,9,1,-11,1,-11,1,-16,1,-10,1,-14,1
353,-5,1,-11,1,-6,1,8,1,0,1,-9,1,6,1,-13,1,-13,1,-18,1,-11,1,-16,1
354,-5,1,-11,1,-6,1,8,1,0,1,-9,1,6,1,-13,1,-13,1,-18,1,-11,1,-16,1
355,-6,1,-11,1,-5,1,8,1,-1,1,-8,1,6,1,-13,1,-14,1,-18,1,-11,1,-16,1
356,-6,1,-11,1,-5,1,8,1,-1,1,-8,1,5,1,-14,1,-14,1,-19,1,-12,1,-16,1
357,-6,1,-10,1,-4,1,8,1,-1,1,-7,1,4,1,-15,1,-16,1,-20,1,-13,1,-16,1
358,-6,1,-10,1,-4,1,8,1,-1,1,-7,1,4,1,-15,1,-16,1,-20,1,-12,1,-18,1
359,-6,1,-10,1,-4,1,8,1,-1,1,-7,1,4,1,-15,1,-16,1,-20,1,-12,1,-18,1
360,-7,1,-11,1,-4,1,9,1,-2,1,-8,1,5,1,-15,1,-16,1,-19,1,-12,1,-17,1
361,-6,1,-12,1,-6,1,9,1,0,1,-9,1,6,1,-15,1,-16,1,-19,1,-12,1,-16,1
362,-4,1,-12,1,-8,1,8,1,2,1,-10,1,6,1,-15,1,-16,1,-19,1,-12,1,-16,1
363,-3,1,-11,1,-8,1,7,1,2,1,-10,1,6,1,-15,1,-18,1,-20,1,-13,1,-17,1
364,-5,1,-12,1,-7,1,8,1,1,1,-10,1,6,1,-15,1,-18,1,-20,1,-13,1,-16,1
365,-7,1,-13,1,-6,1,10,1,-1,1,-10,1,6,1,-15,1,-18,1,-20,1,-13,1,-17,1
366,-6,1,-12,1,-6,1,9,1,0,1,-9,1,4,1,-17,1,-19,1,-20,1,-12,1,-17,1
367,-7,1,-13,1,-6,1,10,1,-1,1,-10,1,4,1,-17,1,-19,1,-20,1,-13,1,-16,1
368,-7,1,-14,1,-7,1,10,1,0,1,-11,1,3,1,-17,1,-19,1,-21,1,-13,1,-17,1
369,-7,1,-15,1,-8,1,11,1,0,1,-12,1,4,1,-17,1,-20,1,-21,1,-14,1,-18,1
370,-8,1,-16,1,-8,1,12,1,0,1,-12,1,4,1,-17,1,-19,1,-21,1,-14,1,-18,1
371,-9,1,-18,1,-9,1,13,1,0,1,-14,1,5,1,-16,1,-19,1,-22,1,-14,1,-17,1
372,-8,1,-16,1,-8,1,12,1,0,1,-12,1,5,1,-16,1,-18,1,-21,1,-14,1,-18,1
373,-8,1,-15,1,-7,1,11,1,-1,1,-11,1,4,1,-17,1,-19,1,-22,1,-14,1,-18,1
374,-8,1,-16,1,-8,1,12,1,0,1,-12,1,4,1,-17,1,-20,1,-23,1,-15,1,-18,1
375,-7,1,-16,1,-9,1,11,1,1,1,-13,1,4,1,-17,1,-20,1,-23,1,-15,1,-18,1
376,-7,1,-15,1,-8,1,11,1,0,1,-12,1,2,1,-18,1,-22,1,-24,1,-16,1,-18,1
377,-7,1,-14,1,-7,1,10,1,0,1,-11,1,2,1,-18,1,-21,1,-24,1,-16,1,-18,1
378,-7,1,-14,1,-7,1,10,1,0,1,-11,1,3,1,-17,1,-22,1,-24,1,-15,1,-18,1
379,-8,1,-15,1,-7,1,11,1,-1,1,-11,1,3,1,-18,1,-22,1,-24,1,-15,1,-19,1
380,-8,1,-15,1,-7,1,11,1,-1,1,-11,1,3,1,-18,1,-23,1,-25,1,-15,1,-19,1
381,-10,1,-15,1,-5,1,12,1,-3,1,-10,1,5,1,-17,1,-22,1,-25,1,-14,1,-19,1
382,-9,1,-16,1,-7,1,12,1,-1,1,-12,1,5,1,-17,1,-22,1,-25,1,-14,1,-19,1
383,-9,1,-16,1,-7,1,12,1,-1,1,-12,1,4,1,-17,1,-22,1,-24,1,-13,1,-18,1
384,-9,1,-17,1,-8,1,13,1,-1,1,-13,1,3,1,-19,1,-23,1,-24,1,-14,1,-19,1
385,-9,1,-16,1,-7,1,12,1,-1,1,-12,1,3,1,-18,1,-24,1,-25,1,-15,1,-18,1
386,-9,1,-16,1,-7,1,12,1,-1,1,-12,1,2,1,-19,1,-24,1,-25,1,-15,1,-18,1
387,-9,1,-17,1,-8,1,13,1,-1,1,-13,1,1,1,-20,1,-26,1,-26,1,-15,1,-18,1
388,-10,1,-17,1,-7,1,13,1,-2,1,-12,1,1,1,-20,1,-26,1,-26,1,-15,1,-19,1
389,-9,1,-17,1,-8,1,13,1,-1,1,-13,1,1,1,-20,1,-26,1,-26,1,-15,1,-19,1
390,-9,1,-17,1,-8,1,13,1,-1,1,-13,1,1,1,-20,1,-26,1,-26,1,-16,1,-19,1
391,-9,1,-18,1,-9,1,13,1,0,1,-14,1,3,1,-19,1,-25,1,-26,1,-15,1,-18,1
392,-9,1,-18,1,-9,1,13,1,0,1,-14,1,3,1,-19,1,-24,1,-25,1,-15,1,-18,1
393,-8,1,-17,1,-9,1,12,1,0,1,-13,1,2,1,-19,1,-24,1,-26,1,-16,1,-19,1
394,-8,1,-17,1,-9,1,12,1,0,1,-13,1,2,1,-19,1,-25,1,-25,1,-16,1,-19,1
395,-8,1,-17,1,-9,1,12,1,0,1,-13,1,2,1,-19,1,-25,1,-26,1,-16,1,-19,1
396,-8,1,-17,1,-9,1,12,1,0,1,-13,1,1,1,-20,1,-26,1,-27,1,-17,1,-20,1
397,-9,1,-17,1,-8,1,13,1,-1,1,-13,1,1,1,-21,1,-27,1,-26,1,-17,1,-20,1
398,-8,1,-16,1,-8,1,12,1,0,1,-12,1,1,1,-21,1,-28,1,-27,1,-17,1,-20,1
399,-8,1,-16,1,-8,1,12,1,0,1,-12,1,1,1,-21,1,-27,1,-27,1,-16,1,-20,1
400,-8,1,-16,1,-8,1,12,1,0,1,-12,1,1,1,-21,1,-27,1,-27,1,-17,1,-21,1
401,-8,1,-17,1,-9,1,12,1,0,1,-13,1,1,1,-21,1,-26,1,-28,1,-17,1,-21,1
402,-7,1,-16,1,-9,1,11,1,1,1,-13,1,2,1,-20,1,-26,1,-26,1,-16,1,-20,1
403,-8,1,-16,1,-8,1,12,1,0,1,-12,1,2,1,-20,1,-26,1,-26,1,-16,1,-20,1
404,-8,1,-16,1,-8,1,12,1,0,1,-12,1,2,1,-20,1,-27,1,-26,1,-17,1,-21,1
405,-7,1,-15,1,-8,1,11,1,0,1,-12,1,3,1,-20,1,-27,1,-27,1,-16,1,-21,1
406,-7,1,-15,1,-8,1,11,1,0,1,-12,1,1,1,-20,1,-27,1,-27,1,-16,1,-20,1
407,-7,1,-16,1,-9,1,11,1,1,1,-13,1,0,1,-22,1,-29,1,-28,1,-16,1,-20,1
408,-8,1,-17,1,-9,1,12,1,0,1,-13,1,1,1,-21,1,-29,1,-28,1,-16,1,-19,1
409,-8,1,-17,1,-9,1,12,1,0,1,-13,1,2,1,-20,1,-28,1,-28,1,-16,1,-19,1
410,-9,1,-17,1,-8,1,13,1,-1,1,-13,1,2,1,-21,1,-29,1,-28,1,-16,1,-20,1
411,-10,1,-18,1,-8,1,14,1,-1,1,-13,1,2,1,-21,1,-27,1,-28,1,-16,1,-19,1
412,-9,1,-18,1,-9,1,13,1,0,1,-14,1,3,1,-20,1,-27,1,-27,1,-16,1,-20,1
413,-9,1,-18,1,-9,1,13,1,0,1,-14,1,2,1,-20,1,-26,1,-27,1,-16,1,-20,1
414,-9,1,-17,1,-8,1,13,1,-1,1,-13,1,2,1,-20,1,-27,1,-28,1,-16,1,-20,1
415,-8,1,-17,1,-9,1,12,1,0,1,-13,1,1,1,-20,1,-28,1,-28,1,-17,1,-20,1
416,-8,1,-17,1,-9,1,12,1,0,1,-13,1,0,1,-22,1,-29,1,-29,1,-17,1,-21,1
417,-9,1,-17,1,-8,1,13,1,-1,1,-13,1,0,1,-22,1,-27,1,-29,1,-18,1,-21,1
418,-11,1,-18,1,-7,1,14,1,-2,1,-13,1,1,1,-21,1,-25,1,-29,1,-18,1,-22,1
419,-9,1,-18,1,-9,1,13,1,0,1,-14,1,1,1,-21,1,-24,1,-29,1,-18,1,-22,1
420,-9,1,-18,1,-9,1,13,1,0,1,-14,1,1,1,-21,1,-23,1,-29,1,-17,1,-20,1
421,-9,1,-18,1,-9,1,13,1,0,1,-14,1,2,1,-20,1,-23,1,-27,1,-17,1,-20,1
422,-8,1,-18,1,-10,1,13,1,1,1,-14,1,2,1,-20,1,-25,1,-27,1,-17,1,-20,1
423,-8,1,-18,1,-10,1,13,1,1,1,-14,1,1,1,-22,1,-26,1,-27,1,-17,1,-21,1
424,-9,1,-18,1,-9,1,13,1,0,1,-14,1,2,1,-21,1,-26,1,-27,1,-17,1,-20,1
425,-9,1,-17,1,-8,1,13,1,-1,1,-13,1,2,1,-21,1,-26,1,-27,1,-17,1,-20,1
426,-9,1,-17,1,-8,1,13,1,-1,1,-13,1,1,1,-22,1,-28,1,-28,1,-17,1,-20,1
427,-9,1,-18,1,-9,1,13,1,0,1,-14,1,0,1,-23,1,-28,1,-28,1,-17,1,-20,1
428,-9,1,-17,1,-8,1,13,1,-1,1,-13,1,0,1,-24,1,-27,1,-28,1,-17,1,-19,1
429,-9,1,-17,1,-8,1,13,1,-1,1,-13,1,0,1,-23,1,-28,1,-28,1,-16,1,-19,1
430,-9,1,-17,1,-8,1,13,1,-1,1,-13,1,0,1,-23,1,-28,1,-28,1,-16,1,-19,1
431,-10,1,-19,1,-9,1,14,1,-1,1,-14,1,1,1,-22,1,-27,1,-28,1,-16,1,-18,1
432,-10,1,-19,1,-9,1,14,1,-1,1,-14,1,2,1,-20,1,-26,1,-28,1,-16,1,-19,1
433,-9,1,-18,1,-9,1,13,1,0,1,-14,1,1,1,-20,1,-26,1,-27,1,-15,1,-18,1
434,-8,1,-18,1,-10,1,13,1,1,1,-14,1,0,1,-21,1,-27,1,-29,1,-16,1,-19,1
435,-9,1,-17,1,-8,1,13,1,-1,1,-13,1,0,1,-21,1,-28,1,-28,1,-16,1,-19,1
436,-9,1,-17,1,-8,1,13,1,-1,1,-13,1,-1,1,-22,1,-28,1,-28,1,-17,1,-19,1
437,-10,1,-17,1,-7,1,13,1,-2,1,-12,1,-1,1,-22,1,-29,1,-28,1,-17,1,-19,1
438,-10,1,-17,1,-7,1,13,1,-2,1,-12,1,-1,1,-22,1,-29,1,-28,1,-17,1,-20,1
439,-9,1,-17,1,-8,1,13,1,-1,1,-13,1,-1,1,-22,1,-29,1,-29,1,-18,1,-20,1
440,-8,1,-17,1,-9,1,12,1,0,1,-13,1,0,1,-21,1,-28,1,-29,1,-17,1,-19,1
441,-9,1,-18,1,-9,1,13,1,0,1,-14,1,2,1,-20,1,-27,1,-29,1,-17,1,-19,1
442,-10,1,-18,1,-8,1,14,1,-1,1,-13,1,3,1,-19,1,-26,1,-27,1,-16,1,-18,1
443,-9,1,-16,1,-7,1,12,1,-1,1,-12,1,5,1,-18,1,-25,1,-25,1,-16,1,-17,1
444,-9,1,-16,1,-7,1,12,1,-1,1,-12,1,4,1,-19,1,-26,1,-26,1,-16,1,-17,1
445,-8,1,-16,1,-8,1,12,1,0,1,-12,1,3,1,-19,1,-26,1,-26,1,-16,1,-18,1
446,-7,1,-17,1,-10,1,12,1,1,1,-14,1,1,1,-20,1,-28,1,-27,1,-16,1,-17,1
447,-8,1,-17,1,-9,1,12,1,0,1,-13,1,1,1,-21,1,-28,1,-27,1,-17,1,-17,1
448,-9,1,-18,1,-9,1,13,1,0,1,-14,1,1,1,-21,1,-29,1,-27,1,-17,1,-17,1
449,-8,1,-18,1,-10,1,13,1,1,1,-14,1,0,1,-22,1,-30,1,-28,1,-17,1,-18,1
450,-7,1,-17,1,-10,1,12,1,1,1,-14,1,0,1,-21,1,-29,1,-28,1,-16,1,-18,1
451,-7,1,-17,1,-10,1,12,1,1,1,-14,1,2,1,-20,1,-28,1,-27,1,-15,1,-16,1
452,-7,1,-16,1,-9,1,11,1,1,1,-13,1,2,1,-19,1,-27,1,-27,1,-15,1,-17,1
453,-6,1,-15,1,-9,1,10,1,1,1,-12,1,3,1,-18,1,-26,1,-26,1,-14,1,-15,1
454,-5,1,-16,1,-11,1,10,1,3,1,-14,1,3,1,-18,1,-26,1,-26,1,-14,1,-15,1
455,-4,1,-15,1,-11,1,9,1,3,1,-13,1,3,1,-16,1,-24,1,-24,1,-12,1,-15,1
456,-2,1,-12,1,-10,1,7,1,4,1,-11,1,3,1,-15,1,-23,1,-23,1,-12,1,-14,1
457,-2,1,-10,1,-8,1,6,1,3,1,-9,1,4,1,-15,1,-23,1,-23,1,-11,1,-13,1
458,-1,1,-11,1,-10,1,6,1,4,1,-11,1,5,1,-14,1,-21,1,-21,1,-10,1,-12,1
459,0,1,-11,1,-11,1,5,1,5,1,-11,1,4,1,-14,1,-21,1,-21,1,-10,1,-12,1
460,1,1,-11,1,-12,1,5,1,6,1,-11,1,4,1,-13,1,-20,1,-21,1,-10,1,-11,1
461,2,1,-12,1,-14,1,5,1,8,1,-13,1,5,1,-11,1,-19,1,-20,1,-10,1,-11,1
462,3,1,-12,1,-15,1,4,1,9,1,-13,1,4,1,-10,1,-19,1,-20,1,-9,1,-11,1
463,4,1,-14,1,-18,1,5,1,11,1,-16,1,3,1,-11,1,-21,1,-22,1,-11,1,-13,1
464,4,1,-14,1,-18,1,5,1,11,1,-16,1,3,1,-11,1,-21,1,-20,1,-11,1,-12,1
465,4,1,-11,1,-15,1,3,1,9,1,-13,1,3,1,-12,1,-20,1,-20,1,-10,1,-12,1
466,5,1,-8,1,-13,1,1,1,9,1,-10,1,0,1,-14,1,-20,1,-19,1,-9,1,-10,1
467,6,1,-4,1,-10,1,-1,1,8,1,-7,1,-1,1,-15,1,-20,1,-19,1,-8,1,-9,1
468,5,1,-4,1,-9,1,0,1,7,1,-6,1,-1,1,-15,1,-20,1,-18,1,-7,1,-8,1
469,5,1,-4,1,-9,1,0,1,7,1,-6,1,-2,1,-16,1,-20,1,-18,1,-7,1,-8,1
470,6,1,-4,1,-10,1,-1,1,8,1,-7,1,-3,1,-17,1,-20,1,-19,1,-7,1,-9,1
471,4,1,-5,1,-9,1,0,1,6,1,-7,1,-3,1,-18,1,-23,1,-20,1,-10,1,-10,1
472,4,1,-6,1,-10,1,1,1,7,1,-8,1,-3,1,-18,1,-23,1,-20,1,-10,1,-10,1
473,4,1,-8,1,-12,1,2,1,8,1,-10,1,-3,1,-19,1,-24,1,-21,1,-10,1,-11,1
474,5,1,-8,1,-13,1,1,1,9,1,-10,1,-4,1,-19,1,-24,1,-22,1,-11,1,-12,1
475,4,1,-9,1,-13,1,2,1,8,1,-11,1,-2,1,-18,1,-24,1,-22,1,-10,1,-12,1
476,5,1,-6,1,-11,1,0,1,8,1,-8,1,-3,1,-18,1,-24,1,-22,1,-9,1,-11,1
477,6,1,-6,1,-12,1,0,1,9,1,-9,1,-5,1,-19,1,-24,1,-23,1,-9,1,-11,1
478,6,1,-6,1,-12,1,0,1,9,1,-9,1,-3,1,-18,1,-24,1,-21,1,-9,1,-10,1
479,5,1,-6,1,-11,1,0,1,8,1,-8,1,-3,1,-18,1,-24,1,-21,1,-9,1,-10,1
480,5,1,-6,1,-11,1,0,1,8,1,-8,1,-5,1,-20,1,-25,1,-23,1,-9,1,-10,1
481,4,1,-8,1,-12,1,2,1,8,1,-10,1,-5,1,-20,1,-26,1,-24,1,-10,1,-11,1
482,6,1,-8,1,-14,1,1,1,10,1,-11,1,-5,1,-20,1,-26,1,-25,1,-11,1,-12,1
483,4,1,-8,1,-12,1,2,1,8,1,-10,1,-5,1,-20,1,-26,1,-24,1,-11,1,-12,1
484,4,1,-9,1,-13,1,2,1,8,1,-11,1,-6,1,-21,1,-26,1,-24,1,-12,1,-13,1
485,4,1,-9,1,-13,1,2,1,8,1,-11,1,-6,1,-21,1,-26,1,-24,1,-13,1,-13,1
486,5,1,-9,1,-14,1,2,1,9,1,-11,1,-6,1,-21,1,-27,1,-24,1,-13,1,-14,1
487,3,1,-11,1,-14,1,4,1,8,1,-12,1,-6,1,-23,1,-27,1,-24,1,-14,1,-14,1
488,3,1,-10,1,-13,1,3,1,8,1,-11,1,-5,1,-22,1,-27,1,-24,1,-12,1,-13,1
489,2,1,-10,1,-12,1,4,1,7,1,-11,1,-4,1,-21,1,-26,1,-23,1,-12,1,-13,1
490,2,1,-10,1,-12,1,4,1,7,1,-11,1,-2,1,-20,1,-26,1,-22,1,-11,1,-12,1
491,0,1,-12,1,-12,1,6,1,6,1,-12,1,-2,1,-18,1,-26,1,-22,1,-11,1,-12,1
492,-1,1,-13,1,-12,1,7,1,5,1,-13,1,-2,1,-18,1,-26,1,-24,1,-12,1,-14,1
493,-2,1,-13,1,-11,1,7,1,4,1,-12,1,-1,1,-17,1,-24,1,-23,1,-12,1,-13,1
494,-3,1,-13,1,-10,1,8,1,3,1,-12,1,1,1,-15,1,-22,1,-22,1,-11,1,-13,1
495,-3,1,-12,1,-9,1,7,1,3,1,-11,1,1,1,-15,1,-22,1,-22,1,-11,1,-13,1
496,-5,1,-12,1,-7,1,8,1,1,1,-10,1,0,1,-16,1,-23,1,-22,1,-12,1,-14,1
497,-7,1,-14,1,-7,1,10,1,0,1,-11,1,0,1,-18,1,-26,1,-25,1,-14,1,-15,1
498,-9,1,-18,1,-9,1,13,1,0,1,-14,1,0,1,-19,1,-28,1,-27,1,-16,1,-17,1
499,-11,1,-20,1,-9,1,15,1,-1,1,-15,1,0,1,-21,1,-30,1,-29,1,-18,1,-19,1
500,-11,1,-20,1,-9,1,15,1,-1,1,-15,1,-1,1,-22,1,-32,1,-30,1,-19,1,-20,1
501,-11,1,-21,1,-10,1,16,1,-1,1,-16,1,0,1,-21,1,-30,1,-30,1,-18,1,-19,1
502,-11,1,-21,1,-10,1,16,1,-1,1,-16,1,1,1,-21,1,-29,1,-30,1,-18,1,-19,1
503,-11,1,-21,1,-10,1,16,1,-1,1,-16,1,1,1,-22,1,-31,1,-30,1,-18,1,-20,1
504,-11,1,-22,1,-11,1,16,1,0,1,-17,1,0,1,-22,1,-31,1,-30,1,-18,1,-20,1
505,-11,1,-22,1,-11,1,16,1,0,1,-17,1,0,1,-22,1,-31,1,-30,1,-18,1,-19,1
506,-11,1,-22,1,-11,1,16,1,0,1,-17,1,0,1,-22,1,-32,1,-30,1,-18,1,-19,1
507,-11,1,-22,1,-11,1,16,1,0,1,-17,1,1,1,-23,1,-32,1,-29,1,-18,1,-19,1
508,-12,1,-22,1,-10,1,17,1,-1,1,-16,1,1,1,-22,1,-32,1,-29,1,-18,1,-19,1
509,-13,1,-22,1,-9,1,17,1,-2,1,-16,1,2,1,-22,1,-32,1,-29,1,-18,1,-19,1
510,-13,1,-22,1,-9,1,17,1,-2,1,-16,1,2,1,-21,1,-30,1,-28,1,-17,1,-20,1
511,-13,1,-22,1,-9,1,17,1,-2,1,-16,1,2,1,-21,1,-30,1,-29,1,-19,1,-20,1
512,-13,1,-21,1,-8,1,17,1,-3,1,-15,1,3,1,-20,1,-30,1,-28,1,-18,1,-20,1
513,-13,1,-21,1,-8,1,17,1,-3,1,-15,1,3,1,-20,1,-30,1,-28,1,-18,1,-20,1
514,-12,1,-21,1,-9,1,16,1,-2,1,-15,1,3,1,-21,1,-31,1,-29,1,-18,1,-20,1
515,-13,1,-21,1,-8,1,17,1,-3,1,-15,1,3,1,-21,1,-30,1,-29,1,-18,1,-21,1
516,-13,1,-19,1,-6,1,16,1,-4,1,-13,1,1,1,-21,1,-31,1,-29,1,-18,1,-21,1
517,-13,1,-20,1,-7,1,16,1,-3,1,-14,1,1,1,-22,1,-32,1,-30,1,-20,1,-22,1
518,-13,1,-19,1,-6,1,16,1,-4,1,-13,1,1,1,-22,1,-31,1,-30,1,-20,1,-22,1
519,-13,1,-19,1,-6,1,16,1,-4,1,-13,1,3,1,-20,1,-31,1,-29,1,-19,1,-21,1
520,-13,1,-20,1,-7,1,16,1,-3,1,-14,1,3,1,-20,1,-31,1,-29,1,-19,1,-20,1
521,-14,1,-22,1,-8,1,18,1,-3,1,-15,1,4,1,-19,1,-30,1,-29,1,-19,1,-20,1
522,-16,1,-22,1,-6,1,19,1,-5,1,-14,1,9,1,-15,1,-27,1,-27,1,-16,1,-19,1
523,-17,1,-19,1,-2,1,18,1,-8,1,-11,1,14,1,-9,1,-25,1,-26,1,-16,1,-18,1
524,-18,1,-18,1,0,1,18,1,-9,1,-9,1,22,1,0,1,-22,1,-25,1,-18,1,-20,1
525,-20,1,-17,1,3,1,18,1,-12,1,-7,1,30,1,10,1,-17,1,-23,1,-17,1,-20,1
526,-15,1,-14,1,1,1,14,1,-8,1,-7,1,33,1,17,1,-11,1,-18,1,-14,1,-17,1
527,-12,1,-12,1,0,1,12,1,-6,1,-6,1,36,1,25,1,-3,1,-12,1,-9,1,-14,1
528,-7,1,-11,1,-4,1,9,1,-2,1,-8,1,42,1,42,1,11,1,-2,1,-3,1,-9,1
529,2,1,-10,1,-12,1,4,1,7,1,-11,1,53,1,68,1,34,1,13,1,7,1,-3,1
530,11,1,-5,1,-16,1,-3,1,13,1,-10,1,66,1,92,1,57,1,30,1,20,1,5,1
531,22,1,7,1,-15,1,-14,1,19,1,-4,1,75,1,113,1,91,1,58,1,40,1,21,1
532,34,1,20,1,-14,1,-27,1,24,1,3,1,77,1,130,1,126,1,89,1,64,1,39,1
533,50,1,37,1,-13,1,-43,1,32,1,12,1,65,1,133,1,157,1,123,1,90,1,61,1
534,69,1,56,1,-13,1,-62,1,41,1,22,1,40,1,122,1,188,1,159,1,121,1,86,1
535,86,1,80,1,-6,1,-83,1,46,1,37,1,7,1,100,1,215,1,196,1,154,1,113,1
536,104,1,109,1,5,1,-106,1,50,1,57,1,-39,1,58,1,223,1,224,1,183,1,142,1
537,117,1,135,1,18,1,-126,1,50,1,77,1,-93,1,-7,1,210,1,238,1,207,1,166,1
538,126,1,149,1,23,1,-137,1,52,1,86,1,-135,1,-58,1,200,1,248,1,220,1,180,1
539,123,1,153,1,30,1,-138,1,47,1,92,1,-158,1,-96,1,194,1,257,1,227,1,188,1
540,111,1,138,1,27,1,-124,1,42,1,83,1,-161,1,-122,1,189,1,253,1,220,1,178,1
541,92,1,109,1,17,1,-100,1,38,1,63,1,-154,1,-137,1,176,1,231,1,193,1,152,1
542,76,1,92,1,16,1,-84,1,30,1,54,1,-157,1,-159,1,141,1,189,1,161,1,127,1
543,57,1,78,1,21,1,-67,1,18,1,50,1,-161,1,-183,1,93,1,138,1,122,1,99,1
544,36,1,58,1,22,1,-47,1,7,1,40,1,-159,1,-203,1,36,1,83,1,81,1,68,1
545,17,1,36,1,19,1,-26,1,-1,1,28,1,-159,1,-225,1,-33,1,22,1,38,1,38,1
546,-5,1,18,1,23,1,-6,1,-14,1,20,1,-162,1,-259,1,-122,1,-47,1,-6,1,7,1
547,-22,1,3,1,25,1,9,1,-23,1,14,1,-169,1,-283,1,-193,1,-103,1,-43,1,-17,1
548,-34,1,-5,1,29,1,19,1,-32,1,12,1,-170,1,-288,1,-228,1,-134,1,-63,1,-31,1
549,-42,1,-12,1,30,1,27,1,-36,1,9,1,-159,1,-272,1,-222,1,-136,1,-70,1,-40,1
550,-49,1,-19,1,30,1,34,1,-40,1,5,1,-147,1,-249,1,-208,1,-132,1,-73,1,-46,1
551,-53,1,-24,1,29,1,38,1,-41,1,2,1,-141,1,-236,1,-198,1,-130,1,-75,1,-50,1
552,-53,1,-27,1,26,1,40,1,-40,1,-1,1,-137,1,-223,1,-187,1,-128,1,-77,1,-54,1
553,-53,1,-30,1,23,1,41,1,-38,1,-4,1,-132,1,-206,1,-176,1,-125,1,-77,1,-57,1
554,-52,1,-29,1,23,1,40,1,-38,1,-3,1,-122,1,-185,1,-158,1,-115,1,-73,1,-56,1
555,-49,1,-24,1,25,1,36,1,-37,1,0,1,-109,1,-163,1,-139,1,-102,1,-67,1,-52,1
556,-42,1,-16,1,26,1,29,1,-34,1,5,1,-97,1,-144,1,-122,1,-89,1,-57,1,-45,1
557,-39,1,-14,1,25,1,26,1,-32,1,5,1,-81,1,-124,1,-104,1,-77,1,-48,1,-39,1
558,-34,1,-8,1,26,1,21,1,-30,1,9,1,-64,1,-102,1,-86,1,-63,1,-39,1,-33,1
559,-28,1,-1,1,27,1,14,1,-28,1,13,1,-46,1,-79,1,-67,1,-49,1,-29,1,-25,1
560,-23,1,1,1,24,1,11,1,-23,1,12,1,-31,1,-59,1,-51,1,-38,1,-21,1,-18,1
561,-19,1,2,1,21,1,8,1,-20,1,11,1,-19,1,-44,1,-40,1,-31,1,-16,1,-15,1
562,-14,1,2,1,16,1,6,1,-15,1,9,1,-9,1,-32,1,-31,1,-25,1,-12,1,-12,1
563,-12,1,0,1,12,1,6,1,-12,1,6,1,-3,1,-24,1,-25,1,-21,1,-11,1,-10,1
564,-11,1,-3,1,8,1,7,1,-10,1,2,1,2,1,-15,1,-20,1,-19,1,-10,1,-10,1
565,-10,1,-8,1,2,1,9,1,-6,1,-3,1,6,1,-8,1,-16,1,-16,1,-9,1,-11,1
566,-8,1,-9,1,-1,1,8,1,-4,1,-5,1,9,1,-3,1,-13,1,-16,1,-9,1,-11,1
567,-8,1,-10,1,-2,1,9,1,-3,1,-6,1,9,1,-2,1,-13,1,-15,1,-9,1,-10,1
568,-8,1,-11,1,-3,1,9,1,-3,1,-7,1,9,1,-1,1,-12,1,-15,1,-9,1,-11,1
569,-7,1,-11,1,-4,1,9,1,-2,1,-8,1,11,1,0,1,-11,1,-15,1,-8,1,-11,1
570,-6,1,-11,1,-5,1,8,1,-1,1,-8,1,12,1,2,1,-10,1,-14,1,-8,1,-11,1
571,-7,1,-12,1,-5,1,9,1,-1,1,-9,1,14,1,4,1,-8,1,-12,1,-8,1,-11,1
572,-7,1,-12,1,-5,1,9,1,-1,1,-9,1,15,1,6,1,-6,1,-11,1,-7,1,-10,1
573,-7,1,-11,1,-4,1,9,1,-2,1,-8,1,15,1,7,1,-4,1,-10,1,-5,1,-10,1
574,-6,1,-11,1,-5,1,8,1,-1,1,-8,1,15,1,8,1,-4,1,-9,1,-5,1,-10,1
575,-6,1,-10,1,-4,1,8,1,-1,1,-7,1,16,1,10,1,-3,1,-8,1,-4,1,-9,1
576,-5,1,-9,1,-4,1,7,1,-1,1,-7,1,16,1,11,1,-3,1,-8,1,-4,1,-9,1
577,-5,1,-10,1,-5,1,7,1,0,1,-8,1,15,1,11,1,-3,1,-8,1,-4,1,-8,1
578,-6,1,-10,1,-4,1,8,1,-1,1,-7,1,17,1,13,1,-2,1,-7,1,-3,1,-8,1
579,-5,1,-9,1,-4,1,7,1,-1,1,-7,1,17,1,14,1,0,1,-8,1,-2,1,-7,1
580,-5,1,-9,1,-4,1,7,1,-1,1,-7,1,18,1,15,1,0,1,-8,1,-2,1,-7,1
581,-4,1,-9,1,-5,1,6,1,0,1,-7,1,19,1,17,1,1,1,-6,1,-1,1,-7,1
582,-4,1,-8,1,-4,1,6,1,0,1,-6,1,21,1,18,1,2,1,-6,1,-1,1,-6,1
583,-2,1,-7,1,-5,1,4,1,1,1,-6,1,20,1,19,1,3,1,-5,1,-1,1,-6,1
584,-3,1,-7,1,-4,1,5,1,0,1,-6,1,20,1,20,1,3,1,-5,1,0,1,-6,1
585,-2,1,-7,1,-5,1,4,1,1,1,-6,1,20,1,20,1,4,1,-4,1,0,1,-6,1
586,-2,1,-6,1,-4,1,4,1,1,1,-5,1,20,1,21,1,4,1,-4,1,0,1,-7,1
587,-1,1,-6,1,-5,1,3,1,2,1,-6,1,20,1,20,1,4,1,-3,1,0,1,-6,1
588,-1,1,-6,1,-5,1,3,1,2,1,-6,1,20,1,21,1,5,1,-2,1,0,1,-5,1
589,-2,1,-7,1,-5,1,4,1,1,1,-6,1,21,1,22,1,6,1,-2,1,0,1,-6,1
590,-2,1,-7,1,-5,1,4,1,1,1,-6,1,22,1,24,1,8,1,-1,1,1,1,-4,1
591,-1,1,-7,1,-6,1,4,1,2,1,-7,1,23,1,26,1,10,1,0,1,2,1,-4,1
592,-1,1,-7,1,-6,1,4,1,2,1,-7,1,24,1,26,1,10,1,0,1,2,1,-4,1
593,0,1,-6,1,-6,1,3,1,3,1,-6,1,24,1,26,1,11,1,1,1,2,1,-4,1
594,0,1,-6,1,-6,1,3,1,3,1,-6,1,24,1,28,1,12,1,2,1,3,1,-4,1
595,0,1,-5,1,-5,1,2,1,2,1,-5,1,25,1,28,1,13,1,3,1,3,1,-4,1
596,1,1,-4,1,-5,1,1,1,3,1,-4,1,23,1,28,1,13,1,3,1,3,1,-4,1
597,1,1,-4,1,-5,1,1,1,3,1,-4,1,23,1,28,1,14,1,3,1,4,1,-3,1
598,2,1,-4,1,-6,1,1,1,4,1,-5,1,25,1,30,1,15,1,4,1,4,1,-3,1
599,0,1,-5,1,-5,1,2,1,2,1,-5,1,25,1,30,1,16,1,4,1,6,1,-3,1
600,1,1,-4,1,-5,1,1,1,3,1,-4,1,25,1,31,1,17,1,6,1,6,1,-3,1
601,3,1,-4,1,-7,1,0,1,5,1,-5,1,25,1,33,1,19,1,8,1,7,1,-2,1
602,3,1,-4,1,-7,1,0,1,5,1,-5,1,26,1,33,1,21,1,9,1,7,1,-2,1
603,3,1,-3,1,-6,1,0,1,4,1,-4,1,27,1,35,1,22,1,9,1,9,1,-1,1
604,3,1,-2,1,-5,1,0,1,4,1,-3,1,27,1,36,1,23,1,10,1,9,1,0,1
605,4,1,-2,1,-6,1,-1,1,5,1,-4,1,27,1,37,1,23,1,10,1,10,1,0,1
606,4,1,-2,1,-6,1,-1,1,5,1,-4,1,25,1,36,1,24,1,11,1,10,1,-1,1
607,5,1,-1,1,-6,1,-2,1,5,1,-3,1,25,1,36,1,24,1,12,1,10,1,0,1
608,6,1,-1,1,-7,1,-2,1,6,1,-4,1,25,1,37,1,26,1,13,1,12,1,1,1
609,6,1,0,1,-6,1,-3,1,6,1,-3,1,27,1,39,1,28,1,15,1,13,1,2,1
610,7,1,0,1,-7,1,-3,1,7,1,-3,1,27,1,40,1,29,1,15,1,13,1,2,1
611,7,1,1,1,-6,1,-4,1,7,1,-2,1,28,1,42,1,32,1,16,1,14,1,2,1
612,7,1,1,1,-6,1,-4,1,7,1,-2,1,29,1,43,1,33,1,17,1,14,1,3,1
613,7,1,3,1,-4,1,-5,1,6,1,0,1,29,1,44,1,34,1,19,1,15,1,3,1
614,7,1,2,1,-5,1,-4,1,6,1,-1,1,28,1,45,1,35,1,19,1,15,1,3,1
615,8,1,3,1,-5,1,-5,1,7,1,-1,1,28,1,47,1,36,1,21,1,17,1,5,1
616,9,1,5,1,-4,1,-7,1,7,1,1,1,28,1,47,1,38,1,22,1,17,1,6,1
617,10,1,5,1,-5,1,-7,1,8,1,0,1,27,1,48,1,38,1,23,1,18,1,7,1
618,10,1,5,1,-5,1,-7,1,8,1,0,1,28,1,49,1,40,1,24,1,20,1,8,1
619,10,1,6,1,-4,1,-8,1,7,1,1,1,29,1,51,1,42,1,25,1,20,1,8,1
620,11,1,7,1,-4,1,-9,1,8,1,2,1,29,1,53,1,43,1,26,1,21,1,8,1
621,11,1,7,1,-4,1,-9,1,8,1,2,1,31,1,55,1,45,1,27,1,22,1,9,1
622,12,1,7,1,-5,1,-9,1,9,1,1,1,31,1,57,1,47,1,28,1,22,1,10,1
623,13,1,8,1,-5,1,-10,1,9,1,2,1,31,1,59,1,49,1,30,1,24,1,10,1
624,13,1,9,1,-4,1,-11,1,9,1,3,1,32,1,60,1,50,1,31,1,25,1,12,1
625,15,1,11,1,-4,1,-13,1,10,1,4,1,32,1,62,1,52,1,32,1,26,1,13,1
626,15,1,12,1,-3,1,-13,1,9,1,5,1,32,1,63,1,54,1,34,1,26,1,14,1
627,16,1,12,1,-4,1,-14,1,10,1,4,1,32,1,64,1,55,1,35,1,28,1,15,1
628,17,1,13,1,-4,1,-15,1,11,1,5,1,32,1,66,1,56,1,37,1,28,1,15,1
629,17,1,14,1,-3,1,-15,1,10,1,6,1,34,1,69,1,60,1,40,1,30,1,17,1
630,18,1,13,1,-5,1,-15,1,12,1,4,1,35,1,70,1,61,1,40,1,31,1,18,1
631,18,1,13,1,-5,1,-15,1,12,1,4,1,37,1,73,1,65,1,42,1,33,1,19,1
632,20,1,15,1,-5,1,-17,1,13,1,5,1,38,1,75,1,67,1,44,1,35,1,20,1
633,21,1,17,1,-4,1,-19,1,13,1,7,1,38,1,77,1,69,1,47,1,36,1,21,1
634,21,1,17,1,-4,1,-19,1,13,1,7,1,38,1,79,1,72,1,48,1,37,1,22,1
635,23,1,20,1,-3,1,-21,1,13,1,9,1,39,1,82,1,75,1,51,1,40,1,24,1
636,24,1,20,1,-4,1,-22,1,14,1,8,1,38,1,83,1,76,1,53,1,41,1,25,1
637,24,1,20,1,-4,1,-22,1,14,1,8,1,37,1,83,1,77,1,54,1,41,1,26,1
638,25,1,21,1,-4,1,-23,1,15,1,9,1,37,1,85,1,79,1,56,1,43,1,26,1
639,26,1,22,1,-4,1,-24,1,15,1,9,1,39,1,88,1,82,1,59,1,45,1,29,1
640,27,1,23,1,-4,1,-25,1,16,1,10,1,38,1,89,1,84,1,60,1,47,1,30,1
641,28,1,24,1,-4,1,-26,1,16,1,10,1,39,1,91,1,88,1,63,1,48,1,30,1
642,29,1,26,1,-3,1,-27,1,16,1,12,1,40,1,95,1,92,1,65,1,50,1,32,1
643,29,1,28,1,-1,1,-28,1,15,1,14,1,40,1,97,1,94,1,67,1,52,1,34,1
644,31,1,31,1,0,1,-31,1,16,1,16,1,40,1,98,1,96,1,69,1,54,1,36,1
645,32,1,32,1,0,1,-32,1,16,1,16,1,41,1,100,1,98,1,72,1,56,1,37,1
646,33,1,34,1,1,1,-33,1,16,1,18,1,39,1,100,1,100,1,73,1,57,1,38,1
647,34,1,35,1,1,1,-34,1,17,1,18,1,39,1,100,1,100,1,74,1,58,1,38,1
648,35,1,36,1,1,1,-35,1,17,1,19,1,39,1,101,1,102,1,76,1,60,1,39,1
649,36,1,36,1,0,1,-36,1,18,1,18,1,39,1,103,1,104,1,78,1,61,1,40,1
650,38,1,38,1,0,1,-38,1,19,1,19,1,40,1,104,1,106,1,80,1,62,1,42,1
651,37,1,37,1,0,1,-37,1,19,1,19,1,40,1,106,1,109,1,81,1,64,1,44,1
652,38,1,39,1,1,1,-38,1,19,1,20,1,41,1,108,1,111,1,84,1,67,1,46,1
653,40,1,42,1,2,1,-41,1,19,1,22,1,41,1,108,1,113,1,86,1,69,1,48,1
654,41,1,43,1,2,1,-42,1,20,1,23,1,39,1,108,1,115,1,87,1,70,1,48,1
655,41,1,44,1,3,1,-42,1,19,1,24,1,39,1,108,1,114,1,87,1,71,1,48,1
656,43,1,46,1,3,1,-44,1,20,1,25,1,38,1,107,1,114,1,88,1,71,1,50,1
657,42,1,45,1,3,1,-43,1,20,1,24,1,36,1,107,1,113,1,88,1,72,1,50,1
658,43,1,47,1,4,1,-45,1,20,1,26,1,38,1,108,1,116,1,90,1,74,1,52,1
659,43,1,47,1,4,1,-45,1,20,1,26,1,37,1,107,1,116,1,90,1,74,1,53,1
660,42,1,48,1,6,1,-45,1,18,1,27,1,37,1,106,1,115,1,90,1,74,1,52,1
661,42,1,48,1,6,1,-45,1,18,1,27,1,37,1,106,1,115,1,91,1,74,1,52,1
662,43,1,48,1,5,1,-45,1,19,1,27,1,36,1,105,1,114,1,91,1,74,1,52,1
663,44,1,50,1,6,1,-47,1,19,1,28,1,35,1,104,1,114,1,91,1,75,1,54,1
664,44,1,50,1,6,1,-47,1,19,1,28,1,34,1,103,1,114,1,90,1,75,1,54,1
665,44,1,50,1,6,1,-47,1,19,1,28,1,34,1,102,1,113,1,91,1,76,1,54,1
666,44,1,52,1,8,1,-48,1,18,1,30,1,33,1,100,1,112,1,91,1,76,1,54,1
667,44,1,53,1,9,1,-48,1,18,1,31,1,31,1,98,1,110,1,90,1,76,1,54,1
668,43,1,53,1,10,1,-48,1,17,1,32,1,31,1,97,1,110,1,90,1,76,1,54,1
669,43,1,53,1,10,1,-48,1,17,1,32,1,31,1,96,1,109,1,90,1,77,1,55,1
670,43,1,53,1,10,1,-48,1,17,1,32,1,30,1,94,1,108,1,90,1,76,1,55,1
671,42,1,52,1,10,1,-47,1,16,1,31,1,30,1,93,1,108,1,89,1,76,1,55,1
672,42,1,52,1,10,1,-47,1,16,1,31,1,30,1,91,1,105,1,87,1,75,1,54,1
673,42,1,53,1,11,1,-47,1,16,1,32,1,28,1,88,1,104,1,85,1,74,1,53,1
674,43,1,53,1,10,1,-48,1,17,1,32,1,28,1,85,1,101,1,83,1,72,1,52,1
675,41,1,53,1,12,1,-47,1,15,1,33,1,27,1,82,1,98,1,81,1,71,1,51,1
676,39,1,52,1,13,1,-45,1,13,1,33,1,26,1,80,1,95,1,79,1,69,1,51,1
677,38,1,51,1,13,1,-44,1,13,1,32,1,25,1,76,1,92,1,77,1,67,1,49,1
678,37,1,49,1,12,1,-43,1,13,1,31,1,24,1,73,1,88,1,73,1,66,1,48,1
679,35,1,47,1,12,1,-41,1,12,1,30,1,23,1,69,1,83,1,70,1,63,1,46,1
680,33,1,46,1,13,1,-39,1,10,1,30,1,23,1,65,1,79,1,66,1,60,1,43,1
681,31,1,44,1,13,1,-37,1,9,1,29,1,23,1,62,1,76,1,63,1,57,1,41,1
682,30,1,43,1,13,1,-36,1,9,1,28,1,23,1,59,1,72,1,59,1,55,1,39,1
683,28,1,41,1,13,1,-34,1,8,1,27,1,22,1,55,1,67,1,56,1,52,1,37,1
684,26,1,38,1,12,1,-32,1,7,1,25,1,21,1,51,1,63,1,53,1,49,1,35,1
685,24,1,36,1,12,1,-30,1,6,1,24,1,20,1,48,1,59,1,50,1,46,1,33,1
686,23,1,34,1,11,1,-28,1,6,1,23,1,19,1,43,1,53,1,45,1,43,1,31,1
687,21,1,32,1,11,1,-26,1,5,1,22,1,18,1,39,1,48,1,41,1,39,1,28,1
688,18,1,28,1,10,1,-23,1,4,1,19,1,18,1,37,1,44,1,38,1,37,1,27,1
689,17,1,25,1,8,1,-21,1,5,1,17,1,18,1,33,1,40,1,35,1,34,1,23,1
690,15,1,23,1,8,1,-19,1,4,1,16,1,17,1,30,1,36,1,32,1,31,1,21,1
691,11,1,19,1,8,1,-15,1,2,1,14,1,17,1,28,1,33,1,28,1,28,1,18,1
692,11,1,18,1,7,1,-14,1,2,1,13,1,18,1,26,1,30,1,26,1,26,1,16,1
693,9,1,16,1,7,1,-12,1,1,1,12,1,17,1,23,1,25,1,22,1,21,1,12,1
694,6,1,14,1,8,1,-10,1,-1,1,11,1,16,1,20,1,21,1,17,1,18,1,10,1
695,6,1,13,1,7,1,-9,1,0,1,10,1,14,1,17,1,17,1,14,1,15,1,8,1
696,5,1,12,1,7,1,-8,1,-1,1,10,1,12,1,14,1,14,1,13,1,13,1,6,1
697,3,1,10,1,7,1,-6,1,-2,1,9,1,11,1,11,1,10,1,8,1,9,1,4,1
698,1,1,8,1,7,1,-4,1,-3,1,8,1,10,1,9,1,7,1,6,1,7,1,3,1
699,1,1,6,1,5,1,-3,1,-2,1,6,1,10,1,6,1,4,1,4,1,5,1,0,1
700,0,1,5,1,5,1,-2,1,-2,1,5,1,10,1,4,1,2,1,1,1,3,1,-1,1
701,-1,1,2,1,3,1,0,1,-2,1,2,1,12,1,4,1,0,1,0,1,2,1,-1,1
702,-2,1,1,1,3,1,0,1,-2,1,2,1,12,1,3,1,-1,1,0,1,1,1,-3,1
703,-3,1,0,1,3,1,1,1,-3,1,1,1,12,1,1,1,-3,1,-3,1,0,1,-4,1
704,-3,1,0,1,3,1,1,1,-3,1,1,1,11,1,0,1,-5,1,-5,1,-1,1,-6,1
705,-3,1,0,1,3,1,1,1,-3,1,1,1,10,1,-2,1,-8,1,-7,1,-3,1,-7,1
706,-4,1,0,1,4,1,2,1,-4,1,2,1,10,1,-3,1,-9,1,-9,1,-4,1,-7,1
707,-5,1,-2,1,3,1,3,1,-4,1,0,1,9,1,-5,1,-11,1,-10,1,-5,1,-8,1
708,-5,1,-4,1,1,1,4,1,-3,1,-2,1,9,1,-6,1,-13,1,-12,1,-7,1,-10,1
709,-5,1,-5,1,0,1,5,1,-3,1,-3,1,9,1,-7,1,-14,1,-12,1,-7,1,-10,1
710,-5,1,-6,1,-1,1,5,1,-2,1,-4,1,9,1,-7,1,-16,1,-14,1,-7,1,-11,1
711,-6,1,-8,1,-2,1,7,1,-2,1,-5,1,9,1,-7,1,-16,1,-14,1,-8,1,-11,1
712,-7,1,-8,1,-1,1,7,1,-3,1,-5,1,10,1,-7,1,-16,1,-14,1,-7,1,-11,1
713,-6,1,-8,1,-2,1,7,1,-2,1,-5,1,9,1,-9,1,-18,1,-16,1,-9,1,-13,1
714,-6,1,-7,1,-1,1,6,1,-3,1,-4,1,8,1,-10,1,-19,1,-17,1,-10,1,-13,1
715,-6,1,-7,1,-1,1,6,1,-3,1,-4,1,8,1,-10,1,-19,1,-17,1,-10,1,-13,1
716,-7,1,-6,1,1,1,6,1,-4,1,-3,1,7,1,-11,1,-18,1,-18,1,-11,1,-13,1
717,-8,1,-7,1,1,1,7,1,-5,1,-3,1,6,1,-12,1,-20,1,-19,1,-10,1,-14,1
718,-8,1,-7,1,1,1,7,1,-5,1,-3,1,6,1,-12,1,-20,1,-19,1,-10,1,-14,1
719,-8,1,-7,1,1,1,7,1,-5,1,-3,1,6,1,-11,1,-20,1,-19,1,-10,1,-13,1
720,-7,1,-7,1,0,1,7,1,-4,1,-4,1,6,1,-11,1,-19,1,-18,1,-10,1,-13,1
721,-7,1,-8,1,-1,1,7,1,-3,1,-5,1,7,1,-10,1,-19,1,-17,1,-9,1,-13,1
722,-7,1,-8,1,-1,1,7,1,-3,1,-5,1,9,1,-9,1,-17,1,-15,1,-9,1,-11,1
723,-8,1,-8,1,0,1,8,1,-4,1,-4,1,8,1,-9,1,-18,1,-15,1,-9,1,-12,1
724,-8,1,-9,1,-1,1,8,1,-4,1,-5,1,7,1,-11,1,-19,1,-17,1,-10,1,-13,1
725,-8,1,-9,1,-1,1,8,1,-4,1,-5,1,6,1,-12,1,-19,1,-17,1,-10,1,-13,1
726,-8,1,-9,1,-1,1,8,1,-4,1,-5,1,6,1,-11,1,-19,1,-16,1,-9,1,-13,1
727,-8,1,-9,1,-1,1,8,1,-4,1,-5,1,5,1,-11,1,-20,1,-16,1,-10,1,-13,1
728,-8,1,-9,1,-1,1,8,1,-4,1,-5,1,5,1,-12,1,-21,1,-17,1,-10,1,-14,1
729,-8,1,-9,1,-1,1,8,1,-4,1,-5,1,6,1,-12,1,-20,1,-17,1,-10,1,-13,1
730,-8,1,-10,1,-2,1,9,1,-3,1,-6,1,6,1,-11,1,-17,1,-17,1,-11,1,-13,1
731,-8,1,-10,1,-2,1,9,1,-3,1,-6,1,8,1,-10,1,-14,1,-16,1,-9,1,-13,1
732,-10,1,-12,1,-2,1,11,1,-4,1,-7,1,8,1,-10,1,-15,1,-16,1,-9,1,-13,1
733,-8,1,-11,1,-3,1,9,1,-3,1,-7,1,8,1,-10,1,-16,1,-16,1,-10,1,-14,1
734,-6,1,-9,1,-3,1,7,1,-2,1,-6,1,8,1,-9,1,-16,1,-16,1,-9,1,-13,1
735,-6,1,-10,1,-4,1,8,1,-1,1,-7,1,8,1,-9,1,-16,1,-16,1,-8,1,-13,1
736,-7,1,-9,1,-2,1,8,1,-3,1,-6,1,8,1,-9,1,-17,1,-16,1,-9,1,-13,1
737,-7,1,-10,1,-3,1,8,1,-2,1,-7,1,7,1,-9,1,-17,1,-16,1,-9,1,-12,1
738,-6,1,-10,1,-4,1,8,1,-1,1,-7,1,7,1,-10,1,-18,1,-17,1,-10,1,-13,1
739,-7,1,-10,1,-3,1,8,1,-2,1,-7,1,8,1,-9,1,-17,1,-16,1,-9,1,-12,1
740,-7,1,-10,1,-3,1,8,1,-2,1,-7,1,8,1,-9,1,-17,1,-16,1,-9,1,-12,1
741,-6,1,-10,1,-4,1,8,1,-1,1,-7,1,8,1,-8,1,-16,1,-16,1,-9,1,-13,1
742,-6,1,-9,1,-3,1,7,1,-2,1,-6,1,9,1,-7,1,-16,1,-15,1,-8,1,-12,1
743,-6,1,-9,1,-3,1,7,1,-2,1,-6,1,8,1,-7,1,-15,1,-15,1,-9,1,-12,1
744,-6,1,-9,1,-3,1,7,1,-2,1,-6,1,9,1,-8,1,-15,1,-15,1,-9,1,-13,1
745,-7,1,-9,1,-2,1,8,1,-3,1,-6,1,9,1,-8,1,-15,1,-14,1,-9,1,-13,1
746,-5,1,-6,1,-1,1,5,1,-2,1,-4,1,8,1,-8,1,-15,1,-14,1,-9,1,-13,1
747,-4,1,-6,1,-2,1,5,1,-1,1,-4,1,7,1,-8,1,-16,1,-14,1,-10,1,-14,1
748,-5,1,-7,1,-2,1,6,1,-2,1,-5,1,7,1,-9,1,-16,1,-14,1,-10,1,-14,1
749,-6,1,-7,1,-1,1,6,1,-3,1,-4,1,8,1,-8,1,-15,1,-15,1,-9,1,-14,1
750,-6,1,-8,1,-2,1,7,1,-2,1,-5,1,9,1,-7,1,-15,1,-14,1,-9,1,-12,1
751,-7,1,-9,1,-2,1,8,1,-3,1,-6,1,9,1,-7,1,-13,1,-14,1,-8,1,-12,1
752,-6,1,-9,1,-3,1,7,1,-2,1,-6,1,11,1,-6,1,-10,1,-13,1,-8,1,-12,1
753,-6,1,-9,1,-3,1,7,1,-2,1,-6,1,10,1,-6,1,-11,1,-14,1,-8,1,-13,1
754,-7,1,-9,1,-2,1,8,1,-3,1,-6,1,9,1,-6,1,-12,1,-13,1,-8,1,-13,1
755,-7,1,-9,1,-2,1,8,1,-3,1,-6,1,9,1,-7,1,-12,1,-14,1,-9,1,-13,1
756,-7,1,-8,1,-1,1,7,1,-3,1,-5,1,8,1,-7,1,-12,1,-14,1,-10,1,-14,1
757,-7,1,-8,1,-1,1,7,1,-3,1,-5,1,8,1,-7,1,-12,1,-14,1,-9,1,-14,1
758,-7,1,-8,1,-1,1,7,1,-3,1,-5,1,8,1,-7,1,-13,1,-14,1,-8,1,-14,1
759,-7,1,-10,1,-3,1,8,1,-2,1,-7,1,8,1,-6,1,-13,1,-14,1,-7,1,-13,1
760,-7,1,-10,1,-3,1,8,1,-2,1,-7,1,9,1,-7,1,-13,1,-14,1,-7,1,-13,1
761,-7,1,-11,1,-4,1,9,1,-2,1,-8,1,10,1,-6,1,-12,1,-14,1,-7,1,-13,1
762,-6,1,-11,1,-5,1,8,1,-1,1,-8,1,11,1,-5,1,-11,1,-12,1,-7,1,-13,1
763,-7,1,-11,1,-4,1,9,1,-2,1,-8,1,11,1,-5,1,-11,1,-12,1,-7,1,-13,1
764,-8,1,-11,1,-3,1,9,1,-3,1,-7,1,11,1,-5,1,-11,1,-12,1,-7,1,-13,1
765,-7,1,-11,1,-4,1,9,1,-2,1,-8,1,10,1,-6,1,-11,1,-12,1,-6,1,-13,1
766,-6,1,-10,1,-4,1,8,1,-1,1,-7,1,8,1,-8,1,-13,1,-13,1,-7,1,-14,1
767,-5,1,-10,1,-5,1,7,1,0,1,-8,1,8,1,-8,1,-13,1,-13,1,-8,1,-14,1
768,-5,1,-10,1,-5,1,7,1,0,1,-8,1,8,1,-8,1,-14,1,-14,1,-9,1,-16,1
769,-6,1,-11,1,-5,1,8,1,-1,1,-8,1,8,1,-8,1,-14,1,-14,1,-9,1,-16,1
770,-6,1,-12,1,-6,1,9,1,0,1,-9,1,8,1,-8,1,-14,1,-14,1,-9,1,-15,1
771,-6,1,-13,1,-7,1,9,1,0,1,-10,1,9,1,-7,1,-14,1,-14,1,-9,1,-16,1
772,-6,1,-11,1,-5,1,8,1,-1,1,-8,1,10,1,-7,1,-14,1,-14,1,-9,1,-15,1
773,-6,1,-11,1,-5,1,8,1,-1,1,-8,1,10,1,-8,1,-14,1,-14,1,-9,1,-16,1
774,-6,1,-11,1,-5,1,8,1,-1,1,-8,1,10,1,-8,1,-14,1,-14,1,-9,1,-16,1
775,-7,1,-13,1,-6,1,10,1,-1,1,-10,1,9,1,-10,1,-15,1,-16,1,-11,1,-18,1
776,-7,1,-13,1,-6,1,10,1,-1,1,-10,1,8,1,-10,1,-16,1,-15,1,-10,1,-17,1
777,-8,1,-12,1,-4,1,10,1,-2,1,-8,1,8,1,-9,1,-16,1,-15,1,-10,1,-17,1
778,-7,1,-12,1,-5,1,9,1,-1,1,-9,1,8,1,-9,1,-16,1,-15,1,-10,1,-17,1
779,-7,1,-12,1,-5,1,9,1,-1,1,-9,1,8,1,-10,1,-17,1,-17,1,-12,1,-18,1
780,-7,1,-12,1,-5,1,9,1,-1,1,-9,1,8,1,-11,1,-17,1,-17,1,-12,1,-17,1
781,-8,1,-14,1,-6,1,11,1,-1,1,-10,1,8,1,-10,1,-17,1,-17,1,-12,1,-17,1
782,-7,1,-14,1,-7,1,10,1,0,1,-11,1,9,1,-10,1,-17,1,-17,1,-12,1,-18,1
783,-7,1,-13,1,-6,1,10,1,-1,1,-10,1,8,1,-11,1,-17,1,-17,1,-12,1,-18,1
784,-7,1,-13,1,-6,1,10,1,-1,1,-10,1,7,1,-11,1,-18,1,-17,1,-12,1,-18,1
785,-8,1,-13,1,-5,1,10,1,-2,1,-9,1,7,1,-12,1,-18,1,-18,1,-12,1,-18,1
786,-7,1,-13,1,-6,1,10,1,-1,1,-10,1,5,1,-13,1,-20,1,-19,1,-13,1,-19,1
787,-7,1,-13,1,-6,1,10,1,-1,1,-10,1,5,1,-14,1,-21,1,-20,1,-14,1,-21,1
788,-8,1,-13,1,-5,1,10,1,-2,1,-9,1,5,1,-14,1,-21,1,-19,1,-14,1,-20,1
789,-8,1,-13,1,-5,1,10,1,-2,1,-9,1,5,1,-14,1,-21,1,-19,1,-14,1,-20,1
790,-8,1,-13,1,-5,1,10,1,-2,1,-9,1,5,1,-15,1,-22,1,-20,1,-14,1,-19,1
791,-9,1,-14,1,-5,1,11,1,-2,1,-10,1,6,1,-15,1,-22,1,-20,1,-14,1,-19,1
792,-8,1,-14,1,-6,1,11,1,-1,1,-10,1,6,1,-15,1,-22,1,-20,1,-14,1,-20,1
793,-9,1,-14,1,-5,1,11,1,-2,1,-10,1,6,1,-15,1,-22,1,-20,1,-13,1,-19,1
794,-9,1,-14,1,-5,1,11,1,-2,1,-10,1,5,1,-16,1,-23,1,-21,1,-15,1,-21,1
795,-8,1,-13,1,-5,1,10,1,-2,1,-9,1,5,1,-16,1,-23,1,-21,1,-14,1,-20,1
796,-8,1,-12,1,-4,1,10,1,-2,1,-8,1,4,1,-16,1,-23,1,-20,1,-14,1,-20,1
797,-8,1,-13,1,-5,1,10,1,-2,1,-9,1,3,1,-18,1,-24,1,-22,1,-15,1,-22,1
798,-9,1,-14,1,-5,1,11,1,-2,1,-10,1,3,1,-18,1,-23,1,-21,1,-15,1,-22,1
799,-8,1,-13,1,-5,1,10,1,-2,1,-9,1,3,1,-18,1,-23,1,-21,1,-14,1,-21,1
800,-8,1,-13,1,-5,1,10,1,-2,1,-9,1,3,1,-18,1,-24,1,-22,1,-15,1,-20,1
801,-9,1,-15,1,-6,1,12,1,-2,1,-11,1,3,1,-18,1,-24,1,-23,1,-15,1,-21,1
802,-9,1,-15,1,-6,1,12,1,-2,1,-11,1,4,1,-18,1,-24,1,-23,1,-15,1,-21,1
803,-9,1,-15,1,-6,1,12,1,-2,1,-11,1,4,1,-19,1,-24,1,-23,1,-15,1,-22,1
804,-8,1,-14,1,-6,1,11,1,-1,1,-10,1,4,1,-19,1,-24,1,-22,1,-15,1,-21,1
805,-9,1,-14,1,-5,1,11,1,-2,1,-10,1,4,1,-19,1,-24,1,-22,1,-15,1,-21,1
806,-8,1,-13,1,-5,1,10,1,-2,1,-9,1,3,1,-19,1,-25,1,-22,1,-15,1,-21,1
807,-9,1,-13,1,-4,1,11,1,-3,1,-9,1,3,1,-19,1,-25,1,-22,1,-15,1,-21,1
808,-9,1,-14,1,-5,1,11,1,-2,1,-10,1,2,1,-19,1,-25,1,-23,1,-15,1,-21,1
809,-9,1,-14,1,-5,1,11,1,-2,1,-10,1,2,1,-20,1,-25,1,-23,1,-15,1,-22,1
810,-8,1,-14,1,-6,1,11,1,-1,1,-10,1,2,1,-21,1,-27,1,-24,1,-16,1,-22,1
811,-9,1,-14,1,-5,1,11,1,-2,1,-10,1,3,1,-20,1,-25,1,-23,1,-15,1,-22,1
812,-9,1,-15,1,-6,1,12,1,-2,1,-11,1,3,1,-20,1,-26,1,-23,1,-17,1,-23,1
813,-9,1,-15,1,-6,1,12,1,-2,1,-11,1,3,1,-20,1,-26,1,-24,1,-17,1,-23,1
814,-9,1,-15,1,-6,1,12,1,-2,1,-11,1,3,1,-20,1,-26,1,-24,1,-16,1,-23,1
815,-9,1,-14,1,-5,1,11,1,-2,1,-10,1,3,1,-20,1,-26,1,-23,1,-16,1,-23,1
816,-9,1,-14,1,-5,1,11,1,-2,1,-10,1,1,1,-21,1,-27,1,-24,1,-16,1,-23,1
817,-9,1,-15,1,-6,1,12,1,-2,1,-11,1,0,1,-23,1,-29,1,-25,1,-18,1,-25,1
818,-10,1,-16,1,-6,1,13,1,-2,1,-11,1,0,1,-22,1,-29,1,-26,1,-18,1,-24,1
819,-10,1,-16,1,-6,1,13,1,-2,1,-11,1,1,1,-22,1,-28,1,-25,1,-17,1,-23,1
820,-11,1,-16,1,-5,1,13,1,-3,1,-11,1,1,1,-23,1,-28,1,-25,1,-17,1,-23,1
821,-10,1,-16,1,-6,1,13,1,-2,1,-11,1,1,1,-22,1,-27,1,-25,1,-17,1,-23,1
822,-10,1,-16,1,-6,1,13,1,-2,1,-11,1,2,1,-21,1,-27,1,-24,1,-16,1,-23,1
823,-10,1,-16,1,-6,1,13,1,-2,1,-11,1,2,1,-21,1,-27,1,-24,1,-16,1,-23,1
824,-9,1,-16,1,-7,1,12,1,-1,1,-12,1,2,1,-21,1,-27,1,-24,1,-16,1,-23,1
825,-9,1,-16,1,-7,1,12,1,-1,1,-12,1,2,1,-21,1,-27,1,-24,1,-16,1,-23,1
826,-10,1,-16,1,-6,1,13,1,-2,1,-11,1,1,1,-21,1,-28,1,-24,1,-16,1,-23,1
827,-9,1,-15,1,-6,1,12,1,-2,1,-11,1,0,1,-23,1,-28,1,-25,1,-17,1,-24,1
828,-9,1,-14,1,-5,1,11,1,-2,1,-10,1,0,1,-23,1,-29,1,-25,1,-18,1,-23,1
829,-9,1,-15,1,-6,1,12,1,-2,1,-11,1,0,1,-23,1,-29,1,-25,1,-18,1,-23,1
830,-9,1,-15,1,-6,1,12,1,-2,1,-11,1,0,1,-23,1,-29,1,-26,1,-17,1,-24,1
831,-10,1,-16,1,-6,1,13,1,-2,1,-11,1,0,1,-23,1,-29,1,-26,1,-17,1,-24,1
832,-10,1,-15,1,-5,1,12,1,-3,1,-10,1,0,1,-23,1,-29,1,-25,1,-17,1,-24,1
833,-9,1,-14,1,-5,1,11,1,-2,1,-10,1,1,1,-23,1,-28,1,-25,1,-17,1,-24,1
834,-10,1,-14,1,-4,1,12,1,-3,1,-9,1,1,1,-23,1,-29,1,-25,1,-17,1,-25,1
835,-11,1,-15,1,-4,1,13,1,-4,1,-10,1,1,1,-23,1,-29,1,-25,1,-18,1,-25,1
836,-10,1,-14,1,-4,1,12,1,-3,1,-9,1,0,1,-24,1,-29,1,-25,1,-18,1,-26,1
837,-9,1,-15,1,-6,1,12,1,-2,1,-11,1,0,1,-24,1,-31,1,-25,1,-18,1,-26,1
838,-9,1,-15,1,-6,1,12,1,-2,1,-11,1,-1,1,-24,1,-31,1,-26,1,-18,1,-24,1
839,-10,1,-15,1,-5,1,12,1,-3,1,-10,1,0,1,-23,1,-30,1,-25,1,-18,1,-23,1
840,-11,1,-15,1,-4,1,13,1,-4,1,-10,1,0,1,-23,1,-30,1,-25,1,-18,1,-23,1
841,-10,1,-14,1,-4,1,12,1,-3,1,-9,1,0,1,-22,1,-30,1,-26,1,-18,1,-23,1
842,-10,1,-14,1,-4,1,12,1,-3,1,-9,1,1,1,-22,1,-30,1,-26,1,-18,1,-23,1
843,-11,1,-14,1,-3,1,12,1,-4,1,-9,1,2,1,-22,1,-29,1,-25,1,-18,1,-23,1
844,-11,1,-14,1,-3,1,12,1,-4,1,-9,1,2,1,-23,1,-30,1,-26,1,-18,1,-23,1
845,-11,1,-14,1,-3,1,12,1,-4,1,-9,1,1,1,-23,1,-30,1,-26,1,-18,1,-24,1
846,-10,1,-14,1,-4,1,12,1,-3,1,-9,1,0,1,-24,1,-30,1,-26,1,-18,1,-23,1
847,-10,1,-14,1,-4,1,12,1,-3,1,-9,1,0,1,-24,1,-30,1,-26,1,-18,1,-22,1
848,-11,1,-14,1,-3,1,12,1,-4,1,-9,1,0,1,-25,1,-29,1,-26,1,-18,1,-22,1
849,-10,1,-14,1,-4,1,12,1,-3,1,-9,1,1,1,-24,1,-27,1,-26,1,-17,1,-22,1
850,-10,1,-15,1,-5,1,12,1,-3,1,-10,1,0,1,-24,1,-28,1,-26,1,-18,1,-23,1
851,-10,1,-16,1,-6,1,13,1,-2,1,-11,1,0,1,-24,1,-29,1,-26,1,-18,1,-23,1
852,-9,1,-16,1,-7,1,12,1,-1,1,-12,1,2,1,-23,1,-28,1,-25,1,-17,1,-22,1
853,-10,1,-14,1,-4,1,12,1,-3,1,-9,1,2,1,-23,1,-28,1,-25,1,-16,1,-22,1
854,-9,1,-14,1,-5,1,11,1,-2,1,-10,1,1,1,-23,1,-28,1,-24,1,-16,1,-23,1
855,-10,1,-16,1,-6,1,13,1,-2,1,-11,1,1,1,-24,1,-29,1,-25,1,-17,1,-23,1
856,-10,1,-15,1,-5,1,12,1,-3,1,-10,1,1,1,-24,1,-29,1,-25,1,-17,1,-22,1
857,-10,1,-15,1,-5,1,12,1,-3,1,-10,1,0,1,-24,1,-30,1,-25,1,-16,1,-22,1
858,-10,1,-15,1,-5,1,12,1,-3,1,-10,1,1,1,-24,1,-29,1,-25,1,-16,1,-22,1
859,-11,1,-17,1,-6,1,14,1,-3,1,-12,1,1,1,-24,1,-30,1,-25,1,-17,1,-22,1
860,-10,1,-17,1,-7,1,13,1,-2,1,-12,1,0,1,-24,1,-30,1,-25,1,-18,1,-23,1
861,-10,1,-18,1,-8,1,14,1,-1,1,-13,1,1,1,-24,1,-29,1,-25,1,-17,1,-23,1
862,-9,1,-17,1,-8,1,13,1,-1,1,-13,1,3,1,-23,1,-28,1,-25,1,-17,1,-23,1
863,-9,1,-17,1,-8,1,13,1,-1,1,-13,1,3,1,-23,1,-29,1,-25,1,-17,1,-23,1
864,-10,1,-16,1,-6,1,13,1,-2,1,-11,1,3,1,-22,1,-28,1,-25,1,-17,1,-23,1
865,-10,1,-15,1,-5,1,12,1,-3,1,-10,1,3,1,-23,1,-29,1,-25,1,-17,1,-23,1
866,-10,1,-14,1,-4,1,12,1,-3,1,-9,1,1,1,-24,1,-30,1,-26,1,-18,1,-23,1
867,-9,1,-13,1,-4,1,11,1,-3,1,-9,1,1,1,-22,1,-30,1,-25,1,-17,1,-22,1
868,-8,1,-12,1,-4,1,10,1,-2,1,-8,1,2,1,-22,1,-29,1,-25,1,-16,1,-22,1
869,-8,1,-12,1,-4,1,10,1,-2,1,-8,1,2,1,-22,1,-28,1,-25,1,-16,1,-22,1
870,-9,1,-13,1,-4,1,11,1,-3,1,-9,1,3,1,-21,1,-27,1,-24,1,-16,1,-22,1
871,-9,1,-14,1,-5,1,11,1,-2,1,-10,1,3,1,-21,1,-27,1,-23,1,-16,1,-21,1
872,-9,1,-15,1,-6,1,12,1,-2,1,-11,1,4,1,-21,1,-27,1,-23,1,-16,1,-22,1
873,-8,1,-14,1,-6,1,11,1,-1,1,-10,1,3,1,-21,1,-27,1,-23,1,-16,1,-22,1
874,-7,1,-14,1,-7,1,10,1,0,1,-11,1,2,1,-24,1,-28,1,-24,1,-17,1,-22,1
875,-9,1,-14,1,-5,1,11,1,-2,1,-10,1,2,1,-24,1,-29,1,-24,1,-17,1,-23,1
876,-7,1,-11,1,-4,1,9,1,-2,1,-8,1,1,1,-23,1,-29,1,-24,1,-16,1,-22,1
877,-7,1,-11,1,-4,1,9,1,-2,1,-8,1,0,1,-23,1,-29,1,-24,1,-16,1,-22,1
878,-7,1,-11,1,-4,1,9,1,-2,1,-8,1,1,1,-23,1,-29,1,-24,1,-16,1,-22,1
879,-7,1,-12,1,-5,1,9,1,-1,1,-9,1,2,1,-21,1,-28,1,-24,1,-16,1,-22,1
880,-4,1,-11,1,-7,1,7,1,1,1,-9,1,2,1,-21,1,-26,1,-23,1,-16,1,-21,1
881,-3,1,-10,1,-7,1,6,1,2,1,-9,1,4,1,-19,1,-24,1,-21,1,-13,1,-19,1
882,-1,1,-7,1,-6,1,4,1,2,1,-7,1,5,1,-17,1,-23,1,-20,1,-13,1,-19,1
883,0,1,-6,1,-6,1,3,1,3,1,-6,1,5,1,-16,1,-22,1,-19,1,-12,1,-17,1
884,1,1,-6,1,-7,1,2,1,4,1,-6,1,4,1,-16,1,-21,1,-18,1,-11,1,-16,1
885,3,1,-7,1,-10,1,2,1,6,1,-8,1,3,1,-16,1,-20,1,-18,1,-11,1,-17,1
886,3,1,-6,1,-9,1,1,1,6,1,-7,1,5,1,-15,1,-19,1,-17,1,-9,1,-16,1
887,4,1,-7,1,-11,1,1,1,7,1,-9,1,3,1,-16,1,-21,1,-17,1,-10,1,-16,1
888,4,1,-10,1,-14,1,3,1,9,1,-12,1,2,1,-18,1,-22,1,-19,1,-11,1,-19,1
889,4,1,-10,1,-14,1,3,1,9,1,-12,1,3,1,-17,1,-22,1,-20,1,-12,1,-19,1
890,4,1,-9,1,-13,1,2,1,8,1,-11,1,3,1,-16,1,-21,1,-19,1,-11,1,-18,1
891,4,1,-6,1,-10,1,1,1,7,1,-8,1,3,1,-16,1,-20,1,-17,1,-9,1,-16,1
892,5,1,-3,1,-8,1,-1,1,6,1,-5,1,2,1,-16,1,-20,1,-16,1,-8,1,-15,1
893,6,1,-1,1,-7,1,-2,1,6,1,-4,1,0,1,-18,1,-20,1,-15,1,-8,1,-15,1
894,7,1,0,1,-7,1,-3,1,7,1,-3,1,-1,1,-19,1,-20,1,-15,1,-8,1,-14,1
895,7,1,1,1,-6,1,-4,1,7,1,-2,1,-2,1,-21,1,-21,1,-15,1,-8,1,-15,1
896,6,1,0,1,-6,1,-3,1,6,1,-3,1,-3,1,-23,1,-23,1,-17,1,-9,1,-16,1
897,4,1,-3,1,-7,1,0,1,5,1,-5,1,-5,1,-25,1,-25,1,-19,1,-12,1,-16,1
898,5,1,-5,1,-10,1,0,1,7,1,-7,1,-5,1,-25,1,-26,1,-20,1,-12,1,-17,1
899,6,1,-5,1,-11,1,0,1,8,1,-8,1,-5,1,-24,1,-26,1,-21,1,-12,1,-17,1
900,6,1,-6,1,-12,1,0,1,9,1,-9,1,-5,1,-23,1,-26,1,-21,1,-12,1,-19,1
901,6,1,-7,1,-13,1,0,1,9,1,-10,1,-2,1,-21,1,-24,1,-20,1,-11,1,-18,1
902,5,1,-5,1,-10,1,0,1,7,1,-7,1,-1,1,-20,1,-22,1,-18,1,-9,1,-16,1
903,4,1,-5,1,-9,1,0,1,6,1,-7,1,-1,1,-20,1,-21,1,-18,1,-9,1,-16,1
904,5,1,-5,1,-10,1,0,1,7,1,-7,1,-2,1,-20,1,-22,1,-18,1,-9,1,-16,1
905,5,1,-5,1,-10,1,0,1,7,1,-7,1,-4,1,-23,1,-23,1,-19,1,-9,1,-17,1
906,7,1,-4,1,-11,1,-1,1,9,1,-7,1,-6,1,-24,1,-25,1,-20,1,-10,1,-17,1
907,5,1,-7,1,-12,1,1,1,8,1,-9,1,-5,1,-25,1,-25,1,-21,1,-11,1,-18,1
908,5,1,-9,1,-14,1,2,1,9,1,-11,1,-5,1,-25,1,-26,1,-22,1,-12,1,-19,1
909,5,1,-10,1,-15,1,2,1,10,1,-12,1,-5,1,-26,1,-27,1,-24,1,-13,1,-20,1
910,4,1,-11,1,-15,1,3,1,9,1,-13,1,-4,1,-25,1,-26,1,-23,1,-12,1,-19,1
911,3,1,-11,1,-14,1,4,1,8,1,-12,1,-3,1,-24,1,-25,1,-23,1,-12,1,-19,1
912,2,1,-12,1,-14,1,5,1,8,1,-13,1,-1,1,-22,1,-24,1,-21,1,-10,1,-18,1
913,2,1,-10,1,-12,1,4,1,7,1,-11,1,-2,1,-24,1,-24,1,-21,1,-11,1,-19,1
914,0,1,-10,1,-10,1,5,1,5,1,-10,1,-2,1,-22,1,-23,1,-20,1,-11,1,-19,1
915,-1,1,-11,1,-10,1,6,1,4,1,-11,1,-2,1,-23,1,-23,1,-20,1,-11,1,-20,1
916,0,1,-11,1,-11,1,5,1,5,1,-11,1,-3,1,-23,1,-25,1,-21,1,-12,1,-20,1
917,0,1,-11,1,-11,1,5,1,5,1,-11,1,-4,1,-25,1,-26,1,-23,1,-14,1,-22,1
918,-3,1,-13,1,-10,1,8,1,3,1,-12,1,-3,1,-24,1,-27,1,-23,1,-15,1,-21,1
919,-4,1,-12,1,-8,1,8,1,2,1,-10,1,-1,1,-21,1,-24,1,-22,1,-12,1,-20,1
920,-4,1,-12,1,-8,1,8,1,2,1,-10,1,0,1,-20,1,-24,1,-22,1,-13,1,-20,1
921,-7,1,-13,1,-6,1,10,1,-1,1,-10,1,1,1,-18,1,-24,1,-22,1,-13,1,-20,1
922,-8,1,-15,1,-7,1,11,1,-1,1,-11,1,2,1,-19,1,-25,1,-24,1,-14,1,-22,1
923,-11,1,-16,1,-5,1,13,1,-3,1,-11,1,1,1,-22,1,-26,1,-26,1,-16,1,-24,1
924,-12,1,-18,1,-6,1,15,1,-3,1,-12,1,1,1,-24,1,-28,1,-27,1,-18,1,-26,1
925,-11,1,-17,1,-6,1,14,1,-3,1,-12,1,0,1,-24,1,-29,1,-28,1,-18,1,-26,1
926,-11,1,-16,1,-5,1,13,1,-3,1,-11,1,-1,1,-26,1,-31,1,-29,1,-18,1,-27,1
927,-13,1,-17,1,-4,1,15,1,-5,1,-11,1,-2,1,-27,1,-31,1,-30,1,-19,1,-28,1
928,-14,1,-19,1,-5,1,16,1,-5,1,-12,1,-3,1,-28,1,-34,1,-31,1,-20,1,-29,1
929,-14,1,-19,1,-5,1,16,1,-5,1,-12,1,-2,1,-27,1,-34,1,-31,1,-21,1,-29,1
930,-14,1,-19,1,-5,1,16,1,-5,1,-12,1,-2,1,-27,1,-33,1,-31,1,-20,1,-29,1
931,-13,1,-19,1,-6,1,16,1,-4,1,-13,1,-1,1,-25,1,-32,1,-30,1,-19,1,-28,1
932,-13,1,-19,1,-6,1,16,1,-4,1,-13,1,-1,1,-25,1,-31,1,-30,1,-19,1,-28,1
933,-13,1,-19,1,-6,1,16,1,-4,1,-13,1,-1,1,-25,1,-32,1,-30,1,-20,1,-29,1
934,-14,1,-19,1,-5,1,16,1,-5,1,-12,1,-1,1,-25,1,-31,1,-29,1,-20,1,-29,1
935,-14,1,-19,1,-5,1,16,1,-5,1,-12,1,0,1,-25,1,-31,1,-29,1,-20,1,-29,1
936,-14,1,-18,1,-4,1,16,1,-5,1,-11,1,0,1,-26,1,-32,1,-29,1,-21,1,-28,1
937,-14,1,-18,1,-4,1,16,1,-5,1,-11,1,-1,1,-27,1,-33,1,-30,1,-21,1,-28,1
938,-15,1,-18,1,-3,1,16,1,-6,1,-11,1,-1,1,-26,1,-32,1,-29,1,-19,1,-28,1
939,-16,1,-19,1,-3,1,17,1,-7,1,-11,1,0,1,-25,1,-31,1,-28,1,-19,1,-28,1
940,-16,1,-19,1,-3,1,17,1,-7,1,-11,1,0,1,-25,1,-32,1,-29,1,-20,1,-28,1
941,-16,1,-20,1,-4,1,18,1,-6,1,-12,1,1,1,-25,1,-30,1,-28,1,-20,1,-28,1
942,-15,1,-20,1,-5,1,17,1,-5,1,-13,1,3,1,-23,1,-29,1,-28,1,-19,1,-27,1
943,-16,1,-20,1,-4,1,18,1,-6,1,-12,1,2,1,-24,1,-29,1,-28,1,-20,1,-28,1
944,-16,1,-20,1,-4,1,18,1,-6,1,-12,1,2,1,-24,1,-30,1,-28,1,-20,1,-28,1
945,-15,1,-20,1,-5,1,17,1,-5,1,-13,1,1,1,-24,1,-29,1,-28,1,-19,1,-27,1
946,-16,1,-20,1,-4,1,18,1,-6,1,-12,1,1,1,-24,1,-30,1,-28,1,-19,1,-27,1
947,-17,1,-19,1,-2,1,18,1,-8,1,-11,1,1,1,-24,1,-29,1,-28,1,-19,1,-28,1
948,-17,1,-19,1,-2,1,18,1,-8,1,-11,1,4,1,-20,1,-28,1,-28,1,-20,1,-29,1
949,-20,1,-18,1,2,1,19,1,-11,1,-8,1,13,1,-12,1,-24,1,-25,1,-19,1,-28,1
950,-23,1,-17,1,6,1,20,1,-15,1,-6,1,21,1,-2,1,-19,1,-24,1,-19,1,-29,1
951,-23,1,-15,1,8,1,19,1,-16,1,-4,1,29,1,9,1,-13,1,-21,1,-17,1,-27,1
952,-19,1,-13,1,6,1,16,1,-13,1,-4,1,34,1,19,1,-5,1,-15,1,-12,1,-23,1
953,-15,1,-10,1,5,1,12,1,-10,1,-3,1,37,1,28,1,3,1,-9,1,-8,1,-19,1
954,-8,1,-9,1,-1,1,8,1,-4,1,-5,1,41,1,45,1,17,1,0,1,-3,1,-15,1
955,2,1,-7,1,-9,1,2,1,5,1,-8,1,52,1,71,1,39,1,14,1,7,1,-9,1
956,11,1,0,1,-11,1,-5,1,11,1,-5,1,63,1,93,1,61,1,31,1,19,1,0,1
957,23,1,12,1,-11,1,-17,1,17,1,1,1,70,1,112,1,93,1,59,1,39,1,16,1
958,37,1,26,1,-11,1,-31,1,24,1,8,1,71,1,127,1,128,1,91,1,65,1,36,1
959,53,1,42,1,-11,1,-47,1,32,1,16,1,61,1,126,1,160,1,125,1,93,1,59,1
960,71,1,59,1,-12,1,-65,1,42,1,24,1,38,1,111,1,187,1,159,1,122,1,82,1
961,86,1,82,1,-4,1,-84,1,45,1,39,1,6,1,87,1,211,1,193,1,152,1,108,1
962,104,1,110,1,6,1,-107,1,49,1,58,1,-43,1,40,1,216,1,218,1,181,1,136,1
963,118,1,135,1,17,1,-126,1,51,1,76,1,-94,1,-25,1,206,1,234,1,204,1,160,1
964,126,1,147,1,21,1,-136,1,53,1,84,1,-137,1,-79,1,195,1,243,1,217,1,172,1
965,123,1,148,1,25,1,-135,1,49,1,87,1,-159,1,-118,1,189,1,249,1,222,1,177,1
966,107,1,129,1,22,1,-118,1,43,1,76,1,-159,1,-142,1,181,1,239,1,207,1,162,1
967,88,1,102,1,14,1,-95,1,37,1,58,1,-152,1,-157,1,162,1,211,1,178,1,135,1
968,69,1,85,1,16,1,-77,1,27,1,51,1,-156,1,-178,1,125,1,169,1,146,1,111,1
969,48,1,71,1,23,1,-59,1,13,1,47,1,-159,1,-201,1,79,1,119,1,109,1,84,1
970,29,1,53,1,24,1,-41,1,3,1,39,1,-158,1,-220,1,26,1,69,1,70,1,55,1
971,7,1,30,1,23,1,-18,1,-8,1,27,1,-158,1,-243,1,-46,1,8,1,27,1,24,1
972,-14,1,12,1,26,1,1,1,-20,1,19,1,-160,1,-275,1,-133,1,-58,1,-15,1,-5,1
973,-28,1,0,1,28,1,14,1,-28,1,14,1,-168,1,-295,1,-198,1,-109,1,-48,1,-28,1
974,-39,1,-7,1,32,1,23,1,-36,1,12,1,-171,1,-298,1,-226,1,-133,1,-65,1,-42,1
975,-47,1,-13,1,34,1,30,1,-41,1,10,1,-160,1,-280,1,-219,1,-134,1,-70,1,-48,1
976,-53,1,-19,1,34,1,36,1,-44,1,7,1,-150,1,-261,1,-206,1,-131,1,-73,1,-53,1
977,-57,1,-22,1,35,1,39,1,-46,1,6,1,-145,1,-248,1,-196,1,-129,1,-74,1,-55,1
978,-58,1,-27,1,31,1,42,1,-45,1,2,1,-144,1,-234,1,-186,1,-126,1,-76,1,-60,1
979,-59,1,-31,1,28,1,45,1,-44,1,-2,1,-136,1,-215,1,-171,1,-122,1,-76,1,-63,1
980,-57,1,-31,1,26,1,44,1,-42,1,-3,1,-125,1,-193,1,-154,1,-112,1,-73,1,-61,1
981,-54,1,-27,1,27,1,40,1,-41,1,0,1,-112,1,-170,1,-136,1,-101,1,-66,1,-57,1
982,-48,1,-21,1,27,1,34,1,-38,1,3,1,-98,1,-149,1,-118,1,-88,1,-57,1,-51,1
983,-44,1,-18,1,26,1,31,1,-35,1,4,1,-81,1,-128,1,-100,1,-76,1,-48,1,-45,1
984,-38,1,-12,1,26,1,25,1,-32,1,7,1,-64,1,-106,1,-82,1,-63,1,-39,1,-38,1
985,-31,1,-5,1,26,1,18,1,-29,1,10,1,-46,1,-81,1,-63,1,-48,1,-29,1,-29,1
986,-24,1,0,1,24,1,12,1,-24,1,12,1,-30,1,-60,1,-47,1,-37,1,-20,1,-22,1
987,-21,1,1,1,22,1,10,1,-21,1,11,1,-22,1,-49,1,-39,1,-30,1,-18,1,-22,1
988,-19,1,0,1,19,1,9,1,-19,1,9,1,-14,1,-38,1,-31,1,-26,1,-15,1,-21,1
989,-16,1,-1,1,15,1,8,1,-16,1,7,1,-7,1,-29,1,-25,1,-23,1,-14,1,-21,1
990,-13,1,-4,1,9,1,8,1,-11,1,2,1,0,1,-19,1,-19,1,-21,1,-14,1,-21,1
991,-12,1,-8,1,4,1,10,1,-8,1,-2,1,6,1,-11,1,-13,1,-19,1,-12,1,-19,1
992,-9,1,-8,1,1,1,8,1,-5,1,-4,1,10,1,-6,1,-8,1,-16,1,-9,1,-18,1
993,-10,1,-9,1,1,1,9,1,-6,1,-4,1,10,1,-5,1,-8,1,-15,1,-9,1,-18,1
994,-11,1,-10,1,1,1,10,1,-6,1,-5,1,10,1,-4,1,-8,1,-14,1,-9,1,-17,1
995,-10,1,-9,1,1,1,9,1,-6,1,-4,1,11,1,-2,1,-7,1,-14,1,-9,1,-17,1
996,-10,1,-9,1,1,1,9,1,-6,1,-4,1,11,1,-1,1,-7,1,-14,1,-8,1,-16,1
997,-10,1,-9,1,1,1,9,1,-6,1,-4,1,11,1,0,1,-6,1,-13,1,-8,1,-16,1
998,-10,1,-9,1,1,1,9,1,-6,1,-4,1,10,1,1,1,-5,1,-13,1,-8,1,-16,1
999,-10,1,-11,1,-1,1,10,1,-5,1,-6,1,11,1,2,1,-5,1,-14,1,-8,1,-16,1
1000,-8,1,-10,1,-2,1,9,1,-3,1,-6,1,13,1,4,1,-3,1,-12,1,-6,1,-16,1
1001,-8,1,-10,1,-2,1,9,1,-3,1,-6,1,15,1,6,1,-1,1,-10,1,-6,1,-15,1
1002,-9,1,-11,1,-2,1,10,1,-4,1,-7,1,16,1,8,1,0,1,-9,1,-5,1,-15,1
1003,-8,1,-9,1,-1,1,8,1,-4,1,-5,1,16,1,10,1,1,1,-9,1,-4,1,-15,1
1004,-6,1,-9,1,-3,1,7,1,-2,1,-6,1,14,1,10,1,1,1,-8,1,-4,1,-14,1
1005,-6,1,-8,1,-2,1,7,1,-2,1,-5,1,14,1,12,1,2,1,-7,1,-4,1,-14,1
1006,-5,1,-8,1,-3,1,6,1,-1,1,-6,1,16,1,12,1,3,1,-7,1,-4,1,-13,1
1007,-5,1,-8,1,-3,1,6,1,-1,1,-6,1,15,1,14,1,2,1,-7,1,-4,1,-14,1
1008,-5,1,-8,1,-3,1,6,1,-1,1,-6,1,15,1,16,1,3,1,-7,1,-3,1,-14,1
1009,-4,1,-7,1,-3,1,5,1,-1,1,-5,1,17,1,16,1,3,1,-6,1,-2,1,-13,1
1010,-4,1,-7,1,-3,1,5,1,-1,1,-5,1,19,1,19,1,5,1,-5,1,-1,1,-12,1
1011,-6,1,-8,1,-2,1,7,1,-2,1,-5,1,20,1,19,1,6,1,-4,1,-1,1,-12,1
1012,-5,1,-8,1,-3,1,6,1,-1,1,-6,1,22,1,21,1,8,1,-2,1,0,1,-12,1
1013,-4,1,-7,1,-3,1,5,1,-1,1,-5,1,21,1,21,1,9,1,-2,1,0,1,-12,1
1014,-4,1,-7,1,-3,1,5,1,-1,1,-5,1,22,1,22,1,9,1,-2,1,-1,1,-12,1
1015,-4,1,-8,1,-4,1,6,1,0,1,-6,1,21,1,22,1,9,1,-3,1,-1,1,-12,1
1016,-2,1,-6,1,-4,1,4,1,1,1,-5,1,21,1,21,1,9,1,-3,1,-1,1,-11,1
1017,-2,1,-6,1,-4,1,4,1,1,1,-5,1,19,1,22,1,9,1,-3,1,-1,1,-11,1
1018,-1,1,-5,1,-4,1,3,1,1,1,-5,1,19,1,23,1,10,1,-1,1,0,1,-10,1
1019,-1,1,-5,1,-4,1,3,1,1,1,-5,1,20,1,24,1,11,1,-1,1,1,1,-9,1
1020,0,1,-5,1,-5,1,2,1,2,1,-5,1,21,1,25,1,12,1,0,1,2,1,-9,1
1021,0,1,-4,1,-4,1,2,1,2,1,-4,1,22,1,27,1,14,1,1,1,4,1,-8,1
1022,-1,1,-4,1,-3,1,2,1,1,1,-4,1,22,1,28,1,16,1,4,1,5,1,-7,1
1023,0,1,-3,1,-3,1,1,1,1,1,-3,1,20,1,28,1,15,1,3,1,4,1,-8,1
1024,0,1,-2,1,-2,1,1,1,1,1,-2,1,20,1,28,1,15,1,3,1,4,1,-7,1
1025,0,1,-2,1,-2,1,1,1,1,1,-2,1,21,1,29,1,17,1,5,1,4,1,-7,1
1026,0,1,-2,1,-2,1,1,1,1,1,-2,1,20,1,29,1,17,1,5,1,4,1,-6,1
1027,2,1,-2,1,-4,1,0,1,3,1,-3,1,20,1,30,1,18,1,6,1,4,1,-6,1
1028,0,1,-2,1,-2,1,1,1,1,1,-2,1,20,1,30,1,19,1,7,1,5,1,-6,1
1029,0,1,-1,1,-1,1,0,1,0,1,-1,1,20,1,32,1,20,1,7,1,5,1,-6,1
1030,2,1,-1,1,-3,1,0,1,2,1,-2,1,22,1,34,1,22,1,8,1,7,1,-6,1
1031,2,1,-1,1,-3,1,0,1,2,1,-2,1,23,1,35,1,24,1,9,1,7,1,-5,1
1032,1,1,-1,1,-2,1,0,1,1,1,-1,1,24,1,37,1,26,1,10,1,8,1,-4,1
1033,3,1,1,1,-2,1,-2,1,3,1,0,1,24,1,38,1,27,1,10,1,8,1,-4,1
1034,3,1,1,1,-2,1,-2,1,3,1,0,1,24,1,38,1,27,1,11,1,9,1,-4,1
1035,4,1,1,1,-3,1,-2,1,4,1,-1,1,24,1,38,1,29,1,11,1,10,1,-3,1
1036,5,1,2,1,-3,1,-3,1,4,1,0,1,23,1,39,1,30,1,12,1,11,1,-2,1
1037,5,1,2,1,-3,1,-3,1,4,1,0,1,23,1,39,1,30,1,13,1,12,1,-2,1
1038,6,1,3,1,-3,1,-4,1,5,1,0,1,23,1,40,1,32,1,14,1,13,1,-1,1
1039,5,1,3,1,-2,1,-4,1,4,1,1,1,23,1,42,1,34,1,15,1,13,1,0,1
1040,6,1,3,1,-3,1,-4,1,5,1,0,1,22,1,43,1,34,1,15,1,14,1,0,1
1041,5,1,3,1,-2,1,-4,1,4,1,1,1,24,1,45,1,36,1,17,1,15,1,0,1
1042,6,1,3,1,-3,1,-4,1,5,1,0,1,26,1,46,1,39,1,19,1,16,1,1,1
1043,8,1,5,1,-3,1,-6,1,6,1,1,1,26,1,48,1,41,1,20,1,18,1,2,1
1044,9,1,6,1,-3,1,-7,1,6,1,2,1,26,1,49,1,42,1,21,1,18,1,3,1
1045,10,1,8,1,-2,1,-9,1,6,1,3,1,26,1,51,1,43,1,22,1,19,1,4,1
1046,9,1,9,1,0,1,-9,1,5,1,5,1,26,1,52,1,43,1,22,1,19,1,4,1
1047,9,1,8,1,-1,1,-8,1,5,1,4,1,26,1,52,1,44,1,23,1,19,1,5,1
1048,11,1,9,1,-2,1,-10,1,7,1,4,1,27,1,55,1,47,1,25,1,21,1,6,1
1049,11,1,8,1,-3,1,-9,1,7,1,3,1,28,1,57,1,50,1,27,1,23,1,7,1
1050,12,1,8,1,-4,1,-10,1,8,1,2,1,29,1,59,1,51,1,29,1,24,1,8,1
1051,14,1,8,1,-6,1,-11,1,10,1,1,1,31,1,62,1,53,1,31,1,25,1,10,1
1052,15,1,9,1,-6,1,-12,1,11,1,2,1,32,1,64,1,54,1,31,1,26,1,10,1
1053,15,1,10,1,-5,1,-12,1,10,1,3,1,31,1,65,1,56,1,33,1,27,1,11,1
1054,17,1,12,1,-5,1,-14,1,11,1,4,1,31,1,67,1,58,1,35,1,28,1,12,1
1055,17,1,12,1,-5,1,-14,1,11,1,4,1,31,1,68,1,60,1,36,1,29,1,13,1
1056,18,1,15,1,-3,1,-16,1,11,1,6,1,31,1,70,1,62,1,37,1,30,1,14,1
1057,18,1,15,1,-3,1,-16,1,11,1,6,1,31,1,71,1,64,1,39,1,31,1,15,1
1058,19,1,14,1,-5,1,-16,1,12,1,5,1,31,1,73,1,66,1,40,1,33,1,17,1
1059,19,1,14,1,-5,1,-16,1,12,1,5,1,32,1,75,1,68,1,43,1,35,1,17,1
1060,20,1,15,1,-5,1,-17,1,13,1,5,1,33,1,77,1,71,1,45,1,36,1,19,1
1061,20,1,15,1,-5,1,-17,1,13,1,5,1,33,1,78,1,73,1,46,1,37,1,20,1
1062,22,1,16,1,-6,1,-19,1,14,1,5,1,33,1,81,1,76,1,48,1,38,1,21,1
1063,24,1,19,1,-5,1,-21,1,15,1,7,1,34,1,84,1,80,1,50,1,41,1,23,1
1064,26,1,21,1,-5,1,-23,1,16,1,8,1,35,1,86,1,82,1,52,1,42,1,24,1
1065,26,1,23,1,-3,1,-24,1,15,1,10,1,35,1,88,1,84,1,54,1,43,1,25,1
1066,27,1,24,1,-3,1,-25,1,15,1,11,1,35,1,90,1,87,1,56,1,45,1,28,1
1067,28,1,26,1,-2,1,-27,1,15,1,12,1,34,1,91,1,89,1,58,1,47,1,29,1
1068,30,1,27,1,-3,1,-28,1,17,1,12,1,34,1,92,1,90,1,60,1,49,1,30,1
1069,30,1,27,1,-3,1,-28,1,17,1,12,1,35,1,94,1,93,1,62,1,51,1,30,1
1070,31,1,29,1,-2,1,-30,1,17,1,14,1,36,1,96,1,96,1,65,1,53,1,32,1
1071,34,1,31,1,-3,1,-32,1,19,1,14,1,37,1,98,1,99,1,67,1,55,1,34,1
1072,34,1,31,1,-3,1,-32,1,19,1,14,1,37,1,101,1,103,1,70,1,57,1,36,1
1073,35,1,33,1,-2,1,-34,1,19,1,16,1,37,1,102,1,105,1,72,1,58,1,38,1
1074,36,1,35,1,-1,1,-35,1,19,1,17,1,37,1,103,1,105,1,74,1,59,1,38,1
1075,38,1,36,1,-2,1,-37,1,20,1,17,1,35,1,104,1,107,1,75,1,61,1,39,1
1076,39,1,38,1,-1,1,-38,1,20,1,19,1,34,1,103,1,109,1,75,1,61,1,39,1
1077,39,1,38,1,-1,1,-38,1,20,1,19,1,34,1,103,1,109,1,77,1,62,1,41,1
1078,39,1,38,1,-1,1,-38,1,20,1,19,1,34,1,103,1,110,1,78,1,63,1,41,1
1079,39,1,39,1,0,1,-39,1,20,1,20,1,34,1,105,1,112,1,80,1,66,1,44,1
1080,40,1,41,1,1,1,-40,1,20,1,21,1,33,1,105,1,113,1,81,1,66,1,44,1
1081,41,1,40,1,-1,1,-40,1,21,1,20,1,32,1,104,1,114,1,81,1,67,1,45,1
1082,42,1,43,1,1,1,-42,1,21,1,22,1,35,1,106,1,116,1,83,1,68,1,47,1
1083,43,1,45,1,2,1,-44,1,21,1,24,1,35,1,107,1,118,1,84,1,70,1,48,1
1084,43,1,46,1,3,1,-44,1,20,1,25,1,34,1,106,1,116,1,83,1,70,1,48,1
1085,44,1,48,1,4,1,-46,1,20,1,26,1,34,1,106,1,117,1,84,1,72,1,49,1
1086,44,1,49,1,5,1,-46,1,20,1,27,1,33,1,105,1,117,1,86,1,73,1,50,1
1087,44,1,49,1,5,1,-46,1,20,1,27,1,31,1,104,1,117,1,86,1,72,1,50,1
1088,45,1,48,1,3,1,-46,1,21,1,26,1,30,1,103,1,116,1,85,1,72,1,50,1
1089,45,1,49,1,4,1,-47,1,21,1,27,1,30,1,102,1,116,1,85,1,73,1,51,1
1090,45,1,50,1,5,1,-47,1,20,1,28,1,29,1,101,1,115,1,85,1,72,1,50,1
1091,45,1,51,1,6,1,-48,1,20,1,29,1,30,1,101,1,116,1,85,1,73,1,51,1
1092,44,1,52,1,8,1,-48,1,18,1,30,1,31,1,101,1,117,1,87,1,75,1,53,1
1093,43,1,51,1,8,1,-47,1,18,1,30,1,30,1,99,1,116,1,86,1,74,1,53,1
1094,45,1,51,1,6,1,-48,1,20,1,29,1,31,1,98,1,115,1,86,1,75,1,54,1
1095,44,1,51,1,7,1,-47,1,19,1,29,1,31,1,97,1,115,1,86,1,75,1,54,1
1096,44,1,51,1,7,1,-47,1,19,1,29,1,29,1,95,1,114,1,86,1,75,1,54,1
1097,44,1,51,1,7,1,-47,1,19,1,29,1,27,1,91,1,110,1,84,1,74,1,53,1
1098,42,1,49,1,7,1,-45,1,18,1,28,1,26,1,87,1,107,1,82,1,73,1,53,1
1099,43,1,49,1,6,1,-46,1,19,1,28,1,24,1,85,1,104,1,81,1,72,1,53,1
1100,43,1,49,1,6,1,-46,1,19,1,28,1,24,1,83,1,103,1,80,1,72,1,53,1
1101,42,1,50,1,8,1,-46,1,17,1,29,1,25,1,81,1,101,1,79,1,70,1,51,1
1102,41,1,50,1,9,1,-45,1,16,1,30,1,24,1,78,1,98,1,75,1,67,1,49,1
1103,38,1,48,1,10,1,-43,1,14,1,29,1,24,1,75,1,96,1,74,1,67,1,48,1
1104,38,1,48,1,10,1,-43,1,14,1,29,1,23,1,72,1,92,1,71,1,65,1,46,1
1105,36,1,46,1,10,1,-41,1,13,1,28,1,22,1,68,1,89,1,69,1,62,1,46,1
1106,34,1,46,1,12,1,-40,1,11,1,29,1,20,1,64,1,84,1,66,1,60,1,44,1
1107,34,1,45,1,11,1,-39,1,12,1,28,1,19,1,60,1,80,1,62,1,57,1,41,1
1108,31,1,41,1,10,1,-36,1,11,1,26,1,19,1,56,1,75,1,58,1,54,1,38,1
1109,29,1,39,1,10,1,-34,1,10,1,25,1,19,1,54,1,72,1,55,1,52,1,37,1
1110,27,1,37,1,10,1,-32,1,9,1,24,1,19,1,50,1,68,1,51,1,48,1,34,1
1111,23,1,33,1,10,1,-28,1,7,1,22,1,19,1,46,1,63,1,46,1,45,1,31,1
1112,22,1,31,1,9,1,-26,1,7,1,20,1,19,1,43,1,59,1,44,1,42,1,29,1
1113,20,1,30,1,10,1,-25,1,5,1,20,1,18,1,41,1,56,1,42,1,40,1,27,1
1114,19,1,28,1,9,1,-23,1,5,1,19,1,17,1,37,1,50,1,38,1,37,1,25,1
1115,17,1,25,1,8,1,-21,1,5,1,17,1,16,1,33,1,45,1,34,1,34,1,23,1
1116,16,1,23,1,7,1,-19,1,5,1,15,1,14,1,30,1,40,1,30,1,31,1,20,1
1117,13,1,21,1,8,1,-17,1,3,1,15,1,11,1,27,1,35,1,25,1,26,1,17,1
1118,11,1,19,1,8,1,-15,1,2,1,14,1,11,1,23,1,31,1,21,1,23,1,14,1
1119,9,1,18,1,9,1,-13,1,0,1,14,1,11,1,20,1,28,1,18,1,21,1,11,1
1120,8,1,17,1,9,1,-12,1,0,1,13,1,11,1,19,1,25,1,15,1,18,1,9,1
1121,6,1,14,1,8,1,-10,1,-1,1,11,1,11,1,16,1,22,1,12,1,15,1,6,1
1122,4,1,12,1,8,1,-8,1,-2,1,10,1,12,1,14,1,19,1,9,1,13,1,4,1
1123,4,1,11,1,7,1,-7,1,-1,1,9,1,11,1,12,1,16,1,7,1,11,1,2,1
1124,4,1,10,1,6,1,-7,1,-1,1,8,1,10,1,9,1,13,1,4,1,9,1,1,1
1125,3,1,8,1,5,1,-5,1,-1,1,7,1,10,1,6,1,10,1,2,1,7,1,0,1
1126,1,1,6,1,5,1,-3,1,-2,1,6,1,8,1,4,1,6,1,-1,1,4,1,-1,1
1127,0,1,3,1,3,1,-1,1,-1,1,3,1,7,1,2,1,3,1,-3,1,3,1,-3,1
1128,-1,1,3,1,4,1,-1,1,-2,1,3,1,7,1,1,1,2,1,-4,1,3,1,-3,1
1129,-1,1,1,1,2,1,0,1,-1,1,1,1,6,1,0,1,0,1,-6,1,2,1,-4,1
1130,-3,1,0,1,3,1,1,1,-3,1,1,1,7,1,-2,1,-2,1,-8,1,0,1,-6,1
1131,-3,1,-1,1,2,1,2,1,-3,1,0,1,6,1,-3,1,-3,1,-10,1,-1,1,-7,1
1132,-3,1,-3,1,0,1,3,1,-2,1,-2,1,6,1,-4,1,-4,1,-12,1,-3,1,-8,1
1133,-4,1,-4,1,0,1,4,1,-2,1,-2,1,8,1,-4,1,-6,1,-14,1,-4,1,-10,1
1134,-5,1,-5,1,0,1,5,1,-3,1,-3,1,8,1,-6,1,-7,1,-15,1,-6,1,-11,1
1135,-4,1,-5,1,-1,1,4,1,-2,1,-3,1,7,1,-8,1,-9,1,-15,1,-6,1,-11,1
1136,-4,1,-5,1,-1,1,4,1,-2,1,-3,1,7,1,-8,1,-10,1,-15,1,-6,1,-11,1
1137,-4,1,-5,1,-1,1,4,1,-2,1,-3,1,5,1,-10,1,-12,1,-17,1,-8,1,-12,1
1138,-5,1,-7,1,-2,1,6,1,-2,1,-5,1,5,1,-10,1,-12,1,-17,1,-8,1,-12,1
1139,-6,1,-8,1,-2,1,7,1,-2,1,-5,1,5,1,-10,1,-13,1,-18,1,-8,1,-12,1
1140,-6,1,-8,1,-2,1,7,1,-2,1,-5,1,5,1,-10,1,-13,1,-18,1,-8,1,-13,1
1141,-7,1,-9,1,-2,1,8,1,-3,1,-6,1,5,1,-11,1,-13,1,-18,1,-8,1,-13,1
1142,-8,1,-11,1,-3,1,9,1,-3,1,-7,1,6,1,-10,1,-13,1,-19,1,-9,1,-14,1
1143,-7,1,-10,1,-3,1,8,1,-2,1,-7,1,6,1,-10,1,-13,1,-19,1,-10,1,-14,1
1144,-7,1,-9,1,-2,1,8,1,-3,1,-6,1,6,1,-11,1,-14,1,-19,1,-10,1,-13,1
1145,-7,1,-9,1,-2,1,8,1,-3,1,-6,1,5,1,-11,1,-13,1,-20,1,-10,1,-13,1
1146,-6,1,-8,1,-2,1,7,1,-2,1,-5,1,5,1,-12,1,-14,1,-20,1,-10,1,-14,1
1147,-6,1,-8,1,-2,1,7,1,-2,1,-5,1,3,1,-13,1,-15,1,-21,1,-10,1,-14,1
1148,-6,1,-8,1,-2,1,7,1,-2,1,-5,1,2,1,-14,1,-15,1,-21,1,-10,1,-14,1
1149,-6,1,-8,1,-2,1,7,1,-2,1,-5,1,3,1,-13,1,-15,1,-20,1,-9,1,-13,1
1150,-6,1,-7,1,-1,1,6,1,-3,1,-4,1,4,1,-11,1,-14,1,-20,1,-7,1,-13,1
1151,-6,1,-8,1,-2,1,7,1,-2,1,-5,1,5,1,-11,1,-13,1,-20,1,-8,1,-13,1
1152,-7,1,-8,1,-1,1,7,1,-3,1,-5,1,6,1,-10,1,-13,1,-20,1,-9,1,-14,1
1153,-6,1,-6,1,0,1,6,1,-3,1,-3,1,6,1,-10,1,-13,1,-20,1,-9,1,-15,1
1154,-6,1,-6,1,0,1,6,1,-3,1,-3,1,8,1,-12,1,-14,1,-20,1,-10,1,-15,1
1155,-7,1,-7,1,0,1,7,1,-4,1,-4,1,8,1,-12,1,-14,1,-21,1,-10,1,-14,1
1156,-7,1,-7,1,0,1,7,1,-4,1,-4,1,7,1,-11,1,-13,1,-20,1,-8,1,-14,1
1157,-7,1,-7,1,0,1,7,1,-4,1,-4,1,6,1,-11,1,-13,1,-18,1,-9,1,-13,1
1158,-7,1,-7,1,0,1,7,1,-4,1,-4,1,6,1,-11,1,-14,1,-18,1,-8,1,-13,1
1159,-7,1,-10,1,-3,1,8,1,-2,1,-7,1,6,1,-11,1,-13,1,-19,1,-8,1,-12,1
1160,-6,1,-9,1,-3,1,7,1,-2,1,-6,1,6,1,-10,1,-12,1,-18,1,-8,1,-12,1
1161,-6,1,-9,1,-3,1,7,1,-2,1,-6,1,7,1,-10,1,-12,1,-18,1,-8,1,-12,1
1162,-6,1,-10,1,-4,1,8,1,-1,1,-7,1,7,1,-9,1,-12,1,-18,1,-8,1,-12,1
1163,-5,1,-8,1,-3,1,6,1,-1,1,-6,1,7,1,-9,1,-13,1,-18,1,-9,1,-12,1
1164,-5,1,-7,1,-2,1,6,1,-2,1,-5,1,7,1,-8,1,-13,1,-18,1,-9,1,-13,1
1165,-4,1,-7,1,-3,1,5,1,-1,1,-5,1,8,1,-8,1,-12,1,-18,1,-9,1,-12,1
1166,-4,1,-6,1,-2,1,5,1,-1,1,-4,1,6,1,-9,1,-14,1,-18,1,-9,1,-14,1
1167,-5,1,-7,1,-2,1,6,1,-2,1,-5,1,6,1,-9,1,-13,1,-17,1,-9,1,-13,1
1168,-6,1,-8,1,-2,1,7,1,-2,1,-5,1,6,1,-9,1,-13,1,-17,1,-9,1,-12,1
1169,-4,1,-9,1,-5,1,6,1,0,1,-7,1,7,1,-9,1,-12,1,-16,1,-8,1,-11,1
1170,-5,1,-10,1,-5,1,7,1,0,1,-8,1,7,1,-8,1,-12,1,-16,1,-7,1,-10,1
1171,-5,1,-10,1,-5,1,7,1,0,1,-8,1,7,1,-8,1,-12,1,-16,1,-7,1,-11,1
1172,-5,1,-10,1,-5,1,7,1,0,1,-8,1,8,1,-5,1,-10,1,-15,1,-5,1,-9,1
1173,-6,1,-9,1,-3,1,7,1,-2,1,-6,1,8,1,-6,1,-11,1,-15,1,-5,1,-9,1
1174,-6,1,-9,1,-3,1,7,1,-2,1,-6,1,8,1,-7,1,-10,1,-16,1,-5,1,-9,1
1175,-6,1,-9,1,-3,1,7,1,-2,1,-6,1,7,1,-7,1,-11,1,-16,1,-5,1,-9,1
1176,-5,1,-8,1,-3,1,6,1,-1,1,-6,1,6,1,-7,1,-11,1,-16,1,-6,1,-9,1
1177,-5,1,-8,1,-3,1,6,1,-1,1,-6,1,6,1,-7,1,-11,1,-16,1,-6,1,-10,1
1178,-4,1,-8,1,-4,1,6,1,0,1,-6,1,5,1,-7,1,-11,1,-16,1,-7,1,-10,1
1179,-5,1,-9,1,-4,1,7,1,-1,1,-7,1,5,1,-7,1,-12,1,-16,1,-7,1,-11,1
1180,-5,1,-8,1,-3,1,6,1,-1,1,-6,1,5,1,-7,1,-12,1,-16,1,-7,1,-11,1
1181,-5,1,-8,1,-3,1,6,1,-1,1,-6,1,6,1,-6,1,-10,1,-16,1,-7,1,-11,1
1182,-5,1,-9,1,-4,1,7,1,-1,1,-7,1,7,1,-6,1,-9,1,-16,1,-6,1,-10,1
1183,-4,1,-8,1,-4,1,6,1,0,1,-6,1,7,1,-6,1,-9,1,-15,1,-6,1,-11,1
1184,-5,1,-8,1,-3,1,6,1,-1,1,-6,1,5,1,-7,1,-11,1,-16,1,-7,1,-11,1
1185,-5,1,-9,1,-4,1,7,1,-1,1,-7,1,5,1,-6,1,-11,1,-17,1,-7,1,-13,1
1186,-5,1,-8,1,-3,1,6,1,-1,1,-6,1,5,1,-6,1,-11,1,-17,1,-7,1,-13,1
1187,-5,1,-8,1,-3,1,6,1,-1,1,-6,1,5,1,-7,1,-13,1,-19,1,-8,1,-14,1
1188,-5,1,-7,1,-2,1,6,1,-2,1,-5,1,5,1,-7,1,-13,1,-18,1,-8,1,-13,1
1189,-5,1,-8,1,-3,1,6,1,-1,1,-6,1,6,1,-7,1,-13,1,-18,1,-8,1,-13,1
1190,-6,1,-8,1,-2,1,7,1,-2,1,-5,1,5,1,-7,1,-13,1,-17,1,-8,1,-13,1
1191,-6,1,-8,1,-2,1,7,1,-2,1,-5,1,7,1,-5,1,-12,1,-18,1,-8,1,-12,1
1192,-5,1,-7,1,-2,1,6,1,-2,1,-5,1,8,1,-5,1,-11,1,-16,1,-7,1,-12,1
1193,-3,1,-7,1,-4,1,5,1,0,1,-6,1,7,1,-5,1,-11,1,-17,1,-7,1,-12,1
1194,-2,1,-7,1,-5,1,4,1,1,1,-6,1,8,1,-6,1,-11,1,-18,1,-8,1,-13,1
1195,-3,1,-7,1,-4,1,5,1,0,1,-6,1,7,1,-7,1,-13,1,-20,1,-9,1,-14,1
1196,-5,1,-9,1,-4,1,7,1,-1,1,-7,1,5,1,-8,1,-13,1,-20,1,-10,1,-14,1
1197,-5,1,-11,1,-6,1,8,1,0,1,-9,1,3,1,-9,1,-15,1,-21,1,-10,1,-14,1
1198,-4,1,-10,1,-6,1,7,1,1,1,-8,1,5,1,-7,1,-14,1,-19,1,-9,1,-12,1
1199,-3,1,-10,1,-7,1,6,1,2,1,-9,1,5,1,-8,1,-14,1,-20,1,-9,1,-13,1
1200,-5,1,-10,1,-5,1,7,1,0,1,-8,1,5,1,-8,1,-15,1,-20,1,-10,1,-14,1
1201,-7,1,-11,1,-4,1,9,1,-2,1,-8,1,6,1,-8,1,-15,1,-19,1,-10,1,-13,1
1202,-6,1,-10,1,-4,1,8,1,-1,1,-7,1,7,1,-7,1,-13,1,-18,1,-9,1,-14,1
1203,-5,1,-10,1,-5,1,7,1,0,1,-8,1,8,1,-6,1,-13,1,-18,1,-8,1,-13,1
1204,-5,1,-10,1,-5,1,7,1,0,1,-8,1,8,1,-7,1,-14,1,-18,1,-8,1,-13,1
1205,-5,1,-12,1,-7,1,8,1,1,1,-10,1,7,1,-7,1,-14,1,-18,1,-9,1,-12,1
1206,-5,1,-12,1,-7,1,8,1,1,1,-10,1,6,1,-8,1,-15,1,-20,1,-10,1,-12,1
1207,-6,1,-12,1,-6,1,9,1,0,1,-9,1,5,1,-10,1,-17,1,-21,1,-11,1,-13,1
1208,-6,1,-12,1,-6,1,9,1,0,1,-9,1,5,1,-10,1,-17,1,-21,1,-11,1,-13,1
1209,-7,1,-12,1,-5,1,9,1,-1,1,-9,1,5,1,-10,1,-17,1,-21,1,-10,1,-14,1
1210,-7,1,-13,1,-6,1,10,1,-1,1,-10,1,4,1,-11,1,-18,1,-22,1,-11,1,-14,1
1211,-7,1,-13,1,-6,1,10,1,-1,1,-10,1,5,1,-10,1,-18,1,-21,1,-11,1,-14,1
1212,-7,1,-12,1,-5,1,9,1,-1,1,-9,1,5,1,-10,1,-17,1,-21,1,-11,1,-14,1
1213,-7,1,-12,1,-5,1,9,1,-1,1,-9,1,4,1,-10,1,-17,1,-22,1,-11,1,-15,1
1214,-7,1,-11,1,-4,1,9,1,-2,1,-8,1,3,1,-11,1,-17,1,-24,1,-13,1,-16,1
1215,-7,1,-11,1,-4,1,9,1,-2,1,-8,1,3,1,-13,1,-19,1,-24,1,-14,1,-17,1
1216,-7,1,-10,1,-3,1,8,1,-2,1,-7,1,2,1,-13,1,-20,1,-25,1,-14,1,-17,1
1217,-6,1,-10,1,-4,1,8,1,-1,1,-7,1,1,1,-15,1,-21,1,-25,1,-14,1,-18,1
1218,-6,1,-10,1,-4,1,8,1,-1,1,-7,1,1,1,-15,1,-20,1,-26,1,-14,1,-18,1
1219,-7,1,-11,1,-4,1,9,1,-2,1,-8,1,1,1,-14,1,-20,1,-26,1,-14,1,-17,1
1220,-7,1,-11,1,-4,1,9,1,-2,1,-8,1,2,1,-15,1,-20,1,-25,1,-14,1,-17,1
1221,-7,1,-11,1,-4,1,9,1,-2,1,-8,1,2,1,-15,1,-19,1,-24,1,-13,1,-16,1
1222,-8,1,-12,1,-4,1,10,1,-2,1,-8,1,4,1,-14,1,-19,1,-24,1,-13,1,-16,1
1223,-7,1,-12,1,-5,1,9,1,-1,1,-9,1,2,1,-15,1,-20,1,-24,1,-13,1,-16,1
1224,-7,1,-12,1,-5,1,9,1,-1,1,-9,1,3,1,-16,1,-20,1,-24,1,-13,1,-16,1
1225,-8,1,-13,1,-5,1,10,1,-2,1,-9,1,3,1,-16,1,-22,1,-25,1,-14,1,-17,1
1226,-7,1,-13,1,-6,1,10,1,-1,1,-10,1,2,1,-16,1,-22,1,-26,1,-14,1,-17,1
1227,-6,1,-13,1,-7,1,9,1,0,1,-10,1,1,1,-17,1,-23,1,-26,1,-14,1,-16,1
1228,-7,1,-12,1,-5,1,9,1,-1,1,-9,1,1,1,-17,1,-23,1,-26,1,-14,1,-16,1
1229,-6,1,-12,1,-6,1,9,1,0,1,-9,1,1,1,-16,1,-23,1,-26,1,-14,1,-16,1
1230,-6,1,-12,1,-6,1,9,1,0,1,-9,1,0,1,-17,1,-23,1,-26,1,-14,1,-16,1
1231,-7,1,-14,1,-7,1,10,1,0,1,-11,1,0,1,-16,1,-22,1,-25,1,-14,1,-17,1
1232,-7,1,-15,1,-8,1,11,1,0,1,-12,1,2,1,-16,1,-22,1,-25,1,-14,1,-17,1
1233,-7,1,-15,1,-8,1,11,1,0,1,-12,1,1,1,-16,1,-22,1,-26,1,-14,1,-17,1
1234,-7,1,-15,1,-8,1,11,1,0,1,-12,1,0,1,-16,1,-23,1,-27,1,-14,1,-18,1
1235,-7,1,-15,1,-8,1,11,1,0,1,-12,1,0,1,-17,1,-23,1,-27,1,-14,1,-18,1
1236,-7,1,-13,1,-6,1,10,1,-1,1,-10,1,-1,1,-18,1,-25,1,-29,1,-16,1,-18,1
1237,-7,1,-12,1,-5,1,9,1,-1,1,-9,1,0,1,-18,1,-26,1,-28,1,-15,1,-18,1
1238,-8,1,-13,1,-5,1,10,1,-2,1,-9,1,0,1,-18,1,-24,1,-28,1,-15,1,-19,1
1239,-8,1,-13,1,-5,1,10,1,-2,1,-9,1,0,1,-19,1,-25,1,-28,1,-15,1,-19,1
1240,-8,1,-14,1,-6,1,11,1,-1,1,-10,1,0,1,-18,1,-25,1,-28,1,-15,1,-19,1
1241,-9,1,-15,1,-6,1,12,1,-2,1,-11,1,1,1,-16,1,-25,1,-27,1,-15,1,-19,1
1242,-8,1,-14,1,-6,1,11,1,-1,1,-10,1,1,1,-17,1,-25,1,-27,1,-15,1,-20,1
1243,-7,1,-13,1,-6,1,10,1,-1,1,-10,1,0,1,-18,1,-24,1,-28,1,-16,1,-20,1
1244,-7,1,-12,1,-5,1,9,1,-1,1,-9,1,-1,1,-18,1,-23,1,-27,1,-15,1,-20,1
1245,-7,1,-12,1,-5,1,9,1,-1,1,-9,1,-2,1,-18,1,-24,1,-27,1,-15,1,-19,1
1246,-7,1,-12,1,-5,1,9,1,-1,1,-9,1,-3,1,-20,1,-25,1,-27,1,-14,1,-19,1
1247,-8,1,-12,1,-4,1,10,1,-2,1,-8,1,-3,1,-20,1,-26,1,-29,1,-15,1,-19,1
1248,-8,1,-13,1,-5,1,10,1,-2,1,-9,1,-1,1,-20,1,-27,1,-30,1,-17,1,-20,1
1249,-9,1,-14,1,-5,1,11,1,-2,1,-10,1,0,1,-19,1,-26,1,-29,1,-16,1,-20,1
1250,-8,1,-14,1,-6,1,11,1,-1,1,-10,1,0,1,-18,1,-25,1,-28,1,-15,1,-19,1
1251,-8,1,-14,1,-6,1,11,1,-1,1,-10,1,0,1,-18,1,-25,1,-28,1,-15,1,-19,1
1252,-8,1,-16,1,-8,1,12,1,0,1,-12,1,0,1,-19,1,-26,1,-29,1,-17,1,-20,1
1253,-7,1,-15,1,-8,1,11,1,0,1,-12,1,1,1,-19,1,-25,1,-28,1,-16,1,-20,1
1254,-7,1,-15,1,-8,1,11,1,0,1,-12,1,0,1,-18,1,-24,1,-28,1,-16,1,-19,1
1255,-6,1,-15,1,-9,1,10,1,1,1,-12,1,0,1,-18,1,-24,1,-28,1,-15,1,-18,1
1256,-8,1,-16,1,-8,1,12,1,0,1,-12,1,-2,1,-18,1,-25,1,-28,1,-15,1,-18,1
1257,-7,1,-16,1,-9,1,11,1,1,1,-13,1,-3,1,-20,1,-27,1,-29,1,-16,1,-18,1
1258,-7,1,-15,1,-8,1,11,1,0,1,-12,1,-3,1,-21,1,-27,1,-30,1,-16,1,-19,1
1259,-8,1,-17,1,-9,1,12,1,0,1,-13,1,-4,1,-22,1,-28,1,-30,1,-17,1,-20,1
1260,-8,1,-15,1,-7,1,11,1,-1,1,-11,1,-3,1,-20,1,-28,1,-29,1,-15,1,-19,1
1261,-8,1,-16,1,-8,1,12,1,0,1,-12,1,-2,1,-19,1,-27,1,-29,1,-16,1,-20,1
1262,-8,1,-16,1,-8,1,12,1,0,1,-12,1,-2,1,-19,1,-27,1,-29,1,-16,1,-19,1
1263,-8,1,-17,1,-9,1,12,1,0,1,-13,1,-2,1,-21,1,-27,1,-30,1,-16,1,-21,1
1264,-8,1,-16,1,-8,1,12,1,0,1,-12,1,-1,1,-18,1,-26,1,-28,1,-15,1,-20,1
1265,-9,1,-15,1,-6,1,12,1,-2,1,-11,1,0,1,-18,1,-25,1,-27,1,-15,1,-20,1
1266,-8,1,-14,1,-6,1,11,1,-1,1,-10,1,-1,1,-18,1,-25,1,-28,1,-15,1,-20,1
1267,-7,1,-13,1,-6,1,10,1,-1,1,-10,1,-3,1,-19,1,-27,1,-29,1,-17,1,-20,1
1268,-7,1,-15,1,-8,1,11,1,0,1,-12,1,-3,1,-20,1,-28,1,-30,1,-17,1,-21,1
1269,-7,1,-14,1,-7,1,10,1,0,1,-11,1,-4,1,-19,1,-28,1,-29,1,-17,1,-20,1
1270,-7,1,-13,1,-6,1,10,1,-1,1,-10,1,-5,1,-19,1,-28,1,-29,1,-17,1,-20,1
1271,-8,1,-14,1,-6,1,11,1,-1,1,-10,1,-4,1,-19,1,-27,1,-29,1,-16,1,-19,1
1272,-8,1,-16,1,-8,1,12,1,0,1,-12,1,-4,1,-19,1,-27,1,-29,1,-16,1,-19,1
1273,-7,1,-14,1,-7,1,10,1,0,1,-11,1,-4,1,-19,1,-27,1,-29,1,-15,1,-18,1
1274,-8,1,-14,1,-6,1,11,1,-1,1,-10,1,-3,1,-19,1,-27,1,-29,1,-15,1,-18,1
1275,-7,1,-14,1,-7,1,10,1,0,1,-11,1,-2,1,-19,1,-27,1,-29,1,-15,1,-18,1
1276,-8,1,-14,1,-6,1,11,1,-1,1,-10,1,-3,1,-19,1,-27,1,-30,1,-16,1,-19,1
1277,-8,1,-14,1,-6,1,11,1,-1,1,-10,1,-5,1,-21,1,-28,1,-30,1,-17,1,-19,1
1278,-8,1,-14,1,-6,1,11,1,-1,1,-10,1,-5,1,-20,1,-28,1,-29,1,-16,1,-19,1
1279,-8,1,-15,1,-7,1,11,1,-1,1,-11,1,-4,1,-20,1,-28,1,-28,1,-15,1,-18,1
1280,-7,1,-14,1,-7,1,10,1,0,1,-11,1,-4,1,-20,1,-28,1,-28,1,-15,1,-18,1
1281,-8,1,-15,1,-7,1,11,1,-1,1,-11,1,-3,1,-18,1,-27,1,-29,1,-16,1,-18,1
1282,-8,1,-15,1,-7,1,11,1,-1,1,-11,1,-2,1,-18,1,-27,1,-28,1,-15,1,-18,1
1283,-8,1,-15,1,-7,1,11,1,-1,1,-11,1,-1,1,-18,1,-27,1,-29,1,-15,1,-18,1
1284,-7,1,-15,1,-8,1,11,1,0,1,-12,1,-1,1,-18,1,-27,1,-29,1,-15,1,-18,1
1285,-7,1,-15,1,-8,1,11,1,0,1,-12,1,-2,1,-18,1,-26,1,-28,1,-14,1,-18,1
1286,-7,1,-14,1,-7,1,10,1,0,1,-11,1,-3,1,-19,1,-27,1,-29,1,-15,1,-19,1
1287,-7,1,-14,1,-7,1,10,1,0,1,-11,1,-4,1,-21,1,-28,1,-30,1,-17,1,-20,1
1288,-8,1,-13,1,-5,1,10,1,-2,1,-9,1,-2,1,-19,1,-28,1,-30,1,-16,1,-19,1
1289,-6,1,-12,1,-6,1,9,1,0,1,-9,1,-1,1,-18,1,-27,1,-30,1,-16,1,-19,1
1290,-5,1,-11,1,-6,1,8,1,0,1,-9,1,-1,1,-18,1,-27,1,-29,1,-16,1,-18,1
1291,-6,1,-11,1,-5,1,8,1,-1,1,-8,1,-1,1,-18,1,-27,1,-29,1,-16,1,-18,1
1292,-6,1,-11,1,-5,1,8,1,-1,1,-8,1,0,1,-18,1,-25,1,-29,1,-15,1,-18,1
1293,-5,1,-10,1,-5,1,7,1,0,1,-8,1,0,1,-18,1,-25,1,-28,1,-15,1,-17,1
1294,-5,1,-11,1,-6,1,8,1,0,1,-9,1,-1,1,-18,1,-26,1,-29,1,-16,1,-18,1
1295,-6,1,-13,1,-7,1,9,1,0,1,-10,1,-2,1,-19,1,-27,1,-30,1,-16,1,-18,1
1296,-5,1,-12,1,-7,1,8,1,1,1,-10,1,-3,1,-18,1,-26,1,-28,1,-15,1,-18,1
1297,-5,1,-11,1,-6,1,8,1,0,1,-9,1,-3,1,-20,1,-27,1,-28,1,-15,1,-18,1
1298,-4,1,-11,1,-7,1,7,1,1,1,-9,1,-4,1,-21,1,-27,1,-29,1,-16,1,-18,1
1299,-4,1,-11,1,-7,1,7,1,1,1,-9,1,-2,1,-20,1,-26,1,-29,1,-16,1,-18,1
1300,-3,1,-11,1,-8,1,7,1,2,1,-10,1,-1,1,-18,1,-25,1,-28,1,-16,1,-18,1
1301,-3,1,-12,1,-9,1,7,1,3,1,-11,1,-1,1,-16,1,-24,1,-27,1,-15,1,-17,1
1302,-3,1,-12,1,-9,1,7,1,3,1,-11,1,0,1,-15,1,-23,1,-26,1,-14,1,-16,1
1303,-2,1,-9,1,-7,1,5,1,2,1,-8,1,0,1,-15,1,-21,1,-25,1,-13,1,-15,1
1304,0,1,-8,1,-8,1,4,1,4,1,-8,1,1,1,-14,1,-20,1,-24,1,-12,1,-14,1
1305,0,1,-7,1,-7,1,3,1,3,1,-7,1,2,1,-13,1,-18,1,-23,1,-10,1,-13,1
1306,1,1,-7,1,-8,1,3,1,4,1,-7,1,2,1,-12,1,-17,1,-21,1,-10,1,-13,1
1307,2,1,-6,1,-8,1,2,1,5,1,-7,1,1,1,-11,1,-17,1,-21,1,-10,1,-12,1
1308,4,1,-7,1,-11,1,1,1,7,1,-9,1,-1,1,-12,1,-17,1,-21,1,-10,1,-13,1
1309,3,1,-11,1,-14,1,4,1,8,1,-12,1,-1,1,-13,1,-18,1,-23,1,-12,1,-14,1
1310,4,1,-11,1,-15,1,3,1,9,1,-13,1,-1,1,-12,1,-19,1,-24,1,-12,1,-15,1
1311,5,1,-9,1,-14,1,2,1,9,1,-11,1,0,1,-11,1,-17,1,-24,1,-12,1,-14,1
1312,5,1,-7,1,-12,1,1,1,8,1,-9,1,0,1,-11,1,-16,1,-22,1,-10,1,-12,1
1313,6,1,-4,1,-10,1,-1,1,8,1,-7,1,-1,1,-12,1,-16,1,-21,1,-8,1,-11,1
1314,7,1,0,1,-7,1,-3,1,7,1,-3,1,-4,1,-14,1,-16,1,-21,1,-7,1,-10,1
1315,6,1,1,1,-5,1,-3,1,6,1,-2,1,-5,1,-16,1,-17,1,-20,1,-7,1,-9,1
1316,7,1,1,1,-6,1,-4,1,7,1,-2,1,-5,1,-16,1,-17,1,-20,1,-7,1,-10,1
1317,5,1,0,1,-5,1,-2,1,5,1,-2,1,-8,1,-18,1,-19,1,-21,1,-8,1,-9,1
1318,6,1,-1,1,-7,1,-2,1,6,1,-4,1,-10,1,-20,1,-21,1,-23,1,-10,1,-10,1
1319,4,1,-3,1,-7,1,0,1,5,1,-5,1,-9,1,-21,1,-21,1,-24,1,-11,1,-10,1
1320,6,1,-4,1,-10,1,-1,1,8,1,-7,1,-10,1,-20,1,-22,1,-24,1,-10,1,-11,1
1321,6,1,-5,1,-11,1,0,1,8,1,-8,1,-8,1,-18,1,-20,1,-23,1,-10,1,-10,1
1322,7,1,-5,1,-12,1,-1,1,9,1,-8,1,-7,1,-18,1,-20,1,-23,1,-10,1,-10,1
1323,7,1,-3,1,-10,1,-2,1,8,1,-6,1,-7,1,-18,1,-21,1,-23,1,-9,1,-10,1
1324,7,1,-2,1,-9,1,-2,1,8,1,-5,1,-9,1,-18,1,-21,1,-23,1,-9,1,-10,1
1325,7,1,-2,1,-9,1,-2,1,8,1,-5,1,-7,1,-18,1,-20,1,-23,1,-8,1,-10,1
1326,7,1,-2,1,-9,1,-2,1,8,1,-5,1,-8,1,-19,1,-21,1,-23,1,-9,1,-10,1
1327,7,1,-3,1,-10,1,-2,1,8,1,-6,1,-10,1,-20,1,-22,1,-24,1,-9,1,-11,1
1328,7,1,-4,1,-11,1,-1,1,9,1,-7,1,-10,1,-22,1,-24,1,-25,1,-10,1,-11,1
1329,7,1,-6,1,-13,1,0,1,10,1,-9,1,-9,1,-21,1,-23,1,-25,1,-10,1,-12,1
1330,8,1,-7,1,-15,1,0,1,11,1,-11,1,-10,1,-22,1,-24,1,-27,1,-11,1,-13,1
1331,7,1,-8,1,-15,1,0,1,11,1,-11,1,-9,1,-20,1,-23,1,-26,1,-11,1,-13,1
1332,6,1,-10,1,-16,1,2,1,11,1,-13,1,-8,1,-20,1,-23,1,-25,1,-10,1,-13,1
1333,5,1,-9,1,-14,1,2,1,9,1,-11,1,-7,1,-21,1,-23,1,-25,1,-9,1,-13,1
1334,5,1,-9,1,-14,1,2,1,9,1,-11,1,-8,1,-21,1,-24,1,-26,1,-11,1,-14,1
1335,3,1,-8,1,-11,1,2,1,7,1,-9,1,-8,1,-20,1,-23,1,-25,1,-11,1,-14,1
1336,3,1,-7,1,-10,1,2,1,6,1,-8,1,-7,1,-19,1,-23,1,-24,1,-11,1,-13,1
1337,3,1,-7,1,-10,1,2,1,6,1,-8,1,-8,1,-20,1,-24,1,-25,1,-11,1,-14,1
1338,2,1,-10,1,-12,1,4,1,7,1,-11,1,-9,1,-21,1,-26,1,-27,1,-13,1,-16,1
1339,0,1,-11,1,-11,1,5,1,5,1,-11,1,-6,1,-19,1,-24,1,-26,1,-13,1,-16,1
1340,-2,1,-12,1,-10,1,7,1,4,1,-11,1,-3,1,-16,1,-23,1,-25,1,-13,1,-16,1
1341,-4,1,-12,1,-8,1,8,1,2,1,-10,1,-3,1,-15,1,-22,1,-24,1,-12,1,-16,1
1342,-6,1,-13,1,-7,1,9,1,0,1,-10,1,-1,1,-14,1,-21,1,-23,1,-11,1,-14,1
1343,-6,1,-13,1,-7,1,9,1,0,1,-10,1,-1,1,-15,1,-22,1,-24,1,-12,1,-15,1
1344,-8,1,-16,1,-8,1,12,1,0,1,-12,1,-3,1,-18,1,-26,1,-28,1,-15,1,-18,1
1345,-9,1,-16,1,-7,1,12,1,-1,1,-12,1,-4,1,-20,1,-28,1,-30,1,-17,1,-19,1
1346,-8,1,-14,1,-6,1,11,1,-1,1,-10,1,-6,1,-21,1,-28,1,-31,1,-17,1,-20,1
1347,-7,1,-14,1,-7,1,10,1,0,1,-11,1,-7,1,-23,1,-30,1,-32,1,-18,1,-20,1
1348,-9,1,-15,1,-6,1,12,1,-2,1,-11,1,-7,1,-24,1,-31,1,-32,1,-18,1,-21,1
1349,-10,1,-16,1,-6,1,13,1,-2,1,-11,1,-7,1,-24,1,-31,1,-33,1,-19,1,-21,1
1350,-10,1,-17,1,-7,1,13,1,-2,1,-12,1,-7,1,-24,1,-32,1,-34,1,-19,1,-21,1
1351,-10,1,-18,1,-8,1,14,1,-1,1,-13,1,-6,1,-23,1,-30,1,-32,1,-19,1,-21,1
1352,-9,1,-18,1,-9,1,13,1,0,1,-14,1,-5,1,-22,1,-30,1,-32,1,-18,1,-21,1
1353,-11,1,-18,1,-7,1,14,1,-2,1,-13,1,-4,1,-21,1,-29,1,-31,1,-18,1,-20,1
1354,-11,1,-18,1,-7,1,14,1,-2,1,-13,1,-5,1,-22,1,-29,1,-32,1,-18,1,-20,1
1355,-10,1,-18,1,-8,1,14,1,-1,1,-13,1,-5,1,-22,1,-29,1,-30,1,-18,1,-20,1
1356,-10,1,-18,1,-8,1,14,1,-1,1,-13,1,-5,1,-23,1,-29,1,-31,1,-17,1,-22,1
1357,-10,1,-18,1,-8,1,14,1,-1,1,-13,1,-7,1,-24,1,-30,1,-32,1,-18,1,-22,1
1358,-10,1,-17,1,-7,1,13,1,-2,1,-12,1,-7,1,-24,1,-30,1,-32,1,-20,1,-22,1
1359,-10,1,-16,1,-6,1,13,1,-2,1,-11,1,-6,1,-23,1,-30,1,-32,1,-19,1,-22,1
1360,-9,1,-15,1,-6,1,12,1,-2,1,-11,1,-6,1,-22,1,-30,1,-32,1,-18,1,-22,1
1361,-10,1,-15,1,-5,1,12,1,-3,1,-10,1,-5,1,-21,1,-28,1,-31,1,-18,1,-21,1
1362,-10,1,-16,1,-6,1,13,1,-2,1,-11,1,-4,1,-21,1,-28,1,-29,1,-17,1,-20,1
1363,-10,1,-16,1,-6,1,13,1,-2,1,-11,1,-4,1,-21,1,-28,1,-30,1,-18,1,-21,1
1364,-12,1,-18,1,-6,1,15,1,-3,1,-12,1,-3,1,-21,1,-28,1,-30,1,-18,1,-20,1
1365,-11,1,-17,1,-6,1,14,1,-3,1,-12,1,-3,1,-21,1,-29,1,-30,1,-18,1,-20,1
1366,-10,1,-16,1,-6,1,13,1,-2,1,-11,1,-3,1,-20,1,-28,1,-29,1,-17,1,-20,1
1367,-10,1,-16,1,-6,1,13,1,-2,1,-11,1,-4,1,-21,1,-29,1,-30,1,-17,1,-19,1
1368,-12,1,-18,1,-6,1,15,1,-3,1,-12,1,-4,1,-21,1,-28,1,-31,1,-19,1,-21,1
1369,-14,1,-18,1,-4,1,16,1,-5,1,-11,1,0,1,-19,1,-28,1,-31,1,-18,1,-21,1
1370,-15,1,-17,1,-2,1,16,1,-7,1,-10,1,6,1,-11,1,-23,1,-28,1,-18,1,-22,1
1371,-18,1,-18,1,0,1,18,1,-9,1,-9,1,14,1,-1,1,-18,1,-27,1,-19,1,-22,1
1372,-18,1,-16,1,2,1,17,1,-10,1,-7,1,23,1,11,1,-11,1,-24,1,-17,1,-20,1
1373,-16,1,-14,1,2,1,15,1,-9,1,-6,1,27,1,19,1,-5,1,-20,1,-15,1,-18,1
1374,-12,1,-12,1,0,1,12,1,-6,1,-6,1,30,1,26,1,1,1,-15,1,-10,1,-15,1
1375,-6,1,-12,1,-6,1,9,1,0,1,-9,1,35,1,40,1,14,1,-6,1,-4,1,-11,1
1376,3,1,-9,1,-12,1,3,1,7,1,-10,1,41,1,61,1,33,1,7,1,4,1,-4,1
1377,13,1,-5,1,-18,1,-4,1,15,1,-11,1,51,1,84,1,57,1,24,1,15,1,4,1
1378,20,1,3,1,-17,1,-11,1,19,1,-7,1,64,1,110,1,90,1,50,1,35,1,18,1
1379,33,1,16,1,-17,1,-24,1,25,1,0,1,70,1,130,1,125,1,82,1,59,1,37,1
1380,47,1,32,1,-15,1,-39,1,31,1,9,1,63,1,135,1,157,1,115,1,86,1,59,1
1381,66,1,51,1,-15,1,-58,1,41,1,18,1,43,1,128,1,189,1,152,1,118,1,85,1
1382,83,1,74,1,-9,1,-78,1,46,1,33,1,19,1,113,1,218,1,190,1,151,1,112,1
1383,100,1,103,1,3,1,-101,1,49,1,53,1,-24,1,76,1,227,1,219,1,181,1,140,1
1384,116,1,131,1,15,1,-123,1,51,1,73,1,-79,1,15,1,215,1,235,1,205,1,167,1
1385,123,1,145,1,22,1,-134,1,51,1,84,1,-120,1,-41,1,200,1,244,1,220,1,182,1
1386,125,1,155,1,30,1,-140,1,48,1,93,1,-154,1,-86,1,190,1,251,1,229,1,191,1
1387,114,1,144,1,30,1,-129,1,42,1,87,1,-162,1,-112,1,184,1,249,1,223,1,184,1
1388,95,1,115,1,20,1,-105,1,38,1,68,1,-152,1,-127,1,173,1,230,1,198,1,158,1
1389,77,1,96,1,19,1,-86,1,29,1,58,1,-148,1,-147,1,139,1,189,1,165,1,133,1
1390,57,1,80,1,23,1,-68,1,17,1,52,1,-151,1,-169,1,94,1,138,1,126,1,104,1
1391,36,1,61,1,25,1,-48,1,6,1,43,1,-152,1,-195,1,36,1,81,1,83,1,70,1
1392,15,1,39,1,24,1,-27,1,-4,1,32,1,-152,1,-220,1,-32,1,19,1,39,1,39,1
1393,-4,1,21,1,25,1,-8,1,-14,1,23,1,-155,1,-253,1,-121,1,-51,1,-5,1,9,1
1394,-21,1,9,1,30,1,6,1,-25,1,19,1,-158,1,-277,1,-192,1,-108,1,-42,1,-17,1
1395,-33,1,0,1,33,1,16,1,-33,1,16,1,-159,1,-279,1,-222,1,-135,1,-62,1,-31,1
1396,-40,1,-4,1,36,1,22,1,-38,1,16,1,-155,1,-265,1,-219,1,-138,1,-68,1,-37,1
1397,-46,1,-8,1,38,1,27,1,-42,1,15,1,-145,1,-246,1,-205,1,-134,1,-70,1,-42,1
1398,-49,1,-14,1,35,1,31,1,-42,1,10,1,-137,1,-230,1,-196,1,-131,1,-73,1,-47,1
1399,-51,1,-18,1,33,1,34,1,-42,1,7,1,-134,1,-218,1,-186,1,-128,1,-74,1,-50,1
1400,-52,1,-23,1,29,1,37,1,-41,1,3,1,-129,1,-203,1,-173,1,-124,1,-74,1,-53,1
1401,-53,1,-28,1,25,1,40,1,-39,1,-2,1,-123,1,-185,1,-159,1,-118,1,-74,1,-56,1
1402,-51,1,-27,1,24,1,39,1,-38,1,-2,1,-114,1,-167,1,-144,1,-110,1,-70,1,-54,1
1403,-46,1,-20,1,26,1,33,1,-36,1,3,1,-106,1,-150,1,-128,1,-99,1,-63,1,-49,1
1404,-40,1,-16,1,24,1,28,1,-32,1,4,1,-95,1,-134,1,-113,1,-89,1,-56,1,-44,1
1405,-34,1,-12,1,22,1,23,1,-28,1,5,1,-81,1,-116,1,-95,1,-76,1,-46,1,-37,1
1406,-29,1,-8,1,21,1,18,1,-25,1,6,1,-66,1,-96,1,-78,1,-64,1,-37,1,-30,1
1407,-23,1,0,1,23,1,11,1,-23,1,11,1,-52,1,-77,1,-62,1,-50,1,-28,1,-22,1
1408,-18,1,4,1,22,1,7,1,-20,1,13,1,-38,1,-58,1,-47,1,-40,1,-20,1,-17,1
1409,-14,1,5,1,19,1,4,1,-16,1,12,1,-27,1,-45,1,-37,1,-33,1,-16,1,-14,1
1410,-12,1,5,1,17,1,3,1,-14,1,11,1,-19,1,-35,1,-30,1,-29,1,-13,1,-12,1
1411,-10,1,3,1,13,1,3,1,-11,1,8,1,-12,1,-24,1,-23,1,-24,1,-10,1,-10,1
1412,-8,1,0,1,8,1,4,1,-8,1,4,1,-5,1,-16,1,-15,1,-19,1,-7,1,-8,1
1413,-7,1,-4,1,3,1,5,1,-5,1,-1,1,0,1,-8,1,-10,1,-16,1,-7,1,-7,1
1414,-6,1,-7,1,-1,1,6,1,-3,1,-4,1,1,1,-5,1,-8,1,-17,1,-7,1,-9,1
1415,-6,1,-9,1,-3,1,7,1,-2,1,-6,1,3,1,-3,1,-7,1,-16,1,-7,1,-9,1
1416,-5,1,-7,1,-2,1,6,1,-2,1,-5,1,3,1,-2,1,-6,1,-15,1,-7,1,-9,1
1417,-4,1,-6,1,-2,1,5,1,-1,1,-4,1,2,1,-1,1,-6,1,-14,1,-7,1,-9,1
1418,-3,1,-6,1,-3,1,4,1,0,1,-5,1,3,1,0,1,-5,1,-14,1,-7,1,-9,1
1419,-2,1,-6,1,-4,1,4,1,1,1,-5,1,3,1,1,1,-4,1,-12,1,-7,1,-9,1
1420,-2,1,-6,1,-4,1,4,1,1,1,-5,1,5,1,3,1,-2,1,-12,1,-6,1,-9,1
1421,-3,1,-6,1,-3,1,4,1,0,1,-5,1,6,1,4,1,-1,1,-11,1,-6,1,-9,1
1422,-3,1,-6,1,-3,1,4,1,0,1,-5,1,8,1,6,1,1,1,-8,1,-4,1,-7,1
1423,-3,1,-5,1,-2,1,4,1,-1,1,-4,1,10,1,7,1,3,1,-8,1,-4,1,-7,1
1424,-2,1,-4,1,-2,1,3,1,0,1,-3,1,10,1,7,1,3,1,-7,1,-2,1,-6,1
1425,-2,1,-4,1,-2,1,3,1,0,1,-3,1,10,1,9,1,4,1,-7,1,-2,1,-6,1
1426,-4,1,-5,1,-1,1,4,1,-2,1,-3,1,10,1,9,1,4,1,-6,1,-2,1,-6,1
1427,-4,1,-4,1,0,1,4,1,-2,1,-2,1,10,1,10,1,4,1,-6,1,0,1,-5,1
1428,-3,1,-4,1,-1,1,3,1,-1,1,-3,1,10,1,12,1,6,1,-6,1,0,1,-5,1
1429,-1,1,-5,1,-4,1,3,1,1,1,-5,1,11,1,12,1,6,1,-6,1,-1,1,-5,1
1430,0,1,-5,1,-5,1,2,1,2,1,-5,1,10,1,12,1,6,1,-5,1,-2,1,-4,1
1431,-1,1,-5,1,-4,1,3,1,1,1,-5,1,12,1,15,1,9,1,-3,1,0,1,-4,1
1432,-2,1,-6,1,-4,1,4,1,1,1,-5,1,14,1,18,1,11,1,-1,1,1,1,-3,1
1433,0,1,-6,1,-6,1,3,1,3,1,-6,1,15,1,17,1,11,1,-2,1,2,1,-3,1
1434,0,1,-6,1,-6,1,3,1,3,1,-6,1,13,1,17,1,11,1,-2,1,2,1,-2,1
1435,1,1,-5,1,-6,1,2,1,3,1,-5,1,13,1,18,1,12,1,-1,1,2,1,-2,1
1436,1,1,-4,1,-5,1,1,1,3,1,-4,1,12,1,18,1,12,1,-1,1,2,1,-2,1
1437,2,1,-2,1,-4,1,0,1,3,1,-3,1,12,1,19,1,12,1,0,1,4,1,-2,1
1438,2,1,-2,1,-4,1,0,1,3,1,-3,1,12,1,19,1,12,1,0,1,4,1,-2,1
1439,2,1,-2,1,-4,1,0,1,3,1,-3,1,12,1,20,1,14,1,1,1,4,1,-2,1
1440,3,1,-1,1,-4,1,-1,1,3,1,-2,1,13,1,21,1,16,1,2,1,5,1,-1,1
1441,1,1,-2,1,-3,1,0,1,2,1,-2,1,14,1,22,1,17,1,3,1,6,1,0,1
1442,1,1,-2,1,-3,1,0,1,2,1,-2,1,16,1,23,1,19,1,4,1,6,1,0,1
1443,2,1,-1,1,-3,1,0,1,2,1,-2,1,17,1,25,1,20,1,6,1,7,1,1,1
1444,4,1,-1,1,-5,1,-1,1,4,1,-3,1,15,1,24,1,20,1,7,1,8,1,2,1
1445,4,1,-1,1,-5,1,-1,1,4,1,-3,1,14,1,24,1,20,1,7,1,8,1,2,1
1446,4,1,0,1,-4,1,-2,1,4,1,-2,1,15,1,25,1,22,1,7,1,8,1,2,1
1447,6,1,1,1,-5,1,-3,1,6,1,-2,1,15,1,25,1,22,1,7,1,8,1,2,1
1448,6,1,1,1,-5,1,-3,1,6,1,-2,1,14,1,26,1,22,1,8,1,8,1,2,1
1449,6,1,0,1,-6,1,-3,1,6,1,-3,1,14,1,26,1,24,1,9,1,9,1,3,1
1450,6,1,0,1,-6,1,-3,1,6,1,-3,1,15,1,27,1,25,1,10,1,11,1,4,1
1451,6,1,0,1,-6,1,-3,1,6,1,-3,1,15,1,28,1,27,1,12,1,11,1,4,1
1452,6,1,0,1,-6,1,-3,1,6,1,-3,1,17,1,30,1,29,1,13,1,12,1,4,1
1453,6,1,1,1,-5,1,-3,1,6,1,-2,1,16,1,30,1,30,1,13,1,13,1,4,1
1454,6,1,3,1,-3,1,-4,1,5,1,0,1,16,1,31,1,31,1,15,1,13,1,5,1
1455,8,1,4,1,-4,1,-6,1,6,1,0,1,16,1,32,1,33,1,16,1,14,1,6,1
1456,10,1,5,1,-5,1,-7,1,8,1,0,1,16,1,33,1,34,1,17,1,14,1,6,1
1457,9,1,4,1,-5,1,-6,1,7,1,0,1,16,1,33,1,33,1,16,1,15,1,6,1
1458,8,1,3,1,-5,1,-5,1,7,1,-1,1,16,1,33,1,34,1,17,1,15,1,7,1
1459,8,1,4,1,-4,1,-6,1,6,1,0,1,17,1,36,1,36,1,19,1,17,1,9,1
1460,9,1,4,1,-5,1,-6,1,7,1,0,1,17,1,37,1,37,1,20,1,18,1,9,1
1461,11,1,6,1,-5,1,-8,1,8,1,1,1,19,1,39,1,40,1,22,1,19,1,9,1
1462,11,1,6,1,-5,1,-8,1,8,1,1,1,20,1,42,1,43,1,23,1,20,1,10,1
1463,11,1,6,1,-5,1,-8,1,8,1,1,1,20,1,42,1,44,1,24,1,21,1,11,1
1464,11,1,6,1,-5,1,-8,1,8,1,1,1,19,1,42,1,44,1,24,1,21,1,11,1
1465,11,1,7,1,-4,1,-9,1,8,1,2,1,20,1,43,1,46,1,26,1,23,1,12,1
1466,13,1,10,1,-3,1,-11,1,8,1,4,1,21,1,45,1,48,1,28,1,23,1,12,1
1467,14,1,11,1,-3,1,-12,1,9,1,4,1,21,1,46,1,49,1,29,1,24,1,13,1
1468,14,1,10,1,-4,1,-12,1,9,1,3,1,21,1,47,1,51,1,31,1,25,1,14,1
1469,15,1,10,1,-5,1,-12,1,10,1,3,1,21,1,48,1,53,1,30,1,26,1,14,1
1470,15,1,10,1,-5,1,-12,1,10,1,3,1,23,1,52,1,55,1,33,1,28,1,15,1
1471,16,1,9,1,-7,1,-12,1,12,1,1,1,23,1,54,1,56,1,34,1,28,1,15,1
1472,16,1,9,1,-7,1,-12,1,12,1,1,1,24,1,54,1,58,1,35,1,29,1,16,1
1473,17,1,9,1,-8,1,-13,1,13,1,1,1,24,1,57,1,60,1,38,1,31,1,18,1
1474,18,1,10,1,-8,1,-14,1,13,1,1,1,25,1,58,1,63,1,40,1,33,1,19,1
1475,18,1,11,1,-7,1,-14,1,13,1,2,1,24,1,60,1,64,1,41,1,33,1,20,1
1476,19,1,12,1,-7,1,-15,1,13,1,3,1,24,1,60,1,66,1,43,1,35,1,22,1
1477,21,1,14,1,-7,1,-17,1,14,1,4,1,23,1,62,1,67,1,45,1,37,1,24,1
1478,21,1,14,1,-7,1,-17,1,14,1,4,1,23,1,61,1,69,1,46,1,39,1,24,1
1479,22,1,15,1,-7,1,-18,1,15,1,4,1,24,1,65,1,72,1,48,1,40,1,26,1
1480,24,1,16,1,-8,1,-20,1,16,1,4,1,26,1,67,1,75,1,51,1,42,1,28,1
1481,25,1,16,1,-9,1,-20,1,17,1,4,1,26,1,69,1,78,1,53,1,43,1,28,1
1482,26,1,17,1,-9,1,-21,1,18,1,4,1,28,1,71,1,81,1,54,1,44,1,28,1
1483,28,1,19,1,-9,1,-23,1,19,1,5,1,28,1,73,1,84,1,56,1,45,1,30,1
1484,28,1,20,1,-8,1,-24,1,18,1,6,1,28,1,75,1,86,1,58,1,46,1,31,1
1485,29,1,22,1,-7,1,-25,1,18,1,8,1,29,1,77,1,88,1,61,1,47,1,32,1
1486,30,1,24,1,-6,1,-27,1,18,1,9,1,29,1,79,1,91,1,63,1,49,1,34,1
1487,30,1,25,1,-5,1,-27,1,18,1,10,1,28,1,79,1,92,1,64,1,51,1,35,1
1488,31,1,26,1,-5,1,-28,1,18,1,11,1,28,1,81,1,94,1,66,1,51,1,36,1
1489,33,1,28,1,-5,1,-30,1,19,1,12,1,28,1,83,1,97,1,69,1,53,1,38,1
1490,34,1,28,1,-6,1,-31,1,20,1,11,1,28,1,84,1,100,1,71,1,56,1,39,1
1491,36,1,30,1,-6,1,-33,1,21,1,12,1,30,1,88,1,103,1,74,1,59,1,42,1
1492,37,1,30,1,-7,1,-33,1,22,1,12,1,31,1,89,1,106,1,76,1,61,1,43,1
1493,36,1,31,1,-5,1,-33,1,21,1,13,1,32,1,91,1,109,1,79,1,63,1,45,1
1494,38,1,32,1,-6,1,-35,1,22,1,13,1,30,1,91,1,111,1,80,1,64,1,46,1
1495,39,1,34,1,-5,1,-36,1,22,1,15,1,30,1,92,1,113,1,82,1,65,1,47,1
1496,40,1,36,1,-4,1,-38,1,22,1,16,1,31,1,94,1,114,1,84,1,67,1,49,1
1497,41,1,38,1,-3,1,-39,1,22,1,18,1,30,1,93,1,115,1,85,1,68,1,50,1
1498,41,1,38,1,-3,1,-39,1,22,1,18,1,29,1,93,1,117,1,86,1,70,1,51,1
1499,41,1,39,1,-2,1,-40,1,22,1,19,1,29,1,94,1,118,1,88,1,71,1,52,1
1500,43,1,41,1,-2,1,-42,1,23,1,20,1,29,1,95,1,118,1,89,1,72,1,53,1
1501,43,1,43,1,0,1,-43,1,22,1,22,1,29,1,96,1,120,1,91,1,73,1,54,1
1502,44,1,43,1,-1,1,-43,1,23,1,21,1,30,1,97,1,121,1,92,1,75,1,56,1
1503,45,1,44,1,-1,1,-44,1,23,1,22,1,30,1,96,1,122,1,93,1,76,1,56,1
1504,45,1,44,1,-1,1,-44,1,23,1,22,1,29,1,96,1,122,1,95,1,77,1,58,1
1505,45,1,45,1,0,1,-45,1,23,1,23,1,29,1,97,1,123,1,95,1,78,1,59,1
1506,45,1,45,1,0,1,-45,1,23,1,23,1,28,1,96,1,124,1,96,1,79,1,59,1
1507,45,1,45,1,0,1,-45,1,23,1,23,1,26,1,94,1,123,1,96,1,79,1,58,1
1508,47,1,45,1,-2,1,-46,1,25,1,22,1,25,1,93,1,122,1,96,1,79,1,58,1
1509,48,1,47,1,-1,1,-47,1,25,1,23,1,26,1,93,1,123,1,96,1,80,1,60,1
1510,48,1,48,1,0,1,-48,1,24,1,24,1,27,1,94,1,123,1,97,1,80,1,61,1
1511,46,1,48,1,2,1,-47,1,22,1,25,1,27,1,92,1,124,1,97,1,81,1,61,1
1512,46,1,48,1,2,1,-47,1,22,1,25,1,27,1,92,1,124,1,97,1,81,1,62,1
1513,47,1,50,1,3,1,-48,1,22,1,27,1,26,1,92,1,124,1,98,1,83,1,63,1
1514,48,1,50,1,2,1,-49,1,23,1,26,1,25,1,89,1,121,1,97,1,82,1,62,1
1515,48,1,50,1,2,1,-49,1,23,1,26,1,22,1,87,1,120,1,96,1,81,1,62,1
1516,48,1,51,1,3,1,-49,1,23,1,27,1,22,1,85,1,118,1,94,1,80,1,61,1
1517,47,1,52,1,5,1,-49,1,21,1,29,1,21,1,84,1,116,1,93,1,79,1,60,1
1518,46,1,52,1,6,1,-49,1,20,1,29,1,19,1,81,1,113,1,91,1,78,1,60,1
1519,46,1,52,1,6,1,-49,1,20,1,29,1,19,1,79,1,111,1,91,1,78,1,60,1
1520,44,1,52,1,8,1,-48,1,18,1,30,1,19,1,77,1,110,1,89,1,78,1,60,1
1521,44,1,52,1,8,1,-48,1,18,1,30,1,19,1,75,1,108,1,88,1,77,1,59,1
1522,43,1,51,1,8,1,-47,1,18,1,30,1,20,1,73,1,107,1,85,1,75,1,57,1
1523,43,1,51,1,8,1,-47,1,18,1,30,1,18,1,68,1,102,1,81,1,73,1,56,1
1524,42,1,50,1,8,1,-46,1,17,1,29,1,18,1,66,1,98,1,79,1,71,1,54,1
1525,40,1,48,1,8,1,-44,1,16,1,28,1,18,1,63,1,95,1,78,1,70,1,53,1
1526,37,1,45,1,8,1,-41,1,15,1,27,1,16,1,60,1,90,1,74,1,67,1,51,1
1527,36,1,46,1,10,1,-41,1,13,1,28,1,16,1,56,1,86,1,70,1,64,1,49,1
1528,35,1,43,1,8,1,-39,1,14,1,26,1,16,1,54,1,82,1,67,1,62,1,47,1
1529,33,1,41,1,8,1,-37,1,13,1,25,1,16,1,50,1,77,1,63,1,58,1,44,1
1530,31,1,39,1,8,1,-35,1,12,1,24,1,18,1,48,1,73,1,60,1,56,1,42,1
1531,29,1,37,1,8,1,-33,1,11,1,23,1,17,1,45,1,69,1,57,1,53,1,40,1
1532,27,1,34,1,7,1,-30,1,10,1,21,1,16,1,42,1,64,1,52,1,49,1,38,1
1533,26,1,34,1,8,1,-30,1,9,1,21,1,15,1,39,1,60,1,49,1,47,1,35,1
1534,23,1,31,1,8,1,-27,1,8,1,20,1,15,1,35,1,55,1,44,1,43,1,32,1
1535,21,1,29,1,8,1,-25,1,7,1,19,1,13,1,32,1,50,1,40,1,40,1,29,1
1536,20,1,28,1,8,1,-24,1,6,1,18,1,13,1,29,1,45,1,36,1,36,1,27,1
1537,18,1,26,1,8,1,-22,1,5,1,17,1,12,1,24,1,39,1,32,1,32,1,24,1
1538,16,1,24,1,8,1,-20,1,4,1,16,1,11,1,21,1,35,1,28,1,29,1,21,1
1539,14,1,21,1,7,1,-17,1,4,1,14,1,11,1,19,1,31,1,24,1,26,1,19,1
1540,12,1,18,1,6,1,-15,1,3,1,12,1,11,1,17,1,28,1,22,1,24,1,17,1
1541,10,1,15,1,5,1,-12,1,3,1,10,1,11,1,15,1,25,1,18,1,22,1,16,1
1542,8,1,13,1,5,1,-10,1,2,1,9,1,11,1,13,1,23,1,16,1,20,1,14,1
1543,8,1,12,1,4,1,-10,1,2,1,8,1,11,1,11,1,20,1,13,1,18,1,12,1
1544,6,1,10,1,4,1,-8,1,1,1,7,1,9,1,8,1,16,1,9,1,14,1,8,1
1545,5,1,8,1,3,1,-6,1,1,1,6,1,9,1,6,1,11,1,5,1,10,1,4,1
1546,5,1,7,1,2,1,-6,1,2,1,5,1,8,1,4,1,8,1,3,1,7,1,3,1
1547,4,1,7,1,3,1,-5,1,1,1,5,1,6,1,1,1,5,1,1,1,5,1,1,1
1548,2,1,4,1,2,1,-3,1,0,1,3,1,5,1,0,1,2,1,-1,1,4,1,0,1
1549,1,1,4,1,3,1,-2,1,-1,1,4,1,5,1,-1,1,0,1,-3,1,2,1,-2,1
1550,0,1,2,1,2,1,-1,1,-1,1,2,1,5,1,-2,1,-1,1,-5,1,1,1,-3,1
1551,-2,1,0,1,2,1,1,1,-2,1,1,1,5,1,-4,1,-3,1,-6,1,0,1,-3,1
1552,-2,1,0,1,2,1,1,1,-2,1,1,1,6,1,-5,1,-4,1,-8,1,-1,1,-4,1
1553,-1,1,0,1,1,1,0,1,-1,1,0,1,5,1,-6,1,-6,1,-10,1,-2,1,-5,1
1554,-4,1,-2,1,2,1,3,1,-3,1,0,1,5,1,-7,1,-7,1,-11,1,-3,1,-6,1
1555,-3,1,-3,1,0,1,3,1,-2,1,-2,1,5,1,-7,1,-9,1,-12,1,-4,1,-7,1
1556,-5,1,-5,1,0,1,5,1,-3,1,-3,1,4,1,-9,1,-11,1,-14,1,-4,1,-7,1
1557,-5,1,-5,1,0,1,5,1,-3,1,-3,1,2,1,-10,1,-13,1,-16,1,-6,1,-9,1
1558,-4,1,-4,1,0,1,4,1,-2,1,-2,1,2,1,-10,1,-13,1,-16,1,-6,1,-8,1
1559,-5,1,-7,1,-2,1,6,1,-2,1,-5,1,2,1,-11,1,-15,1,-16,1,-7,1,-9,1
1560,-5,1,-8,1,-3,1,6,1,-1,1,-6,1,3,1,-11,1,-15,1,-17,1,-7,1,-10,1
1561,-6,1,-9,1,-3,1,7,1,-2,1,-6,1,3,1,-11,1,-15,1,-18,1,-9,1,-10,1
1562,-6,1,-9,1,-3,1,7,1,-2,1,-6,1,3,1,-10,1,-14,1,-18,1,-9,1,-10,1
1563,-6,1,-8,1,-2,1,7,1,-2,1,-5,1,3,1,-12,1,-15,1,-18,1,-9,1,-10,1
1564,-6,1,-9,1,-3,1,7,1,-2,1,-6,1,3,1,-12,1,-16,1,-19,1,-8,1,-10,1
1565,-7,1,-9,1,-2,1,8,1,-3,1,-6,1,4,1,-11,1,-16,1,-19,1,-8,1,-10,1
1566,-7,1,-10,1,-3,1,8,1,-2,1,-7,1,4,1,-11,1,-16,1,-19,1,-8,1,-10,1
1567,-7,1,-9,1,-2,1,8,1,-3,1,-6,1,3,1,-12,1,-17,1,-19,1,-9,1,-11,1
1568,-6,1,-9,1,-3,1,7,1,-2,1,-6,1,2,1,-13,1,-17,1,-19,1,-8,1,-11,1
1569,-5,1,-9,1,-4,1,7,1,-1,1,-7,1,2,1,-12,1,-16,1,-18,1,-8,1,-11,1
1570,-5,1,-9,1,-4,1,7,1,-1,1,-7,1,3,1,-12,1,-16,1,-19,1,-9,1,-11,1
1571,-7,1,-10,1,-3,1,8,1,-2,1,-7,1,3,1,-12,1,-16,1,-19,1,-10,1,-12,1
1572,-7,1,-10,1,-3,1,8,1,-2,1,-7,1,4,1,-12,1,-16,1,-19,1,-10,1,-11,1
1573,-6,1,-9,1,-3,1,7,1,-2,1,-6,1,5,1,-11,1,-15,1,-18,1,-9,1,-10,1
1574,-6,1,-9,1,-3,1,7,1,-2,1,-6,1,6,1,-9,1,-14,1,-17,1,-9,1,-10,1
1575,-6,1,-9,1,-3,1,7,1,-2,1,-6,1,5,1,-10,1,-14,1,-17,1,-9,1,-10,1
1576,-6,1,-9,1,-3,1,7,1,-2,1,-6,1,5,1,-12,1,-14,1,-18,1,-10,1,-11,1
1577,-6,1,-8,1,-2,1,7,1,-2,1,-5,1,5,1,-9,1,-15,1,-17,1,-9,1,-10,1
1578,-6,1,-7,1,-1,1,6,1,-3,1,-4,1,5,1,-10,1,-16,1,-18,1,-10,1,-11,1
1579,-6,1,-7,1,-1,1,6,1,-3,1,-4,1,5,1,-9,1,-15,1,-18,1,-10,1,-11,1
1580,-6,1,-8,1,-2,1,7,1,-2,1,-5,1,5,1,-9,1,-15,1,-18,1,-9,1,-11,1
1581,-7,1,-9,1,-2,1,8,1,-3,1,-6,1,6,1,-9,1,-14,1,-17,1,-8,1,-10,1
1582,-7,1,-10,1,-3,1,8,1,-2,1,-7,1,6,1,-8,1,-14,1,-17,1,-8,1,-10,1
1583,-7,1,-10,1,-3,1,8,1,-2,1,-7,1,6,1,-8,1,-12,1,-16,1,-8,1,-10,1
1584,-7,1,-10,1,-3,1,8,1,-2,1,-7,1,6,1,-7,1,-12,1,-16,1,-8,1,-10,1
1585,-5,1,-8,1,-3,1,6,1,-1,1,-6,1,6,1,-7,1,-12,1,-16,1,-8,1,-9,1
1586,-6,1,-7,1,-1,1,6,1,-3,1,-4,1,6,1,-7,1,-13,1,-16,1,-8,1,-9,1
1587,-6,1,-7,1,-1,1,6,1,-3,1,-4,1,5,1,-9,1,-14,1,-17,1,-9,1,-10,1
1588,-6,1,-8,1,-2,1,7,1,-2,1,-5,1,5,1,-10,1,-15,1,-18,1,-10,1,-10,1
1589,-6,1,-7,1,-1,1,6,1,-3,1,-4,1,6,1,-9,1,-14,1,-17,1,-9,1,-10,1
1590,-6,1,-7,1,-1,1,6,1,-3,1,-4,1,6,1,-9,1,-14,1,-17,1,-9,1,-10,1
1591,-6,1,-9,1,-3,1,7,1,-2,1,-6,1,6,1,-9,1,-14,1,-17,1,-9,1,-11,1
1592,-6,1,-9,1,-3,1,7,1,-2,1,-6,1,7,1,-7,1,-13,1,-16,1,-9,1,-12,1
1593,-5,1,-8,1,-3,1,6,1,-1,1,-6,1,7,1,-7,1,-13,1,-15,1,-8,1,-12,1
1594,-5,1,-7,1,-2,1,6,1,-2,1,-5,1,7,1,-7,1,-13,1,-15,1,-8,1,-11,1
1595,-7,1,-6,1,1,1,6,1,-4,1,-3,1,7,1,-6,1,-12,1,-14,1,-8,1,-11,1
1596,-6,1,-6,1,0,1,6,1,-3,1,-3,1,8,1,-6,1,-12,1,-14,1,-8,1,-10,1
1597,-6,1,-5,1,1,1,5,1,-4,1,-2,1,7,1,-7,1,-13,1,-15,1,-8,1,-10,1
1598,-6,1,-6,1,0,1,6,1,-3,1,-3,1,7,1,-7,1,-13,1,-15,1,-8,1,-10,1
1599,-6,1,-7,1,-1,1,6,1,-3,1,-4,1,7,1,-7,1,-13,1,-15,1,-8,1,-10,1
1600,-4,1,-7,1,-3,1,5,1,-1,1,-5,1,7,1,-7,1,-13,1,-14,1,-7,1,-10,1
1601,-5,1,-9,1,-4,1,7,1,-1,1,-7,1,7,1,-7,1,-12,1,-14,1,-6,1,-9,1
1602,-5,1,-10,1,-5,1,7,1,0,1,-8,1,9,1,-6,1,-11,1,-14,1,-6,1,-8,1
1603,-6,1,-9,1,-3,1,7,1,-2,1,-6,1,8,1,-5,1,-11,1,-14,1,-7,1,-9,1
1604,-4,1,-9,1,-5,1,6,1,0,1,-7,1,8,1,-5,1,-10,1,-14,1,-6,1,-9,1
1605,-4,1,-9,1,-5,1,6,1,0,1,-7,1,9,1,-4,1,-10,1,-13,1,-5,1,-8,1
1606,-6,1,-10,1,-4,1,8,1,-1,1,-7,1,8,1,-4,1,-10,1,-13,1,-5,1,-7,1
1607,-5,1,-9,1,-4,1,7,1,-1,1,-7,1,7,1,-5,1,-11,1,-14,1,-6,1,-9,1
1608,-5,1,-9,1,-4,1,7,1,-1,1,-7,1,7,1,-6,1,-12,1,-15,1,-7,1,-9,1
1609,-5,1,-9,1,-4,1,7,1,-1,1,-7,1,7,1,-5,1,-12,1,-15,1,-7,1,-9,1
1610,-5,1,-9,1,-4,1,7,1,-1,1,-7,1,7,1,-5,1,-11,1,-14,1,-6,1,-8,1
1611,-6,1,-11,1,-5,1,8,1,-1,1,-8,1,7,1,-5,1,-11,1,-14,1,-6,1,-8,1
1612,-6,1,-12,1,-6,1,9,1,0,1,-9,1,7,1,-5,1,-11,1,-15,1,-7,1,-9,1
1613,-4,1,-10,1,-6,1,7,1,1,1,-8,1,8,1,-4,1,-11,1,-14,1,-7,1,-9,1
1614,-4,1,-10,1,-6,1,7,1,1,1,-8,1,7,1,-5,1,-11,1,-14,1,-7,1,-8,1
1615,-5,1,-11,1,-6,1,8,1,0,1,-9,1,6,1,-5,1,-12,1,-14,1,-7,1,-10,1
1616,-6,1,-11,1,-5,1,8,1,-1,1,-8,1,6,1,-6,1,-12,1,-14,1,-8,1,-10,1
1617,-6,1,-11,1,-5,1,8,1,-1,1,-8,1,6,1,-6,1,-13,1,-14,1,-8,1,-10,1
1618,-7,1,-11,1,-4,1,9,1,-2,1,-8,1,5,1,-7,1,-14,1,-15,1,-9,1,-11,1
1619,-6,1,-11,1,-5,1,8,1,-1,1,-8,1,4,1,-8,1,-16,1,-17,1,-10,1,-11,1
1620,-5,1,-10,1,-5,1,7,1,0,1,-8,1,4,1,-8,1,-15,1,-17,1,-9,1,-11,1
1621,-5,1,-10,1,-5,1,7,1,0,1,-8,1,4,1,-8,1,-15,1,-17,1,-9,1,-11,1
1622,-6,1,-10,1,-4,1,8,1,-1,1,-7,1,5,1,-8,1,-15,1,-17,1,-10,1,-12,1
1623,-6,1,-10,1,-4,1,8,1,-1,1,-7,1,5,1,-7,1,-15,1,-17,1,-9,1,-12,1
1624,-6,1,-10,1,-4,1,8,1,-1,1,-7,1,4,1,-8,1,-15,1,-17,1,-10,1,-12,1
1625,-5,1,-10,1,-5,1,7,1,0,1,-8,1,4,1,-8,1,-16,1,-17,1,-10,1,-12,1
1626,-4,1,-10,1,-6,1,7,1,1,1,-8,1,4,1,-9,1,-16,1,-18,1,-10,1,-12,1
1627,-4,1,-10,1,-6,1,7,1,1,1,-8,1,3,1,-10,1,-17,1,-18,1,-11,1,-12,1
1628,-5,1,-11,1,-6,1,8,1,0,1,-9,1,3,1,-10,1,-18,1,-19,1,-11,1,-11,1
1629,-6,1,-12,1,-6,1,9,1,0,1,-9,1,3,1,-10,1,-17,1,-19,1,-10,1,-11,1
1630,-6,1,-12,1,-6,1,9,1,0,1,-9,1,3,1,-10,1,-18,1,-19,1,-10,1,-11,1
1631,-7,1,-12,1,-5,1,9,1,-1,1,-9,1,3,1,-10,1,-18,1,-20,1,-11,1,-12,1
1632,-7,1,-13,1,-6,1,10,1,-1,1,-10,1,4,1,-9,1,-18,1,-19,1,-10,1,-11,1
1633,-6,1,-12,1,-6,1,9,1,0,1,-9,1,4,1,-10,1,-18,1,-19,1,-10,1,-11,1
1634,-5,1,-11,1,-6,1,8,1,0,1,-9,1,3,1,-10,1,-19,1,-20,1,-11,1,-11,1
1635,-6,1,-12,1,-6,1,9,1,0,1,-9,1,3,1,-11,1,-20,1,-20,1,-12,1,-13,1
1636,-6,1,-11,1,-5,1,8,1,-1,1,-8,1,2,1,-12,1,-20,1,-21,1,-12,1,-12,1
1637,-6,1,-10,1,-4,1,8,1,-1,1,-7,1,2,1,-12,1,-20,1,-20,1,-11,1,-12,1
1638,-6,1,-12,1,-6,1,9,1,0,1,-9,1,2,1,-12,1,-20,1,-21,1,-11,1,-12,1
1639,-6,1,-12,1,-6,1,9,1,0,1,-9,1,2,1,-12,1,-20,1,-21,1,-12,1,-12,1
1640,-5,1,-11,1,-6,1,8,1,0,1,-9,1,3,1,-12,1,-20,1,-22,1,-13,1,-13,1
1641,-5,1,-11,1,-6,1,8,1,0,1,-9,1,3,1,-11,1,-21,1,-22,1,-12,1,-13,1
1642,-7,1,-13,1,-6,1,10,1,-1,1,-10,1,4,1,-11,1,-20,1,-23,1,-13,1,-13,1
1643,-8,1,-13,1,-5,1,10,1,-2,1,-9,1,4,1,-12,1,-21,1,-23,1,-13,1,-14,1
1644,-8,1,-13,1,-5,1,10,1,-2,1,-9,1,4,1,-12,1,-22,1,-23,1,-14,1,-14,1
1645,-9,1,-14,1,-5,1,11,1,-2,1,-10,1,4,1,-13,1,-22,1,-24,1,-14,1,-14,1
1646,-8,1,-14,1,-6,1,11,1,-1,1,-10,1,3,1,-13,1,-23,1,-24,1,-13,1,-15,1
1647,-7,1,-13,1,-6,1,10,1,-1,1,-10,1,1,1,-14,1,-24,1,-24,1,-13,1,-15,1
1648,-8,1,-13,1,-5,1,10,1,-2,1,-9,1,1,1,-14,1,-25,1,-24,1,-14,1,-16,1
1649,-7,1,-13,1,-6,1,10,1,-1,1,-10,1,1,1,-15,1,-25,1,-25,1,-14,1,-16,1
1650,-8,1,-13,1,-5,1,10,1,-2,1,-9,1,1,1,-14,1,-25,1,-25,1,-14,1,-16,1
1651,-8,1,-13,1,-5,1,10,1,-2,1,-9,1,1,1,-15,1,-26,1,-25,1,-14,1,-16,1
1652,-8,1,-14,1,-6,1,11,1,-1,1,-10,1,3,1,-14,1,-25,1,-25,1,-14,1,-15,1
1653,-9,1,-13,1,-4,1,11,1,-3,1,-9,1,3,1,-14,1,-25,1,-25,1,-14,1,-14,1
1654,-8,1,-13,1,-5,1,10,1,-2,1,-9,1,2,1,-14,1,-25,1,-25,1,-14,1,-14,1
1655,-9,1,-15,1,-6,1,12,1,-2,1,-11,1,2,1,-14,1,-26,1,-25,1,-14,1,-15,1
1656,-9,1,-14,1,-5,1,11,1,-2,1,-10,1,3,1,-14,1,-26,1,-25,1,-14,1,-15,1
1657,-8,1,-14,1,-6,1,11,1,-1,1,-10,1,1,1,-15,1,-27,1,-26,1,-14,1,-15,1
1658,-9,1,-14,1,-5,1,11,1,-2,1,-10,1,1,1,-17,1,-28,1,-26,1,-15,1,-16,1
1659,-9,1,-14,1,-5,1,11,1,-2,1,-10,1,1,1,-16,1,-28,1,-25,1,-15,1,-15,1
1660,-9,1,-14,1,-5,1,11,1,-2,1,-10,1,1,1,-16,1,-28,1,-25,1,-15,1,-14,1
1661,-10,1,-16,1,-6,1,13,1,-2,1,-11,1,1,1,-15,1,-27,1,-26,1,-15,1,-14,1
1662,-9,1,-16,1,-7,1,12,1,-1,1,-12,1,2,1,-14,1,-27,1,-25,1,-14,1,-14,1
1663,-8,1,-16,1,-8,1,12,1,0,1,-12,1,2,1,-15,1,-27,1,-25,1,-14,1,-15,1
1664,-8,1,-16,1,-8,1,12,1,0,1,-12,1,1,1,-15,1,-27,1,-26,1,-14,1,-15,1
1665,-8,1,-16,1,-8,1,12,1,0,1,-12,1,0,1,-16,1,-27,1,-26,1,-15,1,-15,1
1666,-7,1,-15,1,-8,1,11,1,0,1,-12,1,0,1,-16,1,-28,1,-27,1,-16,1,-16,1
1667,-7,1,-14,1,-7,1,10,1,0,1,-11,1,0,1,-17,1,-28,1,-27,1,-16,1,-15,1
1668,-8,1,-14,1,-6,1,11,1,-1,1,-10,1,0,1,-17,1,-29,1,-27,1,-16,1,-15,1
1669,-8,1,-14,1,-6,1,11,1,-1,1,-10,1,0,1,-17,1,-30,1,-27,1,-15,1,-15,1
1670,-8,1,-14,1,-6,1,11,1,-1,1,-10,1,0,1,-17,1,-30,1,-27,1,-16,1,-16,1
1671,-8,1,-15,1,-7,1,11,1,-1,1,-11,1,0,1,-17,1,-28,1,-26,1,-15,1,-16,1
1672,-9,1,-15,1,-6,1,12,1,-2,1,-11,1,1,1,-16,1,-28,1,-26,1,-15,1,-16,1
1673,-8,1,-14,1,-6,1,11,1,-1,1,-10,1,2,1,-16,1,-28,1,-26,1,-14,1,-15,1
1674,-7,1,-14,1,-7,1,10,1,0,1,-11,1,1,1,-16,1,-27,1,-26,1,-14,1,-15,1
1675,-8,1,-15,1,-7,1,11,1,-1,1,-11,1,0,1,-17,1,-28,1,-27,1,-15,1,-16,1
1676,-8,1,-13,1,-5,1,10,1,-2,1,-9,1,1,1,-17,1,-28,1,-26,1,-15,1,-16,1
1677,-8,1,-13,1,-5,1,10,1,-2,1,-9,1,0,1,-17,1,-29,1,-27,1,-15,1,-16,1
1678,-9,1,-14,1,-5,1,11,1,-2,1,-10,1,-2,1,-19,1,-31,1,-28,1,-16,1,-15,1
1679,-9,1,-15,1,-6,1,12,1,-2,1,-11,1,-1,1,-18,1,-30,1,-27,1,-15,1,-15,1
1680,-9,1,-16,1,-7,1,12,1,-1,1,-12,1,-1,1,-18,1,-29,1,-26,1,-15,1,-15,1
1681,-9,1,-16,1,-7,1,12,1,-1,1,-12,1,0,1,-18,1,-28,1,-27,1,-15,1,-15,1
1682,-10,1,-17,1,-7,1,13,1,-2,1,-12,1,2,1,-16,1,-28,1,-27,1,-16,1,-16,1
1683,-8,1,-16,1,-8,1,12,1,0,1,-12,1,1,1,-17,1,-29,1,-27,1,-16,1,-16,1
1684,-8,1,-16,1,-8,1,12,1,0,1,-12,1,1,1,-18,1,-29,1,-27,1,-16,1,-16,1
1685,-9,1,-16,1,-7,1,12,1,-1,1,-12,1,1,1,-16,1,-28,1,-27,1,-15,1,-15,1
1686,-9,1,-17,1,-8,1,13,1,-1,1,-13,1,0,1,-17,1,-29,1,-28,1,-16,1,-16,1
1687,-9,1,-16,1,-7,1,12,1,-1,1,-12,1,-1,1,-18,1,-28,1,-28,1,-17,1,-17,1
1688,-8,1,-14,1,-6,1,11,1,-1,1,-10,1,-1,1,-19,1,-27,1,-28,1,-17,1,-16,1
1689,-8,1,-14,1,-6,1,11,1,-1,1,-10,1,-1,1,-18,1,-24,1,-28,1,-17,1,-16,1
1690,-9,1,-15,1,-6,1,12,1,-2,1,-11,1,0,1,-17,1,-23,1,-28,1,-17,1,-17,1
1691,-9,1,-16,1,-7,1,12,1,-1,1,-12,1,0,1,-17,1,-22,1,-29,1,-17,1,-17,1
1692,-9,1,-16,1,-7,1,12,1,-1,1,-12,1,1,1,-17,1,-20,1,-27,1,-16,1,-16,1
1693,-10,1,-16,1,-6,1,13,1,-2,1,-11,1,1,1,-17,1,-21,1,-28,1,-17,1,-16,1
1694,-9,1,-15,1,-6,1,12,1,-2,1,-11,1,1,1,-18,1,-22,1,-27,1,-16,1,-16,1
1695,-8,1,-15,1,-7,1,11,1,-1,1,-11,1,1,1,-17,1,-24,1,-27,1,-16,1,-16,1
1696,-7,1,-15,1,-8,1,11,1,0,1,-12,1,1,1,-17,1,-24,1,-28,1,-16,1,-16,1
1697,-7,1,-15,1,-8,1,11,1,0,1,-12,1,0,1,-18,1,-24,1,-27,1,-16,1,-16,1
1698,-8,1,-16,1,-8,1,12,1,0,1,-12,1,-1,1,-19,1,-27,1,-29,1,-17,1,-17,1
1699,-9,1,-17,1,-8,1,13,1,-1,1,-13,1,0,1,-19,1,-27,1,-28,1,-16,1,-18,1
1700,-9,1,-17,1,-8,1,13,1,-1,1,-13,1,0,1,-19,1,-27,1,-28,1,-16,1,-18,1
1701,-9,1,-17,1,-8,1,13,1,-1,1,-13,1,0,1,-19,1,-28,1,-27,1,-16,1,-17,1
1702,-9,1,-16,1,-7,1,12,1,-1,1,-12,1,1,1,-18,1,-27,1,-27,1,-16,1,-16,1
1703,-9,1,-16,1,-7,1,12,1,-1,1,-12,1,1,1,-18,1,-27,1,-27,1,-15,1,-16,1
1704,-8,1,-15,1,-7,1,11,1,-1,1,-11,1,1,1,-17,1,-27,1,-27,1,-15,1,-15,1
1705,-9,1,-16,1,-7,1,12,1,-1,1,-12,1,0,1,-17,1,-29,1,-28,1,-16,1,-17,1
1706,-10,1,-14,1,-4,1,12,1,-3,1,-9,1,0,1,-17,1,-29,1,-28,1,-17,1,-17,1
1707,-9,1,-14,1,-5,1,11,1,-2,1,-10,1,-2,1,-19,1,-31,1,-29,1,-17,1,-17,1
1708,-9,1,-14,1,-5,1,11,1,-2,1,-10,1,-3,1,-20,1,-31,1,-29,1,-17,1,-17,1
1709,-8,1,-14,1,-6,1,11,1,-1,1,-10,1,-3,1,-20,1,-31,1,-29,1,-17,1,-17,1
1710,-9,1,-14,1,-5,1,11,1,-2,1,-10,1,-1,1,-19,1,-31,1,-28,1,-16,1,-17,1
1711,-8,1,-13,1,-5,1,10,1,-2,1,-9,1,0,1,-17,1,-29,1,-27,1,-16,1,-17,1
1712,-8,1,-13,1,-5,1,10,1,-2,1,-9,1,1,1,-15,1,-28,1,-26,1,-15,1,-16,1
1713,-7,1,-12,1,-5,1,9,1,-1,1,-9,1,2,1,-15,1,-28,1,-26,1,-15,1,-16,1
1714,-7,1,-12,1,-5,1,9,1,-1,1,-9,1,1,1,-17,1,-29,1,-27,1,-15,1,-16,1
1715,-8,1,-12,1,-4,1,10,1,-2,1,-8,1,1,1,-17,1,-29,1,-27,1,-15,1,-16,1
1716,-8,1,-13,1,-5,1,10,1,-2,1,-9,1,0,1,-17,1,-29,1,-28,1,-16,1,-17,1
1717,-7,1,-14,1,-7,1,10,1,0,1,-11,1,-1,1,-19,1,-31,1,-29,1,-17,1,-18,1
1718,-7,1,-14,1,-7,1,10,1,0,1,-11,1,-1,1,-19,1,-31,1,-29,1,-17,1,-18,1
1719,-7,1,-14,1,-7,1,10,1,0,1,-11,1,-2,1,-20,1,-31,1,-28,1,-17,1,-19,1
1720,-6,1,-13,1,-7,1,9,1,0,1,-10,1,-1,1,-19,1,-30,1,-27,1,-15,1,-17,1
1721,-7,1,-13,1,-6,1,10,1,-1,1,-10,1,0,1,-18,1,-30,1,-27,1,-15,1,-17,1
1722,-6,1,-14,1,-8,1,10,1,1,1,-11,1,2,1,-16,1,-28,1,-26,1,-15,1,-17,1
1723,-6,1,-14,1,-8,1,10,1,1,1,-11,1,4,1,-15,1,-27,1,-25,1,-14,1,-16,1
1724,-5,1,-12,1,-7,1,8,1,1,1,-10,1,4,1,-14,1,-26,1,-24,1,-13,1,-16,1
1725,-4,1,-11,1,-7,1,7,1,1,1,-9,1,4,1,-14,1,-24,1,-23,1,-12,1,-15,1
1726,-2,1,-8,1,-6,1,5,1,2,1,-7,1,4,1,-11,1,-23,1,-21,1,-11,1,-13,1
1727,-1,1,-7,1,-6,1,4,1,2,1,-7,1,5,1,-11,1,-23,1,-21,1,-11,1,-12,1
1728,1,1,-7,1,-8,1,3,1,4,1,-7,1,4,1,-10,1,-22,1,-20,1,-10,1,-11,1
1729,2,1,-8,1,-10,1,3,1,6,1,-9,1,3,1,-9,1,-22,1,-20,1,-10,1,-11,1
1730,2,1,-9,1,-11,1,3,1,6,1,-10,1,4,1,-9,1,-21,1,-20,1,-9,1,-12,1
1731,3,1,-10,1,-13,1,3,1,8,1,-11,1,3,1,-9,1,-22,1,-20,1,-9,1,-11,1
1732,3,1,-12,1,-15,1,4,1,9,1,-13,1,4,1,-9,1,-22,1,-20,1,-9,1,-12,1
1733,3,1,-13,1,-16,1,5,1,9,1,-14,1,4,1,-9,1,-22,1,-21,1,-10,1,-12,1
1734,4,1,-11,1,-15,1,3,1,9,1,-13,1,3,1,-9,1,-21,1,-20,1,-10,1,-11,1
1735,5,1,-8,1,-13,1,1,1,9,1,-10,1,2,1,-9,1,-21,1,-19,1,-8,1,-11,1
1736,6,1,-5,1,-11,1,0,1,8,1,-8,1,0,1,-10,1,-21,1,-18,1,-8,1,-9,1
1737,7,1,-2,1,-9,1,-2,1,8,1,-5,1,-1,1,-12,1,-22,1,-18,1,-6,1,-7,1
1738,7,1,0,1,-7,1,-3,1,7,1,-3,1,-3,1,-13,1,-23,1,-18,1,-6,1,-8,1
1739,7,1,-1,1,-8,1,-3,1,7,1,-4,1,-3,1,-14,1,-23,1,-18,1,-6,1,-9,1
1740,5,1,-1,1,-6,1,-2,1,5,1,-3,1,-4,1,-16,1,-25,1,-19,1,-8,1,-10,1
1741,4,1,-2,1,-6,1,-1,1,5,1,-4,1,-5,1,-18,1,-26,1,-20,1,-9,1,-10,1
1742,4,1,-5,1,-9,1,0,1,6,1,-7,1,-5,1,-18,1,-26,1,-21,1,-9,1,-10,1
1743,5,1,-5,1,-10,1,0,1,7,1,-7,1,-3,1,-17,1,-26,1,-22,1,-10,1,-12,1
1744,5,1,-6,1,-11,1,0,1,8,1,-8,1,-3,1,-17,1,-26,1,-21,1,-10,1,-13,1
1745,5,1,-6,1,-11,1,0,1,8,1,-8,1,-2,1,-16,1,-25,1,-22,1,-10,1,-13,1
1746,4,1,-5,1,-9,1,0,1,6,1,-7,1,-2,1,-16,1,-25,1,-21,1,-9,1,-11,1
1747,6,1,-4,1,-10,1,-1,1,8,1,-7,1,-2,1,-16,1,-25,1,-20,1,-7,1,-10,1
1748,6,1,-4,1,-10,1,-1,1,8,1,-7,1,-4,1,-17,1,-26,1,-20,1,-8,1,-11,1
1749,7,1,-4,1,-11,1,-1,1,9,1,-7,1,-5,1,-17,1,-26,1,-21,1,-8,1,-11,1
1750,7,1,-4,1,-11,1,-1,1,9,1,-7,1,-4,1,-17,1,-26,1,-20,1,-7,1,-10,1
1751,5,1,-7,1,-12,1,1,1,8,1,-9,1,-4,1,-18,1,-27,1,-21,1,-9,1,-10,1
1752,4,1,-9,1,-13,1,2,1,8,1,-11,1,-4,1,-18,1,-27,1,-22,1,-9,1,-12,1
1753,4,1,-9,1,-13,1,2,1,8,1,-11,1,-3,1,-18,1,-27,1,-22,1,-9,1,-13,1
1754,5,1,-9,1,-14,1,2,1,9,1,-11,1,-4,1,-18,1,-28,1,-23,1,-10,1,-13,1
1755,4,1,-11,1,-15,1,3,1,9,1,-13,1,-5,1,-19,1,-29,1,-24,1,-11,1,-14,1
1756,4,1,-11,1,-15,1,3,1,9,1,-13,1,-4,1,-18,1,-28,1,-23,1,-10,1,-13,1
1757,2,1,-10,1,-12,1,4,1,7,1,-11,1,-4,1,-19,1,-28,1,-23,1,-10,1,-13,1
1758,0,1,-10,1,-10,1,5,1,5,1,-10,1,-4,1,-19,1,-28,1,-23,1,-10,1,-13,1
1759,0,1,-9,1,-9,1,4,1,4,1,-9,1,-3,1,-18,1,-27,1,-22,1,-10,1,-12,1
1760,1,1,-9,1,-10,1,4,1,5,1,-9,1,-3,1,-18,1,-27,1,-23,1,-10,1,-13,1
1761,0,1,-10,1,-10,1,5,1,5,1,-10,1,-1,1,-18,1,-28,1,-25,1,-11,1,-13,1
1762,-2,1,-12,1,-10,1,7,1,4,1,-11,1,0,1,-17,1,-28,1,-24,1,-11,1,-14,1
1763,-3,1,-13,1,-10,1,8,1,3,1,-12,1,1,1,-13,1,-26,1,-22,1,-10,1,-14,1
1764,-4,1,-13,1,-9,1,8,1,2,1,-11,1,2,1,-13,1,-24,1,-21,1,-10,1,-13,1
1765,-5,1,-13,1,-8,1,9,1,1,1,-11,1,2,1,-13,1,-25,1,-22,1,-10,1,-14,1
1766,-7,1,-14,1,-7,1,10,1,0,1,-11,1,2,1,-13,1,-27,1,-23,1,-12,1,-15,1
1767,-8,1,-16,1,-8,1,12,1,0,1,-12,1,2,1,-14,1,-29,1,-25,1,-14,1,-16,1
1768,-10,1,-18,1,-8,1,14,1,-1,1,-13,1,0,1,-17,1,-32,1,-28,1,-16,1,-19,1
1769,-10,1,-19,1,-9,1,14,1,-1,1,-14,1,-1,1,-19,1,-33,1,-28,1,-17,1,-20,1
1770,-9,1,-18,1,-9,1,13,1,0,1,-14,1,-1,1,-20,1,-33,1,-28,1,-17,1,-20,1
1771,-10,1,-19,1,-9,1,14,1,-1,1,-14,1,-1,1,-21,1,-34,1,-29,1,-18,1,-21,1
1772,-11,1,-20,1,-9,1,15,1,-1,1,-15,1,-1,1,-20,1,-34,1,-30,1,-18,1,-21,1
1773,-11,1,-19,1,-8,1,15,1,-2,1,-14,1,0,1,-20,1,-32,1,-30,1,-17,1,-21,1
1774,-11,1,-18,1,-7,1,14,1,-2,1,-13,1,0,1,-20,1,-32,1,-30,1,-17,1,-21,1
1775,-11,1,-19,1,-8,1,15,1,-2,1,-14,1,0,1,-20,1,-33,1,-31,1,-17,1,-22,1
1776,-11,1,-19,1,-8,1,15,1,-2,1,-14,1,-1,1,-20,1,-34,1,-31,1,-17,1,-21,1
1777,-10,1,-19,1,-9,1,14,1,-1,1,-14,1,-2,1,-21,1,-35,1,-32,1,-18,1,-22,1
1778,-11,1,-18,1,-7,1,14,1,-2,1,-13,1,-2,1,-21,1,-34,1,-31,1,-17,1,-21,1
1779,-12,1,-18,1,-6,1,15,1,-3,1,-12,1,-1,1,-20,1,-34,1,-30,1,-17,1,-21,1
1780,-11,1,-18,1,-7,1,14,1,-2,1,-13,1,-1,1,-20,1,-34,1,-30,1,-17,1,-21,1
1781,-12,1,-19,1,-7,1,15,1,-3,1,-13,1,0,1,-20,1,-34,1,-30,1,-17,1,-21,1
1782,-14,1,-20,1,-6,1,17,1,-4,1,-13,1,1,1,-18,1,-31,1,-29,1,-16,1,-21,1
1783,-13,1,-19,1,-6,1,16,1,-4,1,-13,1,2,1,-18,1,-31,1,-28,1,-16,1,-20,1
1784,-12,1,-18,1,-6,1,15,1,-3,1,-12,1,1,1,-18,1,-31,1,-28,1,-16,1,-21,1
1785,-12,1,-18,1,-6,1,15,1,-3,1,-12,1,1,1,-18,1,-32,1,-28,1,-16,1,-20,1
1786,-13,1,-18,1,-5,1,15,1,-4,1,-12,1,1,1,-18,1,-32,1,-28,1,-16,1,-21,1
1787,-13,1,-18,1,-5,1,15,1,-4,1,-12,1,1,1,-19,1,-33,1,-28,1,-17,1,-21,1
