TS,I,If,II,IIf,III,IIIf,aVR,aVRf,aVL,aVLf,aVF,aVFf,V1,V1f,V2,V2f,V3,V3f,V4,V4f,V5,V5f,V6,V6f
1,28,1,27,1,-1,1,-27,1,15,1,13,1,-32768,1,-32768,1,-32768,1,-32768,1,-32768,1,-32768,1
2,29,1,27,1,-2,1,-28,1,16,1,13,1,-32768,1,-32768,1,-32768,1,-32768,1,-32768,1,-32768,1
3,30,1,28,1,-2,1,-29,1,16,1,13,1,-32768,1,-32768,1,-32768,1,-32768,1,-32768,1,-32768,1
4,29,1,28,1,-1,1,-28,1,15,1,14,1,-32768,1,-32768,1,-32768,1,-32768,1,-32768,1,-32768,1
5,30,1,29,1,-1,1,-29,1,16,1,14,1,-32768,1,-32768,1,-32768,1,-32768,1,-32768,1,-32768,1
6,29,1,29,1,0,1,-29,1,15,1,15,1,-32768,1,-32768,1,-32768,1,-32768,1,-32768,1,-32768,1
7,29,1,30,1,1,1,-29,1,14,1,16,1,-32768,1,-32768,1,-32768,1,-32768,1,-32768,1,-32768,1
8,29,1,29,1,0,1,-29,1,15,1,15,1,-32768,1,-32768,1,-32768,1,-32768,1,-32768,1,-32768,1
9,29,1,29,1,0,1,-29,1,15,1,15,1,-32768,1,-32768,1,-32768,1,-32768,1,-32768,1,-32768,1
10,28,1,29,1,1,1,-28,1,14,1,15,1,-32768,1,-32768,1,-32768,1,-32768,1,-32768,1,-32768,1
11,29,1,29,1,0,1,-29,1,15,1,15,1,-32768,1,-32768,1,-32768,1,-32768,1,-32768,1,-32768,1
12,30,1,30,1,0,1,-30,1,15,1,15,1,-32768,1,-32768,1,-32768,1,-32768,1,-32768,1,-32768,1
13,31,1,30,1,-1,1,-30,1,16,1,15,1,-32768,1,-32768,1,-32768,1,-32768,1,-32768,1,-32768,1
14,31,1,30,1,-1,1,-30,1,16,1,15,1,-32768,1,-32768,1,-32768,1,-32768,1,-32768,1,-32768,1
15,32,1,30,1,-2,1,-31,1,17,1,14,1,-32768,1,-32768,1,-32768,1,-32768,1,-32768,1,-32768,1
16,31,1,30,1,-1,1,-30,1,16,1,15,1,-32768,1,-32768,1,-32768,1,-32768,1,-32768,1,-32768,1
17,31,1,30,1,-1,1,-30,1,16,1,15,1,-32768,1,-32768,1,-32768,1,-32768,1,-32768,1,-32768,1
18,30,1,30,1,0,1,-30,1,15,1,15,1,-32768,1,-32768,1,-32768,1,-32768,1,-32768,1,-32768,1
19,30,1,31,1,1,1,-30,1,15,1,16,1,-32768,1,-32768,1,-32768,1,-32768,1,-32768,1,-32768,1
20,30,1,31,1,1,1,-30,1,15,1,16,1,-32768,1,-32768,1,-32768,1,-32768,1,-32768,1,-32768,1
21,31,1,31,1,0,1,-31,1,16,1,16,1,-32768,1,-32768,1,-32768,1,-32768,1,-32768,1,-32768,1
22,33,1,31,1,-2,1,-32,1,18,1,15,1,-32768,1,-32768,1,-32768,1,-32768,1,-32768,1,-32768,1
23,35,1,32,1,-3,1,-33,1,19,1,15,1,-32768,1,-32768,1,-32768,1,-32768,1,-32768,1,-32768,1
24,35,1,31,1,-4,1,-33,1,20,1,14,1,-32768,1,-32768,1,-32768,1,-32768,1,-32768,1,-32768,1
25,36,1,31,1,-5,1,-33,1,21,1,13,1,-32768,1,-32768,1,-32768,1,-32768,1,-32768,1,-32768,1
26,34,1,31,1,-3,1,-32,1,19,1,14,1,-32768,1,-32768,1,-32768,1,-32768,1,-32768,1,-32768,1
27,33,1,31,1,-2,1,-32,1,18,1,15,1,-32768,1,-32768,1,-32768,1,-32768,1,-32768,1,-32768,1
28,33,1,32,1,-1,1,-32,1,17,1,16,1,-32768,1,-32768,1,-32768,1,-32768,1,-32768,1,-32768,1
29,33,1,32,1,-1,1,-32,1,17,1,16,1,-32768,1,-32768,1,-32768,1,-32768,1,-32768,1,-32768,1
30,32,1,32,1,0,1,-32,1,16,1,16,1,-32768,1,-32768,1,-32768,1,-32768,1,-32768,1,-32768,1
31,32,1,32,1,0,1,-32,1,16,1,16,1,-32768,1,-32768,1,-32768,1,-32768,1,-32768,1,-32768,1
32,34,1,32,1,-2,1,-33,1,18,1,15,1,-32768,1,-32768,1,-32768,1,-32768,1,-32768,1,-32768,1
33,35,1,31,1,-4,1,-33,1,20,1,14,1,-32768,1,-32768,1,-32768,1,-32768,1,-32768,1,-32768,1
34,36,1,31,1,-5,1,-33,1,21,1,13,1,-32768,1,-32768,1,-32768,1,-32768,1,-32768,1,-32768,1
35,36,1,31,1,-5,1,-33,1,21,1,13,1,-32768,1,-32768,1,-32768,1,-32768,1,-32768,1,-32768,1
36,35,1,31,1,-4,1,-33,1,20,1,14,1,-32768,1,-32768,1,-32768,1,-32768,1,-32768,1,-32768,1
37,34,1,32,1,-2,1,-33,1,18,1,15,1,-32768,1,-32768,1,-32768,1,-32768,1,-32768,1,-32768,1
38,33,1,32,1,-1,1,-32,1,17,1,16,1,-32768,1,-32768,1,-32768,1,-32768,1,-32768,1,-32768,1
39,33,1,33,1,0,1,-33,1,17,1,17,1,-32768,1,-32768,1,-32768,1,-32768,1,-32768,1,-32768,1
40,34,1,33,1,-1,1,-33,1,18,1,16,1,-32768,1,-32768,1,-32768,1,-32768,1,-32768,1,-32768,1
41,34,1,33,1,-1,1,-33,1,18,1,16,1,-32768,1,-32768,1,-32768,1,-32768,1,-32768,1,-32768,1
42,35,1,32,1,-3,1,-33,1,19,1,15,1,-32768,1,-32768,1,-32768,1,-32768,1,-32768,1,-32768,1
43,36,1,32,1,-4,1,-34,1,20,1,14,1,-32768,1,-32768,1,-32768,1,-32768,1,-32768,1,-32768,1
44,37,1,32,1,-5,1,-34,1,21,1,14,1,-32768,1,-32768,1,-32768,1,-32768,1,-32768,1,-32768,1
45,37,1,31,1,-6,1,-34,1,22,1,13,1,-32768,1,-32768,1,-32768,1,-32768,1,-32768,1,-32768,1
46,36,1,31,1,-5,1,-33,1,21,1,13,1,-32768,1,-32768,1,-32768,1,-32768,1,-32768,1,-32768,1
47,35,1,31,1,-4,1,-33,1,20,1,14,1,-32768,1,-32768,1,-32768,1,-32768,1,-32768,1,-32768,1
48,34,1,31,1,-3,1,-32,1,19,1,14,1,-32768,1,-32768,1,-32768,1,-32768,1,-32768,1,-32768,1
49,34,1,32,1,-2,1,-33,1,18,1,15,1,-32768,1,-32768,1,-32768,1,-32768,1,-32768,1,-32768,1
50,35,1,32,1,-3,1,-33,1,19,1,15,1,-32768,1,-32768,1,-32768,1,-32768,1,-32768,1,-32768,1
51,36,1,33,1,-3,1,-34,1,20,1,15,1,-32768,1,-32768,1,-32768,1,-32768,1,-32768,1,-32768,1
52,37,1,32,1,-5,1,-34,1,21,1,14,1,-32768,1,-32768,1,-32768,1,-32768,1,-32768,1,-32768,1
53,38,1,31,1,-7,1,-34,1,23,1,12,1,-32768,1,-32768,1,-32768,1,-32768,1,-32768,1,-32768,1
54,38,1,31,1,-7,1,-34,1,23,1,12,1,-32768,1,-32768,1,-32768,1,-32768,1,-32768,1,-32768,1
55,39,1,31,1,-8,1,-35,1,24,1,12,1,-32768,1,-32768,1,-32768,1,-32768,1,-32768,1,-32768,1
56,37,1,31,1,-6,1,-34,1,22,1,13,1,-32768,1,-32768,1,-32768,1,-32768,1,-32768,1,-32768,1
57,36,1,31,1,-5,1,-33,1,21,1,13,1,-32768,1,-32768,1,-32768,1,-32768,1,-32768,1,-32768,1
58,35,1,31,1,-4,1,-33,1,20,1,14,1,-32768,1,-32768,1,-32768,1,-32768,1,-32768,1,-32768,1
59,36,1,31,1,-5,1,-33,1,21,1,13,1,-32768,1,-32768,1,-32768,1,-32768,1,-32768,1,-32768,1
60,35,1,31,1,-4,1,-33,1,20,1,14,1,-32768,1,-32768,1,-32768,1,-32768,1,-32768,1,-32768,1
61,36,1,31,1,-5,1,-33,1,21,1,13,1,-32768,1,-32768,1,-32768,1,-32768,1,-32768,1,-32768,1
62,37,1,31,1,-6,1,-34,1,22,1,13,1,-32768,1,-32768,1,-32768,1,-32768,1,-32768,1,-32768,1
63,38,1,30,1,-8,1,-34,1,23,1,11,1,-32768,1,-32768,1,-32768,1,-32768,1,-32768,1,-32768,1
64,38,1,30,1,-8,1,-34,1,23,1,11,1,-32768,1,-32768,1,-32768,1,-32768,1,-32768,1,-32768,1
65,38,1,30,1,-8,1,-34,1,23,1,11,1,-32768,1,-32768,1,-32768,1,-32768,1,-32768,1,-32768,1
66,37,1,30,1,-7,1,-33,1,22,1,12,1,-32768,1,-32768,1,-32768,1,-32768,1,-32768,1,-32768,1
67,36,1,30,1,-6,1,-33,1,21,1,12,1,-32768,1,-32768,1,-32768,1,-32768,1,-32768,1,-32768,1
68,35,1,30,1,-5,1,-32,1,20,1,13,1,-32768,1,-32768,1,-32768,1,-32768,1,-32768,1,-32768,1
69,35,1,30,1,-5,1,-32,1,20,1,13,1,-32768,1,-32768,1,-32768,1,-32768,1,-32768,1,-32768,1
70,35,1,31,1,-4,1,-33,1,20,1,14,1,-32768,1,-32768,1,-32768,1,-32768,1,-32768,1,-32768,1
71,35,1,31,1,-4,1,-33,1,20,1,14,1,-32768,1,-32768,1,-32768,1,-32768,1,-32768,1,-32768,1
72,36,1,31,1,-5,1,-33,1,21,1,13,1,-32768,1,-32768,1,-32768,1,-32768,1,-32768,1,-32768,1
73,36,1,31,1,-5,1,-33,1,21,1,13,1,-32768,1,-32768,1,-32768,1,-32768,1,-32768,1,-32768,1
74,36,1,30,1,-6,1,-33,1,21,1,12,1,-32768,1,-32768,1,-32768,1,-32768,1,-32768,1,-32768,1
75,37,1,30,1,-7,1,-33,1,22,1,12,1,-32768,1,-32768,1,-32768,1,-32768,1,-32768,1,-32768,1
76,37,1,30,1,-7,1,-33,1,22,1,12,1,-32768,1,-32768,1,-32768,1,-32768,1,-32768,1,-32768,1
77,36,1,30,1,-6,1,-33,1,21,1,12,1,-32768,1,-32768,1,-32768,1,-32768,1,-32768,1,-32768,1
78,36,1,29,1,-7,1,-32,1,22,1,11,1,-32768,1,-32768,1,-32768,1,-32768,1,-32768,1,-32768,1
79,36,1,29,1,-7,1,-32,1,22,1,11,1,-32768,1,-32768,1,-32768,1,-32768,1,-32768,1,-32768,1
80,36,1,29,1,-7,1,-32,1,22,1,11,1,-32768,1,-32768,1,-32768,1,-32768,1,-32768,1,-32768,1
81,36,1,29,1,-7,1,-32,1,22,1,11,1,-32768,1,-32768,1,-32768,1,-32768,1,-32768,1,-32768,1
82,37,1,29,1,-8,1,-33,1,23,1,11,1,-32768,1,-32768,1,-32768,1,-32768,1,-32768,1,-32768,1
83,37,1,29,1,-8,1,-33,1,23,1,11,1,-32768,1,-32768,1,-32768,1,-32768,1,-32768,1,-32768,1
84,37,1,30,1,-7,1,-33,1,22,1,12,1,-32768,1,-32768,1,-32768,1,-32768,1,-32768,1,-32768,1
85,37,1,30,1,-7,1,-33,1,22,1,12,1,-32768,1,-32768,1,-32768,1,-32768,1,-32768,1,-32768,1
86,36,1,30,1,-6,1,-33,1,21,1,12,1,-32768,1,-32768,1,-32768,1,-32768,1,-32768,1,-32768,1
87,36,1,30,1,-6,1,-33,1,21,1,12,1,-32768,1,-32768,1,-32768,1,-32768,1,-32768,1,-32768,1
88,37,1,30,1,-7,1,-33,1,22,1,12,1,-32768,1,-32768,1,-32768,1,-32768,1,-32768,1,-32768,1
89,38,1,30,1,-8,1,-34,1,23,1,11,1,-32768,1,-32768,1,-32768,1,-32768,1,-32768,1,-32768,1
90,38,1,30,1,-8,1,-34,1,23,1,11,1,-32768,1,-32768,1,-32768,1,-32768,1,-32768,1,-32768,1
91,39,1,30,1,-9,1,-34,1,24,1,11,1,-32768,1,-32768,1,-32768,1,-32768,1,-32768,1,-32768,1
92,40,1,31,1,-9,1,-35,1,25,1,11,1,-32768,1,-32768,1,-32768,1,-32768,1,-32768,1,-32768,1
93,41,1,32,1,-9,1,-36,1,25,1,12,1,-32768,1,-32768,1,-32768,1,-32768,1,-32768,1,-32768,1
94,42,1,32,1,-10,1,-37,1,26,1,11,1,-32768,1,-32768,1,-32768,1,-32768,1,-32768,1,-32768,1
95,42,1,33,1,-9,1,-37,1,26,1,12,1,-32768,1,-32768,1,-32768,1,-32768,1,-32768,1,-32768,1
96,41,1,33,1,-8,1,-37,1,25,1,13,1,-32768,1,-32768,1,-32768,1,-32768,1,-32768,1,-32768,1
97,41,1,33,1,-8,1,-37,1,25,1,13,1,-32768,1,-32768,1,-32768,1,-32768,1,-32768,1,-32768,1
98,40,1,33,1,-7,1,-36,1,24,1,13,1,-32768,1,-32768,1,-32768,1,-32768,1,-32768,1,-32768,1
99,40,1,34,1,-6,1,-37,1,23,1,14,1,-32768,1,-32768,1,-32768,1,-32768,1,-32768,1,-32768,1
100,39,1,34,1,-5,1,-36,1,22,1,15,1,-32768,1,-32768,1,-32768,1,-32768,1,-32768,1,-32768,1
101,39,1,33,1,-6,1,-36,1,23,1,14,1,-32768,1,-32768,1,-32768,1,-32768,1,-32768,1,-32768,1
102,40,1,33,1,-7,1,-36,1,24,1,13,1,-32768,1,-32768,1,-32768,1,-32768,1,-32768,1,-32768,1
103,41,1,34,1,-7,1,-37,1,24,1,14,1,-32768,1,-32768,1,-32768,1,-32768,1,-32768,1,-32768,1
104,41,1,34,1,-7,1,-37,1,24,1,14,1,-32768,1,-32768,1,-32768,1,-32768,1,-32768,1,-32768,1
105,42,1,34,1,-8,1,-38,1,25,1,13,1,-32768,1,-32768,1,-32768,1,-32768,1,-32768,1,-32768,1
106,42,1,35,1,-7,1,-38,1,25,1,14,1,-32768,1,-32768,1,-32768,1,-32768,1,-32768,1,-32768,1
107,42,1,35,1,-7,1,-38,1,25,1,14,1,-32768,1,-32768,1,-32768,1,-32768,1,-32768,1,-32768,1
108,42,1,35,1,-7,1,-38,1,25,1,14,1,-32768,1,-32768,1,-32768,1,-32768,1,-32768,1,-32768,1
109,42,1,35,1,-7,1,-38,1,25,1,14,1,-32768,1,-32768,1,-32768,1,-32768,1,-32768,1,-32768,1
110,42,1,35,1,-7,1,-38,1,25,1,14,1,-32768,1,-32768,1,-32768,1,-32768,1,-32768,1,-32768,1
111,43,1,35,1,-8,1,-39,1,26,1,14,1,-32768,1,-32768,1,-32768,1,-32768,1,-32768,1,-32768,1
112,44,1,35,1,-9,1,-39,1,27,1,13,1,-32768,1,-32768,1,-32768,1,-32768,1,-32768,1,-32768,1
113,44,1,35,1,-9,1,-39,1,27,1,13,1,-32768,1,-32768,1,-32768,1,-32768,1,-32768,1,-32768,1
114,44,1,36,1,-8,1,-40,1,26,1,14,1,-32768,1,-32768,1,-32768,1,-32768,1,-32768,1,-32768,1
115,44,1,36,1,-8,1,-40,1,26,1,14,1,-32768,1,-32768,1,-32768,1,-32768,1,-32768,1,-32768,1
116,43,1,36,1,-7,1,-39,1,25,1,15,1,-32768,1,-32768,1,-32768,1,-32768,1,-32768,1,-32768,1
117,43,1,35,1,-8,1,-39,1,26,1,14,1,-32768,1,-32768,1,-32768,1,-32768,1,-32768,1,-32768,1
118,42,1,35,1,-7,1,-38,1,25,1,14,1,-32768,1,-32768,1,-32768,1,-32768,1,-32768,1,-32768,1
119,42,1,36,1,-6,1,-39,1,24,1,15,1,-32768,1,-32768,1,-32768,1,-32768,1,-32768,1,-32768,1
120,42,1,36,1,-6,1,-39,1,24,1,15,1,-32768,1,-32768,1,-32768,1,-32768,1,-32768,1,-32768,1
121,43,1,36,1,-7,1,-39,1,25,1,15,1,-32768,1,-32768,1,-32768,1,-32768,1,-32768,1,-32768,1
122,44,1,36,1,-8,1,-40,1,26,1,14,1,-32768,1,-32768,1,-32768,1,-32768,1,-32768,1,-32768,1
123,46,1,37,1,-9,1,-41,1,28,1,14,1,-32768,1,-32768,1,-32768,1,-32768,1,-32768,1,-32768,1
124,47,1,37,1,-10,1,-42,1,29,1,14,1,-32768,1,-32768,1,-32768,1,-32768,1,-32768,1,-32768,1
125,47,1,37,1,-10,1,-42,1,29,1,14,1,-32768,1,-32768,1,-32768,1,-32768,1,-32768,1,-32768,1
126,47,1,38,1,-9,1,-42,1,28,1,15,1,-32768,1,-32768,1,-32768,1,-32768,1,-32768,1,-32768,1
127,46,1,38,1,-8,1,-42,1,27,1,15,1,-32768,1,-32768,1,-32768,1,-32768,1,-32768,1,-32768,1
128,46,1,38,1,-8,1,-42,1,27,1,15,1,-32768,1,-32768,1,-32768,1,-32768,1,-32768,1,-32768,1
129,46,1,39,1,-7,1,-42,1,27,1,16,1,-32768,1,-32768,1,-32768,1,-32768,1,-32768,1,-32768,1
130,45,1,39,1,-6,1,-42,1,26,1,17,1,-32768,1,-32768,1,-32768,1,-32768,1,-32768,1,-32768,1
131,45,1,40,1,-5,1,-42,1,25,1,18,1,-32768,1,-32768,1,-32768,1,-32768,1,-32768,1,-32768,1
132,46,1,40,1,-6,1,-43,1,26,1,17,1,-32768,1,-32768,1,-32768,1,-32768,1,-32768,1,-32768,1
133,46,1,41,1,-5,1,-43,1,26,1,18,1,-32768,1,-32768,1,-32768,1,-32768,1,-32768,1,-32768,1
134,45,1,41,1,-4,1,-43,1,25,1,19,1,-32768,1,-32768,1,-32768,1,-32768,1,-32768,1,-32768,1
135,45,1,41,1,-4,1,-43,1,25,1,19,1,-32768,1,-32768,1,-32768,1,-32768,1,-32768,1,-32768,1
136,45,1,41,1,-4,1,-43,1,25,1,19,1,-32768,1,-32768,1,-32768,1,-32768,1,-32768,1,-32768,1
137,45,1,41,1,-4,1,-43,1,25,1,19,1,-32768,1,-32768,1,-32768,1,-32768,1,-32768,1,-32768,1
138,46,1,40,1,-6,1,-43,1,26,1,17,1,-32768,1,-32768,1,-32768,1,-32768,1,-32768,1,-32768,1
139,46,1,41,1,-5,1,-43,1,26,1,18,1,-32768,1,-32768,1,-32768,1,-32768,1,-32768,1,-32768,1
140,45,1,41,1,-4,1,-43,1,25,1,19,1,-32768,1,-32768,1,-32768,1,-32768,1,-32768,1,-32768,1
141,46,1,41,1,-5,1,-43,1,26,1,18,1,-32768,1,-32768,1,-32768,1,-32768,1,-32768,1,-32768,1
142,47,1,42,1,-5,1,-44,1,26,1,19,1,-32768,1,-32768,1,-32768,1,-32768,1,-32768,1,-32768,1
143,48,1,42,1,-6,1,-45,1,27,1,18,1,-32768,1,-32768,1,-32768,1,-32768,1,-32768,1,-32768,1
144,48,1,42,1,-6,1,-45,1,27,1,18,1,-32768,1,-32768,1,-32768,1,-32768,1,-32768,1,-32768,1
145,49,1,42,1,-7,1,-45,1,28,1,18,1,-32768,1,-32768,1,-32768,1,-32768,1,-32768,1,-32768,1
146,49,1,42,1,-7,1,-45,1,28,1,18,1,-32768,1,-32768,1,-32768,1,-32768,1,-32768,1,-32768,1
147,48,1,42,1,-6,1,-45,1,27,1,18,1,-32768,1,-32768,1,-32768,1,-32768,1,-32768,1,-32768,1
148,47,1,42,1,-5,1,-44,1,26,1,19,1,-32768,1,-32768,1,-32768,1,-32768,1,-32768,1,-32768,1
149,47,1,42,1,-5,1,-44,1,26,1,19,1,-32768,1,-32768,1,-32768,1,-32768,1,-32768,1,-32768,1
150,47,1,43,1,-4,1,-45,1,26,1,20,1,-32768,1,-32768,1,-32768,1,-32768,1,-32768,1,-32768,1
151,47,1,43,1,-4,1,-45,1,26,1,20,1,-32768,1,-32768,1,-32768,1,-32768,1,-32768,1,-32768,1
152,47,1,43,1,-4,1,-45,1,26,1,20,1,-32768,1,-32768,1,-32768,1,-32768,1,-32768,1,-32768,1
153,47,1,43,1,-4,1,-45,1,26,1,20,1,-32768,1,-32768,1,-32768,1,-32768,1,-32768,1,-32768,1
154,47,1,43,1,-4,1,-45,1,26,1,20,1,-32768,1,-32768,1,-32768,1,-32768,1,-32768,1,-32768,1
155,48,1,43,1,-5,1,-45,1,27,1,19,1,-32768,1,-32768,1,-32768,1,-32768,1,-32768,1,-32768,1
156,47,1,43,1,-4,1,-45,1,26,1,20,1,-32768,1,-32768,1,-32768,1,-32768,1,-32768,1,-32768,1
157,46,1,43,1,-3,1,-44,1,25,1,20,1,-32768,1,-32768,1,-32768,1,-32768,1,-32768,1,-32768,1
158,46,1,44,1,-2,1,-45,1,24,1,21,1,-32768,1,-32768,1,-32768,1,-32768,1,-32768,1,-32768,1
159,46,1,44,1,-2,1,-45,1,24,1,21,1,-32768,1,-32768,1,-32768,1,-32768,1,-32768,1,-32768,1
160,46,1,44,1,-2,1,-45,1,24,1,21,1,-32768,1,-32768,1,-32768,1,-32768,1,-32768,1,-32768,1
161,46,1,44,1,-2,1,-45,1,24,1,21,1,-32768,1,-32768,1,-32768,1,-32768,1,-32768,1,-32768,1
162,47,1,44,1,-3,1,-45,1,25,1,21,1,-32768,1,-32768,1,-32768,1,-32768,1,-32768,1,-32768,1
163,47,1,44,1,-3,1,-45,1,25,1,21,1,-32768,1,-32768,1,-32768,1,-32768,1,-32768,1,-32768,1
164,47,1,44,1,-3,1,-45,1,25,1,21,1,-32768,1,-32768,1,-32768,1,-32768,1,-32768,1,-32768,1
165,47,1,43,1,-4,1,-45,1,26,1,20,1,-32768,1,-32768,1,-32768,1,-32768,1,-32768,1,-32768,1
166,46,1,42,1,-4,1,-44,1,25,1,19,1,-32768,1,-32768,1,-32768,1,-32768,1,-32768,1,-32768,1
167,45,1,41,1,-4,1,-43,1,25,1,19,1,-32768,1,-32768,1,-32768,1,-32768,1,-32768,1,-32768,1
168,43,1,41,1,-2,1,-42,1,23,1,20,1,-32768,1,-32768,1,-32768,1,-32768,1,-32768,1,-32768,1
169,41,1,39,1,-2,1,-40,1,22,1,19,1,-32768,1,-32768,1,-32768,1,-32768,1,-32768,1,-32768,1
170,39,1,38,1,-1,1,-38,1,20,1,19,1,-32768,1,-32768,1,-32768,1,-32768,1,-32768,1,-32768,1
171,39,1,37,1,-2,1,-38,1,21,1,18,1,-32768,1,-32768,1,-32768,1,-32768,1,-32768,1,-32768,1
172,38,1,35,1,-3,1,-36,1,21,1,16,1,-32768,1,-32768,1,-32768,1,-32768,1,-32768,1,-32768,1
173,37,1,34,1,-3,1,-35,1,20,1,16,1,-32768,1,-32768,1,-32768,1,-32768,1,-32768,1,-32768,1
174,36,1,32,1,-4,1,-34,1,20,1,14,1,-32768,1,-32768,1,-32768,1,-32768,1,-32768,1,-32768,1
175,36,1,31,1,-5,1,-33,1,21,1,13,1,-32768,1,-32768,1,-32768,1,-32768,1,-32768,1,-32768,1
176,34,1,30,1,-4,1,-32,1,19,1,13,1,-32768,1,-32768,1,-32768,1,-32768,1,-32768,1,-32768,1
177,33,1,29,1,-4,1,-31,1,19,1,13,1,-32768,1,-32768,1,-32768,1,-32768,1,-32768,1,-32768,1
178,31,1,28,1,-3,1,-29,1,17,1,13,1,-32768,1,-32768,1,-32768,1,-32768,1,-32768,1,-32768,1
179,30,1,27,1,-3,1,-28,1,17,1,12,1,-32768,1,-32768,1,-32768,1,-32768,1,-32768,1,-32768,1
180,29,1,26,1,-3,1,-27,1,16,1,12,1,-32768,1,-32768,1,-32768,1,-32768,1,-32768,1,-32768,1
181,29,1,25,1,-4,1,-27,1,17,1,11,1,-32768,1,-32768,1,-32768,1,-32768,1,-32768,1,-32768,1
182,28,1,24,1,-4,1,-26,1,16,1,10,1,-32768,1,-32768,1,-32768,1,-32768,1,-32768,1,-32768,1
183,27,1,23,1,-4,1,-25,1,16,1,10,1,-32768,1,-32768,1,-32768,1,-32768,1,-32768,1,-32768,1
184,26,1,22,1,-4,1,-24,1,15,1,9,1,-32768,1,-32768,1,-32768,1,-32768,1,-32768,1,-32768,1
185,25,1,21,1,-4,1,-23,1,15,1,9,1,-32768,1,-32768,1,-32768,1,-32768,1,-32768,1,-32768,1
186,24,1,20,1,-4,1,-22,1,14,1,8,1,-32768,1,-32768,1,-32768,1,-32768,1,-32768,1,-32768,1
187,22,1,19,1,-3,1,-20,1,13,1,8,1,-32768,1,-32768,1,-32768,1,-32768,1,-32768,1,-32768,1
188,20,1,19,1,-1,1,-19,1,11,1,9,1,-32768,1,-32768,1,-32768,1,-32768,1,-32768,1,-32768,1
189,19,1,20,1,1,1,-19,1,9,1,11,1,-32768,1,-32768,1,-32768,1,-32768,1,-32768,1,-32768,1
190,19,1,21,1,2,1,-20,1,9,1,12,1,-32768,1,-32768,1,-32768,1,-32768,1,-32768,1,-32768,1
191,18,1,22,1,4,1,-20,1,7,1,13,1,-32768,1,-32768,1,-32768,1,-32768,1,-32768,1,-32768,1
192,17,1,23,1,6,1,-20,1,6,1,15,1,-32768,1,-32768,1,-32768,1,-32768,1,-32768,1,-32768,1
193,17,1,24,1,7,1,-20,1,5,1,16,1,-32768,1,-32768,1,-32768,1,-32768,1,-32768,1,-32768,1
194,17,1,25,1,8,1,-21,1,5,1,17,1,-32768,1,-32768,1,-32768,1,-32768,1,-32768,1,-32768,1
195,17,1,27,1,10,1,-22,1,4,1,19,1,-32768,1,-32768,1,-32768,1,-32768,1,-32768,1,-32768,1
196,16,1,28,1,12,1,-22,1,2,1,20,1,-32768,1,-32768,1,-32768,1,-32768,1,-32768,1,-32768,1
197,15,1,30,1,15,1,-22,1,0,1,23,1,-32768,1,-32768,1,-32768,1,-32768,1,-32768,1,-32768,1
198,13,1,31,1,18,1,-22,1,-2,1,25,1,-32768,1,-32768,1,-32768,1,-32768,1,-32768,1,-32768,1
199,13,1,32,1,19,1,-22,1,-3,1,26,1,-32768,1,-32768,1,-32768,1,-32768,1,-32768,1,-32768,1
200,12,1,33,1,21,1,-22,1,-4,1,27,1,-32768,1,-32768,1,-32768,1,-32768,1,-32768,1,-32768,1
201,12,1,33,1,21,1,-22,1,-4,1,27,1,-32768,1,-32768,1,-32768,1,-32768,1,-32768,1,-32768,1
202,12,1,32,1,20,1,-22,1,-4,1,26,1,-32768,1,-32768,1,-32768,1,-32768,1,-32768,1,-32768,1
203,12,1,32,1,20,1,-22,1,-4,1,26,1,-32768,1,-32768,1,-32768,1,-32768,1,-32768,1,-32768,1
204,11,1,33,1,22,1,-22,1,-5,1,28,1,-32768,1,-32768,1,-32768,1,-32768,1,-32768,1,-32768,1
205,11,1,33,1,22,1,-22,1,-5,1,28,1,-32768,1,-32768,1,-32768,1,-32768,1,-32768,1,-32768,1
206,11,1,34,1,23,1,-22,1,-6,1,29,1,-32768,1,-32768,1,-32768,1,-32768,1,-32768,1,-32768,1
207,10,1,34,1,24,1,-22,1,-7,1,29,1,-32768,1,-32768,1,-32768,1,-32768,1,-32768,1,-32768,1
208,10,1,34,1,24,1,-22,1,-7,1,29,1,-32768,1,-32768,1,-32768,1,-32768,1,-32768,1,-32768,1
209,9,1,35,1,26,1,-22,1,-8,1,31,1,-32768,1,-32768,1,-32768,1,-32768,1,-32768,1,-32768,1
210,8,1,35,1,27,1,-21,1,-9,1,31,1,-32768,1,-32768,1,-32768,1,-32768,1,-32768,1,-32768,1
211,9,1,34,1,25,1,-21,1,-8,1,30,1,-32768,1,-32768,1,-32768,1,-32768,1,-32768,1,-32768,1
212,9,1,34,1,25,1,-21,1,-8,1,30,1,-32768,1,-32768,1,-32768,1,-32768,1,-32768,1,-32768,1
213,9,1,34,1,25,1,-21,1,-8,1,30,1,-32768,1,-32768,1,-32768,1,-32768,1,-32768,1,-32768,1
214,8,1,34,1,26,1,-21,1,-9,1,30,1,-32768,1,-32768,1,-32768,1,-32768,1,-32768,1,-32768,1
215,8,1,34,1,26,1,-21,1,-9,1,30,1,-32768,1,-32768,1,-32768,1,-32768,1,-32768,1,-32768,1
216,7,1,34,1,27,1,-20,1,-10,1,31,1,-32768,1,-32768,1,-32768,1,-32768,1,-32768,1,-32768,1
217,7,1,34,1,27,1,-20,1,-10,1,31,1,-32768,1,-32768,1,-32768,1,-32768,1,-32768,1,-32768,1
218,6,1,34,1,28,1,-20,1,-11,1,31,1,-32768,1,-32768,1,-32768,1,-32768,1,-32768,1,-32768,1
219,5,1,34,1,29,1,-19,1,-12,1,32,1,-32768,1,-32768,1,-32768,1,-32768,1,-32768,1,-32768,1
220,5,1,34,1,29,1,-19,1,-12,1,32,1,-32768,1,-32768,1,-32768,1,-32768,1,-32768,1,-32768,1
221,5,1,34,1,29,1,-19,1,-12,1,32,1,-32768,1,-32768,1,-32768,1,-32768,1,-32768,1,-32768,1
222,6,1,34,1,28,1,-20,1,-11,1,31,1,-32768,1,-32768,1,-32768,1,-32768,1,-32768,1,-32768,1
223,6,1,34,1,28,1,-20,1,-11,1,31,1,-32768,1,-32768,1,-32768,1,-32768,1,-32768,1,-32768,1
224,5,1,34,1,29,1,-19,1,-12,1,32,1,-32768,1,-32768,1,-32768,1,-32768,1,-32768,1,-32768,1
225,6,1,34,1,28,1,-20,1,-11,1,31,1,-32768,1,-32768,1,-32768,1,-32768,1,-32768,1,-32768,1
226,5,1,34,1,29,1,-19,1,-12,1,32,1,-32768,1,-32768,1,-32768,1,-32768,1,-32768,1,-32768,1
227,4,1,34,1,30,1,-19,1,-13,1,32,1,-32768,1,-32768,1,-32768,1,-32768,1,-32768,1,-32768,1
228,4,1,34,1,30,1,-19,1,-13,1,32,1,-32768,1,-32768,1,-32768,1,-32768,1,-32768,1,-32768,1
229,3,1,34,1,31,1,-18,1,-14,1,33,1,-32768,1,-32768,1,-32768,1,-32768,1,-32768,1,-32768,1
230,3,1,34,1,31,1,-18,1,-14,1,33,1,-32768,1,-32768,1,-32768,1,-32768,1,-32768,1,-32768,1
231,4,1,34,1,30,1,-19,1,-13,1,32,1,-32768,1,-32768,1,-32768,1,-32768,1,-32768,1,-32768,1
232,4,1,34,1,30,1,-19,1,-13,1,32,1,-32768,1,-32768,1,-32768,1,-32768,1,-32768,1,-32768,1
233,3,1,33,1,30,1,-18,1,-13,1,32,1,-32768,1,-32768,1,-32768,1,-32768,1,-32768,1,-32768,1
234,3,1,33,1,30,1,-18,1,-13,1,32,1,-32768,1,-32768,1,-32768,1,-32768,1,-32768,1,-32768,1
235,3,1,33,1,30,1,-18,1,-13,1,32,1,-32768,1,-32768,1,-32768,1,-32768,1,-32768,1,-32768,1
236,2,1,33,1,31,1,-17,1,-14,1,32,1,-32768,1,-32768,1,-32768,1,-32768,1,-32768,1,-32768,1
237,2,1,32,1,30,1,-17,1,-14,1,31,1,-32768,1,-32768,1,-32768,1,-32768,1,-32768,1,-32768,1
238,2,1,32,1,30,1,-17,1,-14,1,31,1,-32768,1,-32768,1,-32768,1,-32768,1,-32768,1,-32768,1
239,1,1,32,1,31,1,-16,1,-15,1,32,1,-32768,1,-32768,1,-32768,1,-32768,1,-32768,1,-32768,1
240,0,1,32,1,32,1,-16,1,-16,1,32,1,-32768,1,-32768,1,-32768,1,-32768,1,-32768,1,-32768,1
241,0,1,32,1,32,1,-16,1,-16,1,32,1,-32768,1,-32768,1,-32768,1,-32768,1,-32768,1,-32768,1
242,0,1,33,1,33,1,-16,1,-16,1,33,1,-32768,1,-32768,1,-32768,1,-32768,1,-32768,1,-32768,1
243,0,1,33,1,33,1,-16,1,-16,1,33,1,-32768,1,-32768,1,-32768,1,-32768,1,-32768,1,-32768,1
244,0,1,33,1,33,1,-16,1,-16,1,33,1,-32768,1,-32768,1,-32768,1,-32768,1,-32768,1,-32768,1
245,0,1,33,1,33,1,-16,1,-16,1,33,1,-32768,1,-32768,1,-32768,1,-32768,1,-32768,1,-32768,1
246,0,1,32,1,32,1,-16,1,-16,1,32,1,-32768,1,-32768,1,-32768,1,-32768,1,-32768,1,-32768,1
247,-1,1,32,1,33,1,-15,1,-17,1,32,1,-32768,1,-32768,1,-32768,1,-32768,1,-32768,1,-32768,1
248,-1,1,32,1,33,1,-15,1,-17,1,32,1,-32768,1,-32768,1,-32768,1,-32768,1,-32768,1,-32768,1
249,0,1,32,1,32,1,-16,1,-16,1,32,1,-32768,1,-32768,1,-32768,1,-32768,1,-32768,1,-32768,1
250,0,1,33,1,33,1,-16,1,-16,1,33,1,-32768,1,-32768,1,-32768,1,-32768,1,-32768,1,-32768,1
251,-1,1,33,1,34,1,-16,1,-17,1,33,1,-32768,1,-32768,1,-32768,1,-32768,1,-32768,1,-32768,1
252,-1,1,33,1,34,1,-16,1,-17,1,33,1,-32768,1,-32768,1,-32768,1,-32768,1,-32768,1,-32768,1
253,-2,1,32,1,34,1,-15,1,-18,1,33,1,-32768,1,-32768,1,-32768,1,-32768,1,-32768,1,-32768,1
254,-2,1,32,1,34,1,-15,1,-18,1,33,1,-32768,1,-32768,1,-32768,1,-32768,1,-32768,1,-32768,1
255,-2,1,32,1,34,1,-15,1,-18,1,33,1,-32768,1,-32768,1,-32768,1,-32768,1,-32768,1,-32768,1
256,-2,1,32,1,34,1,-15,1,-18,1,33,1,-32768,1,-32768,1,-32768,1,-32768,1,-32768,1,-32768,1
257,-2,1,32,1,34,1,-15,1,-18,1,33,1,-32768,1,-32768,1,-32768,1,-32768,1,-32768,1,-32768,1
258,-2,1,33,1,35,1,-15,1,-18,1,34,1,-32768,1,-32768,1,-32768,1,-32768,1,-32768,1,-32768,1
259,-2,1,33,1,35,1,-15,1,-18,1,34,1,-32768,1,-32768,1,-32768,1,-32768,1,-32768,1,-32768,1
260,-3,1,33,1,36,1,-15,1,-19,1,34,1,-32768,1,-32768,1,-32768,1,-32768,1,-32768,1,-32768,1
261,-2,1,33,1,35,1,-15,1,-18,1,34,1,-32768,1,-32768,1,-32768,1,-32768,1,-32768,1,-32768,1
262,-2,1,33,1,35,1,-15,1,-18,1,34,1,-32768,1,-32768,1,-32768,1,-32768,1,-32768,1,-32768,1
263,-2,1,33,1,35,1,-15,1,-18,1,34,1,-32768,1,-32768,1,-32768,1,-32768,1,-32768,1,-32768,1
264,-2,1,33,1,35,1,-15,1,-18,1,34,1,-32768,1,-32768,1,-32768,1,-32768,1,-32768,1,-32768,1
265,-1,1,33,1,34,1,-16,1,-17,1,33,1,-32768,1,-32768,1,-32768,1,-32768,1,-32768,1,-32768,1
266,-1,1,33,1,34,1,-16,1,-17,1,33,1,-32768,1,-32768,1,-32768,1,-32768,1,-32768,1,-32768,1
267,-1,1,33,1,34,1,-16,1,-17,1,33,1,-32768,1,-32768,1,-32768,1,-32768,1,-32768,1,-32768,1
268,-2,1,33,1,35,1,-15,1,-18,1,34,1,-32768,1,-32768,1,-32768,1,-32768,1,-32768,1,-32768,1
269,-3,1,33,1,36,1,-15,1,-19,1,34,1,-32768,1,-32768,1,-32768,1,-32768,1,-32768,1,-32768,1
270,-3,1,33,1,36,1,-15,1,-19,1,34,1,-32768,1,-32768,1,-32768,1,-32768,1,-32768,1,-32768,1
271,-2,1,33,1,35,1,-15,1,-18,1,34,1,-32768,1,-32768,1,-32768,1,-32768,1,-32768,1,-32768,1
272,-1,1,33,1,34,1,-16,1,-17,1,33,1,-32768,1,-32768,1,-32768,1,-32768,1,-32768,1,-32768,1
273,-1,1,33,1,34,1,-16,1,-17,1,33,1,-32768,1,-32768,1,-32768,1,-32768,1,-32768,1,-32768,1
274,0,1,33,1,33,1,-16,1,-16,1,33,1,-32768,1,-32768,1,-32768,1,-32768,1,-32768,1,-32768,1
275,0,1,33,1,33,1,-16,1,-16,1,33,1,-32768,1,-32768,1,-32768,1,-32768,1,-32768,1,-32768,1
276,0,1,32,1,32,1,-16,1,-16,1,32,1,-32768,1,-32768,1,-32768,1,-32768,1,-32768,1,-32768,1
277,-1,1,32,1,33,1,-15,1,-17,1,32,1,-32768,1,-32768,1,-32768,1,-32768,1,-32768,1,-32768,1
278,-2,1,32,1,34,1,-15,1,-18,1,33,1,-32768,1,-32768,1,-32768,1,-32768,1,-32768,1,-32768,1
279,-2,1,32,1,34,1,-15,1,-18,1,33,1,-32768,1,-32768,1,-32768,1,-32768,1,-32768,1,-32768,1
280,-3,1,33,1,36,1,-15,1,-19,1,34,1,-32768,1,-32768,1,-32768,1,-32768,1,-32768,1,-32768,1
281,-2,1,32,1,34,1,-15,1,-18,1,33,1,-32768,1,-32768,1,-32768,1,-32768,1,-32768,1,-32768,1
282,-2,1,32,1,34,1,-15,1,-18,1,33,1,-32768,1,-32768,1,-32768,1,-32768,1,-32768,1,-32768,1
283,-1,1,33,1,34,1,-16,1,-17,1,33,1,-32768,1,-32768,1,-32768,1,-32768,1,-32768,1,-32768,1
284,0,1,33,1,33,1,-16,1,-16,1,33,1,-32768,1,-32768,1,-32768,1,-32768,1,-32768,1,-32768,1
285,0,1,32,1,32,1,-16,1,-16,1,32,1,-32768,1,-32768,1,-32768,1,-32768,1,-32768,1,-32768,1
286,0,1,32,1,32,1,-16,1,-16,1,32,1,-32768,1,-32768,1,-32768,1,-32768,1,-32768,1,-32768,1
287,-1,1,32,1,33,1,-15,1,-17,1,32,1,-32768,1,-32768,1,-32768,1,-32768,1,-32768,1,-32768,1
288,-1,1,32,1,33,1,-15,1,-17,1,32,1,-32768,1,-32768,1,-32768,1,-32768,1,-32768,1,-32768,1
289,-1,1,32,1,33,1,-15,1,-17,1,32,1,-32768,1,-32768,1,-32768,1,-32768,1,-32768,1,-32768,1
290,-1,1,32,1,33,1,-15,1,-17,1,32,1,-32768,1,-32768,1,-32768,1,-32768,1,-32768,1,-32768,1
291,0,1,32,1,32,1,-16,1,-16,1,32,1,-32768,1,-32768,1,-32768,1,-32768,1,-32768,1,-32768,1
292,0,1,31,1,31,1,-15,1,-15,1,31,1,-32768,1,-32768,1,-32768,1,-32768,1,-32768,1,-32768,1
293,0,1,31,1,31,1,-15,1,-15,1,31,1,-32768,1,-32768,1,-32768,1,-32768,1,-32768,1,-32768,1
294,0,1,31,1,31,1,-15,1,-15,1,31,1,-32768,1,-32768,1,-32768,1,-32768,1,-32768,1,-32768,1
295,0,1,30,1,30,1,-15,1,-15,1,30,1,-32768,1,-32768,1,-32768,1,-32768,1,-32768,1,-32768,1
296,-1,1,30,1,31,1,-14,1,-16,1,30,1,-32768,1,-32768,1,-32768,1,-32768,1,-32768,1,-32768,1
297,-2,1,30,1,32,1,-14,1,-17,1,31,1,-32768,1,-32768,1,-32768,1,-32768,1,-32768,1,-32768,1
298,-2,1,29,1,31,1,-13,1,-16,1,30,1,-32768,1,-32768,1,-32768,1,-32768,1,-32768,1,-32768,1
299,-2,1,29,1,31,1,-13,1,-16,1,30,1,-32768,1,-32768,1,-32768,1,-32768,1,-32768,1,-32768,1
300,-2,1,29,1,31,1,-13,1,-16,1,30,1,-32768,1,-32768,1,-32768,1,-32768,1,-32768,1,-32768,1
301,-1,1,29,1,30,1,-14,1,-15,1,29,1,-32768,1,-32768,1,-32768,1,-32768,1,-32768,1,-32768,1
302,0,1,28,1,28,1,-14,1,-14,1,28,1,-32768,1,-32768,1,-32768,1,-32768,1,-32768,1,-32768,1
303,1,1,28,1,27,1,-14,1,-13,1,28,1,-32768,1,-32768,1,-32768,1,-32768,1,-32768,1,-32768,1
304,1,1,28,1,27,1,-14,1,-13,1,28,1,-32768,1,-32768,1,-32768,1,-32768,1,-32768,1,-32768,1
305,1,1,28,1,27,1,-14,1,-13,1,28,1,-32768,1,-32768,1,-32768,1,-32768,1,-32768,1,-32768,1
306,0,1,28,1,28,1,-14,1,-14,1,28,1,-32768,1,-32768,1,-32768,1,-32768,1,-32768,1,-32768,1
307,-1,1,27,1,28,1,-13,1,-14,1,27,1,-32768,1,-32768,1,-32768,1,-32768,1,-32768,1,-32768,1
308,-1,1,27,1,28,1,-13,1,-14,1,27,1,-32768,1,-32768,1,-32768,1,-32768,1,-32768,1,-32768,1
309,-1,1,27,1,28,1,-13,1,-14,1,27,1,-32768,1,-32768,1,-32768,1,-32768,1,-32768,1,-32768,1
310,-2,1,27,1,29,1,-12,1,-15,1,28,1,-32768,1,-32768,1,-32768,1,-32768,1,-32768,1,-32768,1
311,-1,1,27,1,28,1,-13,1,-14,1,27,1,-32768,1,-32768,1,-32768,1,-32768,1,-32768,1,-32768,1
312,0,1,27,1,27,1,-13,1,-13,1,27,1,-32768,1,-32768,1,-32768,1,-32768,1,-32768,1,-32768,1
313,0,1,27,1,27,1,-13,1,-13,1,27,1,-32768,1,-32768,1,-32768,1,-32768,1,-32768,1,-32768,1
314,1,1,26,1,25,1,-13,1,-12,1,26,1,-32768,1,-32768,1,-32768,1,-32768,1,-32768,1,-32768,1
315,1,1,26,1,25,1,-13,1,-12,1,26,1,-32768,1,-32768,1,-32768,1,-32768,1,-32768,1,-32768,1
316,0,1,26,1,26,1,-13,1,-13,1,26,1,-32768,1,-32768,1,-32768,1,-32768,1,-32768,1,-32768,1
317,-1,1,25,1,26,1,-12,1,-13,1,25,1,-32768,1,-32768,1,-32768,1,-32768,1,-32768,1,-32768,1
318,-2,1,25,1,27,1,-11,1,-14,1,26,1,-32768,1,-32768,1,-32768,1,-32768,1,-32768,1,-32768,1
319,-1,1,25,1,26,1,-12,1,-13,1,25,1,-32768,1,-32768,1,-32768,1,-32768,1,-32768,1,-32768,1
320,-1,1,25,1,26,1,-12,1,-13,1,25,1,-32768,1,-32768,1,-32768,1,-32768,1,-32768,1,-32768,1
321,0,1,24,1,24,1,-12,1,-12,1,24,1,-32768,1,-32768,1,-32768,1,-32768,1,-32768,1,-32768,1
322,0,1,24,1,24,1,-12,1,-12,1,24,1,-32768,1,-32768,1,-32768,1,-32768,1,-32768,1,-32768,1
323,0,1,25,1,25,1,-12,1,-12,1,25,1,-32768,1,-32768,1,-32768,1,-32768,1,-32768,1,-32768,1
324,1,1,24,1,23,1,-12,1,-11,1,24,1,-32768,1,-32768,1,-32768,1,-32768,1,-32768,1,-32768,1
325,1,1,24,1,23,1,-12,1,-11,1,24,1,-32768,1,-32768,1,-32768,1,-32768,1,-32768,1,-32768,1
326,0,1,23,1,23,1,-11,1,-11,1,23,1,-32768,1,-32768,1,-32768,1,-32768,1,-32768,1,-32768,1
327,-1,1,23,1,24,1,-11,1,-12,1,23,1,-32768,1,-32768,1,-32768,1,-32768,1,-32768,1,-32768,1
328,-1,1,23,1,24,1,-11,1,-12,1,23,1,-32768,1,-32768,1,-32768,1,-32768,1,-32768,1,-32768,1
329,-2,1,23,1,25,1,-10,1,-13,1,24,1,-32768,1,-32768,1,-32768,1,-32768,1,-32768,1,-32768,1
330,-2,1,22,1,24,1,-10,1,-13,1,23,1,-32768,1,-32768,1,-32768,1,-32768,1,-32768,1,-32768,1
331,-2,1,22,1,24,1,-10,1,-13,1,23,1,-32768,1,-32768,1,-32768,1,-32768,1,-32768,1,-32768,1
332,-1,1,21,1,22,1,-10,1,-11,1,21,1,-32768,1,-32768,1,-32768,1,-32768,1,-32768,1,-32768,1
333,-1,1,21,1,22,1,-10,1,-11,1,21,1,-32768,1,-32768,1,-32768,1,-32768,1,-32768,1,-32768,1
334,-1,1,20,1,21,1,-9,1,-11,1,20,1,-32768,1,-32768,1,-32768,1,-32768,1,-32768,1,-32768,1
335,-1,1,20,1,21,1,-9,1,-11,1,20,1,-32768,1,-32768,1,-32768,1,-32768,1,-32768,1,-32768,1
336,0,1,20,1,20,1,-10,1,-10,1,20,1,-32768,1,-32768,1,-32768,1,-32768,1,-32768,1,-32768,1
337,0,1,20,1,20,1,-10,1,-10,1,20,1,-32768,1,-32768,1,-32768,1,-32768,1,-32768,1,-32768,1
338,-1,1,20,1,21,1,-9,1,-11,1,20,1,-32768,1,-32768,1,-32768,1,-32768,1,-32768,1,-32768,1
339,-2,1,20,1,22,1,-9,1,-12,1,21,1,-32768,1,-32768,1,-32768,1,-32768,1,-32768,1,-32768,1
340,-2,1,20,1,22,1,-9,1,-12,1,21,1,-32768,1,-32768,1,-32768,1,-32768,1,-32768,1,-32768,1
341,-1,1,19,1,20,1,-9,1,-10,1,19,1,-32768,1,-32768,1,-32768,1,-32768,1,-32768,1,-32768,1
342,-1,1,19,1,20,1,-9,1,-10,1,19,1,-32768,1,-32768,1,-32768,1,-32768,1,-32768,1,-32768,1
343,-1,1,19,1,20,1,-9,1,-10,1,19,1,-32768,1,-32768,1,-32768,1,-32768,1,-32768,1,-32768,1
344,-1,1,19,1,20,1,-9,1,-10,1,19,1,-32768,1,-32768,1,-32768,1,-32768,1,-32768,1,-32768,1
345,-1,1,18,1,19,1,-8,1,-10,1,18,1,-32768,1,-32768,1,-32768,1,-32768,1,-32768,1,-32768,1
346,-1,1,18,1,19,1,-8,1,-10,1,18,1,-32768,1,-32768,1,-32768,1,-32768,1,-32768,1,-32768,1
347,-2,1,18,1,20,1,-8,1,-11,1,19,1,-32768,1,-32768,1,-32768,1,-32768,1,-32768,1,-32768,1
348,-3,1,18,1,21,1,-7,1,-12,1,19,1,-32768,1,-32768,1,-32768,1,-32768,1,-32768,1,-32768,1
349,-3,1,17,1,20,1,-7,1,-11,1,18,1,-32768,1,-32768,1,-32768,1,-32768,1,-32768,1,-32768,1
350,-4,1,17,1,21,1,-6,1,-12,1,19,1,-32768,1,-32768,1,-32768,1,-32768,1,-32768,1,-32768,1
351,-3,1,17,1,20,1,-7,1,-11,1,18,1,-32768,1,-32768,1,-32768,1,-32768,1,-32768,1,-32768,1
352,-3,1,17,1,20,1,-7,1,-11,1,18,1,-32768,1,-32768,1,-32768,1,-32768,1,-32768,1,-32768,1
353,-3,1,17,1,20,1,-7,1,-11,1,18,1,-32768,1,-32768,1,-32768,1,-32768,1,-32768,1,-32768,1
354,-2,1,16,1,18,1,-7,1,-10,1,17,1,-32768,1,-32768,1,-32768,1,-32768,1,-32768,1,-32768,1
355,-2,1,16,1,18,1,-7,1,-10,1,17,1,-32768,1,-32768,1,-32768,1,-32768,1,-32768,1,-32768,1
356,-3,1,15,1,18,1,-6,1,-10,1,16,1,-32768,1,-32768,1,-32768,1,-32768,1,-32768,1,-32768,1
357,-4,1,15,1,19,1,-5,1,-11,1,17,1,-32768,1,-32768,1,-32768,1,-32768,1,-32768,1,-32768,1
358,-5,1,14,1,19,1,-4,1,-12,1,16,1,-32768,1,-32768,1,-32768,1,-32768,1,-32768,1,-32768,1
359,-6,1,14,1,20,1,-4,1,-13,1,17,1,-32768,1,-32768,1,-32768,1,-32768,1,-32768,1,-32768,1
360,-7,1,13,1,20,1,-3,1,-13,1,16,1,-32768,1,-32768,1,-32768,1,-32768,1,-32768,1,-32768,1
361,-6,1,13,1,19,1,-3,1,-12,1,16,1,-32768,1,-32768,1,-32768,1,-32768,1,-32768,1,-32768,1
362,-6,1,13,1,19,1,-3,1,-12,1,16,1,-32768,1,-32768,1,-32768,1,-32768,1,-32768,1,-32768,1
363,-6,1,12,1,18,1,-3,1,-12,1,15,1,-32768,1,-32768,1,-32768,1,-32768,1,-32768,1,-32768,1
364,-6,1,12,1,18,1,-3,1,-12,1,15,1,-32768,1,-32768,1,-32768,1,-32768,1,-32768,1,-32768,1
365,-5,1,12,1,17,1,-3,1,-11,1,14,1,-32768,1,-32768,1,-32768,1,-32768,1,-32768,1,-32768,1
366,-6,1,11,1,17,1,-2,1,-11,1,14,1,-32768,1,-32768,1,-32768,1,-32768,1,-32768,1,-32768,1
367,-7,1,13,1,20,1,-3,1,-13,1,16,1,-32768,1,-32768,1,-32768,1,-32768,1,-32768,1,-32768,1
368,-7,1,12,1,19,1,-2,1,-13,1,15,1,-32768,1,-32768,1,-32768,1,-32768,1,-32768,1,-32768,1
369,-8,1,12,1,20,1,-2,1,-14,1,16,1,-32768,1,-32768,1,-32768,1,-32768,1,-32768,1,-32768,1
370,-8,1,12,1,20,1,-2,1,-14,1,16,1,-32768,1,-32768,1,-32768,1,-32768,1,-32768,1,-32768,1
371,-8,1,11,1,19,1,-1,1,-13,1,15,1,-32768,1,-32768,1,-32768,1,-32768,1,-32768,1,-32768,1
372,-7,1,10,1,17,1,-1,1,-12,1,13,1,-32768,1,-32768,1,-32768,1,-32768,1,-32768,1,-32768,1
373,-6,1,9,1,15,1,-1,1,-10,1,12,1,-32768,1,-32768,1,-32768,1,-32768,1,-32768,1,-32768,1
374,-6,1,9,1,15,1,-1,1,-10,1,12,1,-32768,1,-32768,1,-32768,1,-32768,1,-32768,1,-32768,1
375,-6,1,8,1,14,1,-1,1,-10,1,11,1,-32768,1,-32768,1,-32768,1,-32768,1,-32768,1,-32768,1
376,-6,1,8,1,14,1,-1,1,-10,1,11,1,-32768,1,-32768,1,-32768,1,-32768,1,-32768,1,-32768,1
377,-7,1,8,1,15,1,0,1,-11,1,11,1,-32768,1,-32768,1,-32768,1,-32768,1,-32768,1,-32768,1
378,-7,1,8,1,15,1,0,1,-11,1,11,1,-32768,1,-32768,1,-32768,1,-32768,1,-32768,1,-32768,1
379,-8,1,7,1,15,1,0,1,-11,1,11,1,-32768,1,-32768,1,-32768,1,-32768,1,-32768,1,-32768,1
380,-9,1,8,1,17,1,0,1,-13,1,12,1,-32768,1,-32768,1,-32768,1,-32768,1,-32768,1,-32768,1
381,-8,1,7,1,15,1,0,1,-11,1,11,1,-32768,1,-32768,1,-32768,1,-32768,1,-32768,1,-32768,1
382,-7,1,7,1,14,1,0,1,-10,1,10,1,-32768,1,-32768,1,-32768,1,-32768,1,-32768,1,-32768,1
383,-7,1,7,1,14,1,0,1,-10,1,10,1,-32768,1,-32768,1,-32768,1,-32768,1,-32768,1,-32768,1
384,-7,1,7,1,14,1,0,1,-10,1,10,1,-32768,1,-32768,1,-32768,1,-32768,1,-32768,1,-32768,1
385,-6,1,6,1,12,1,0,1,-9,1,9,1,-32768,1,-32768,1,-32768,1,-32768,1,-32768,1,-32768,1
386,-6,1,6,1,12,1,0,1,-9,1,9,1,-32768,1,-32768,1,-32768,1,-32768,1,-32768,1,-32768,1
387,-7,1,5,1,12,1,1,1,-9,1,8,1,-32768,1,-32768,1,-32768,1,-32768,1,-32768,1,-32768,1
388,-7,1,5,1,12,1,1,1,-9,1,8,1,-32768,1,-32768,1,-32768,1,-32768,1,-32768,1,-32768,1
389,-7,1,5,1,12,1,1,1,-9,1,8,1,-32768,1,-32768,1,-32768,1,-32768,1,-32768,1,-32768,1
390,-7,1,5,1,12,1,1,1,-9,1,8,1,-32768,1,-32768,1,-32768,1,-32768,1,-32768,1,-32768,1
391,-6,1,4,1,10,1,1,1,-8,1,7,1,-32768,1,-32768,1,-32768,1,-32768,1,-32768,1,-32768,1
392,-6,1,4,1,10,1,1,1,-8,1,7,1,-32768,1,-32768,1,-32768,1,-32768,1,-32768,1,-32768,1
393,-6,1,4,1,10,1,1,1,-8,1,7,1,-32768,1,-32768,1,-32768,1,-32768,1,-32768,1,-32768,1
394,-6,1,3,1,9,1,1,1,-7,1,6,1,-32768,1,-32768,1,-32768,1,-32768,1,-32768,1,-32768,1
395,-5,1,3,1,8,1,1,1,-6,1,5,1,-32768,1,-32768,1,-32768,1,-32768,1,-32768,1,-32768,1
396,-6,1,3,1,9,1,1,1,-7,1,6,1,-32768,1,-32768,1,-32768,1,-32768,1,-32768,1,-32768,1
397,-6,1,2,1,8,1,2,1,-7,1,5,1,-32768,1,-32768,1,-32768,1,-32768,1,-32768,1,-32768,1
398,-6,1,2,1,8,1,2,1,-7,1,5,1,-32768,1,-32768,1,-32768,1,-32768,1,-32768,1,-32768,1
399,-6,1,1,1,7,1,2,1,-6,1,4,1,-32768,1,-32768,1,-32768,1,-32768,1,-32768,1,-32768,1
400,-6,1,1,1,7,1,2,1,-6,1,4,1,-32768,1,-32768,1,-32768,1,-32768,1,-32768,1,-32768,1
401,-5,1,0,1,5,1,2,1,-5,1,2,1,-32768,1,-32768,1,-32768,1,-32768,1,-32768,1,-32768,1
402,-5,1,0,1,5,1,2,1,-5,1,2,1,-32768,1,-32768,1,-32768,1,-32768,1,-32768,1,-32768,1
403,-6,1,-1,1,5,1,3,1,-6,1,2,1,-32768,1,-32768,1,-32768,1,-32768,1,-32768,1,-32768,1
404,-6,1,-1,1,5,1,3,1,-6,1,2,1,-32768,1,-32768,1,-32768,1,-32768,1,-32768,1,-32768,1
405,-7,1,-1,1,6,1,4,1,-7,1,2,1,-32768,1,-32768,1,-32768,1,-32768,1,-32768,1,-32768,1
406,-7,1,-1,1,6,1,4,1,-7,1,2,1,-32768,1,-32768,1,-32768,1,-32768,1,-32768,1,-32768,1
407,-7,1,-1,1,6,1,4,1,-7,1,2,1,-32768,1,-32768,1,-32768,1,-32768,1,-32768,1,-32768,1
408,-7,1,-1,1,6,1,4,1,-7,1,2,1,-32768,1,-32768,1,-32768,1,-32768,1,-32768,1,-32768,1
409,-7,1,-2,1,5,1,4,1,-6,1,1,1,-32768,1,-32768,1,-32768,1,-32768,1,-32768,1,-32768,1
410,-6,1,-3,1,3,1,4,1,-5,1,0,1,-32768,1,-32768,1,-32768,1,-32768,1,-32768,1,-32768,1
411,-5,1,-3,1,2,1,4,1,-4,1,-1,1,-32768,1,-32768,1,-32768,1,-32768,1,-32768,1,-32768,1
412,-5,1,-4,1,1,1,4,1,-3,1,-2,1,-32768,1,-32768,1,-32768,1,-32768,1,-32768,1,-32768,1
413,-5,1,-4,1,1,1,4,1,-3,1,-2,1,-32768,1,-32768,1,-32768,1,-32768,1,-32768,1,-32768,1
414,-6,1,-5,1,1,1,5,1,-4,1,-2,1,-32768,1,-32768,1,-32768,1,-32768,1,-32768,1,-32768,1
415,-6,1,-5,1,1,1,5,1,-4,1,-2,1,-32768,1,-32768,1,-32768,1,-32768,1,-32768,1,-32768,1
416,-7,1,-5,1,2,1,6,1,-5,1,-2,1,-32768,1,-32768,1,-32768,1,-32768,1,-32768,1,-32768,1
417,-7,1,-6,1,1,1,6,1,-4,1,-3,1,-32768,1,-32768,1,-32768,1,-32768,1,-32768,1,-32768,1
418,-6,1,-6,1,0,1,6,1,-3,1,-3,1,-32768,1,-32768,1,-32768,1,-32768,1,-32768,1,-32768,1
419,-6,1,-7,1,-1,1,6,1,-3,1,-4,1,-32768,1,-32768,1,-32768,1,-32768,1,-32768,1,-32768,1
420,-6,1,-7,1,-1,1,6,1,-3,1,-4,1,-32768,1,-32768,1,-32768,1,-32768,1,-32768,1,-32768,1
421,-5,1,-8,1,-3,1,6,1,-1,1,-6,1,-32768,1,-32768,1,-32768,1,-32768,1,-32768,1,-32768,1
422,-5,1,-8,1,-3,1,6,1,-1,1,-6,1,-32768,1,-32768,1,-32768,1,-32768,1,-32768,1,-32768,1
423,-5,1,-9,1,-4,1,7,1,-1,1,-7,1,-32768,1,-32768,1,-32768,1,-32768,1,-32768,1,-32768,1
424,-5,1,-9,1,-4,1,7,1,-1,1,-7,1,-32768,1,-32768,1,-32768,1,-32768,1,-32768,1,-32768,1
425,-5,1,-9,1,-4,1,7,1,-1,1,-7,1,-32768,1,-32768,1,-32768,1,-32768,1,-32768,1,-32768,1
426,-6,1,-9,1,-3,1,7,1,-2,1,-6,1,-32768,1,-32768,1,-32768,1,-32768,1,-32768,1,-32768,1
427,-6,1,-9,1,-3,1,7,1,-2,1,-6,1,-32768,1,-32768,1,-32768,1,-32768,1,-32768,1,-32768,1
428,-6,1,-9,1,-3,1,7,1,-2,1,-6,1,-32768,1,-32768,1,-32768,1,-32768,1,-32768,1,-32768,1
429,-6,1,-10,1,-4,1,8,1,-1,1,-7,1,-32768,1,-32768,1,-32768,1,-32768,1,-32768,1,-32768,1
430,-7,1,-11,1,-4,1,9,1,-2,1,-8,1,-32768,1,-32768,1,-32768,1,-32768,1,-32768,1,-32768,1
431,-5,1,-11,1,-6,1,8,1,0,1,-9,1,-32768,1,-32768,1,-32768,1,-32768,1,-32768,1,-32768,1
432,-5,1,-11,1,-6,1,8,1,0,1,-9,1,-32768,1,-32768,1,-32768,1,-32768,1,-32768,1,-32768,1
433,-4,1,-11,1,-7,1,7,1,1,1,-9,1,-32768,1,-32768,1,-32768,1,-32768,1,-32768,1,-32768,1
434,-4,1,-12,1,-8,1,8,1,2,1,-10,1,-32768,1,-32768,1,-32768,1,-32768,1,-32768,1,-32768,1
435,-4,1,-12,1,-8,1,8,1,2,1,-10,1,-32768,1,-32768,1,-32768,1,-32768,1,-32768,1,-32768,1
436,-4,1,-12,1,-8,1,8,1,2,1,-10,1,-32768,1,-32768,1,-32768,1,-32768,1,-32768,1,-32768,1
437,-5,1,-13,1,-8,1,9,1,1,1,-11,1,-32768,1,-32768,1,-32768,1,-32768,1,-32768,1,-32768,1
438,-5,1,-13,1,-8,1,9,1,1,1,-11,1,-32768,1,-32768,1,-32768,1,-32768,1,-32768,1,-32768,1
439,-4,1,-13,1,-9,1,8,1,2,1,-11,1,-32768,1,-32768,1,-32768,1,-32768,1,-32768,1,-32768,1
440,-5,1,-13,1,-8,1,9,1,1,1,-11,1,-32768,1,-32768,1,-32768,1,-32768,1,-32768,1,-32768,1
441,-4,1,-13,1,-9,1,8,1,2,1,-11,1,-32768,1,-32768,1,-32768,1,-32768,1,-32768,1,-32768,1
442,-4,1,-13,1,-9,1,8,1,2,1,-11,1,-32768,1,-32768,1,-32768,1,-32768,1,-32768,1,-32768,1
443,-3,1,-13,1,-10,1,8,1,3,1,-12,1,-32768,1,-32768,1,-32768,1,-32768,1,-32768,1,-32768,1
444,-4,1,-14,1,-10,1,9,1,3,1,-12,1,-32768,1,-32768,1,-32768,1,-32768,1,-32768,1,-32768,1
445,-3,1,-14,1,-11,1,8,1,4,1,-13,1,-32768,1,-32768,1,-32768,1,-32768,1,-32768,1,-32768,1
446,-4,1,-15,1,-11,1,9,1,3,1,-13,1,-32768,1,-32768,1,-32768,1,-32768,1,-32768,1,-32768,1
447,-5,1,-15,1,-10,1,10,1,2,1,-13,1,-32768,1,-32768,1,-32768,1,-32768,1,-32768,1,-32768,1
448,-5,1,-15,1,-10,1,10,1,2,1,-13,1,-32768,1,-32768,1,-32768,1,-32768,1,-32768,1,-32768,1
449,-5,1,-15,1,-10,1,10,1,2,1,-13,1,-32768,1,-32768,1,-32768,1,-32768,1,-32768,1,-32768,1
450,-5,1,-15,1,-10,1,10,1,2,1,-13,1,-32768,1,-32768,1,-32768,1,-32768,1,-32768,1,-32768,1
451,-5,1,-16,1,-11,1,10,1,3,1,-14,1,-32768,1,-32768,1,-32768,1,-32768,1,-32768,1,-32768,1
452,-5,1,-16,1,-11,1,10,1,3,1,-14,1,-32768,1,-32768,1,-32768,1,-32768,1,-32768,1,-32768,1
453,-3,1,-16,1,-13,1,9,1,5,1,-15,1,-32768,1,-32768,1,-32768,1,-32768,1,-32768,1,-32768,1
454,-4,1,-16,1,-12,1,10,1,4,1,-14,1,-32768,1,-32768,1,-32768,1,-32768,1,-32768,1,-32768,1
455,-3,1,-16,1,-13,1,9,1,5,1,-15,1,-32768,1,-32768,1,-32768,1,-32768,1,-32768,1,-32768,1
456,-4,1,-17,1,-13,1,10,1,4,1,-15,1,-32768,1,-32768,1,-32768,1,-32768,1,-32768,1,-32768,1
457,-5,1,-17,1,-12,1,11,1,3,1,-15,1,-32768,1,-32768,1,-32768,1,-32768,1,-32768,1,-32768,1
458,-6,1,-17,1,-11,1,11,1,2,1,-14,1,-32768,1,-32768,1,-32768,1,-32768,1,-32768,1,-32768,1
459,-6,1,-18,1,-12,1,12,1,3,1,-15,1,-32768,1,-32768,1,-32768,1,-32768,1,-32768,1,-32768,1
460,-6,1,-18,1,-12,1,12,1,3,1,-15,1,-32768,1,-32768,1,-32768,1,-32768,1,-32768,1,-32768,1
461,-6,1,-18,1,-12,1,12,1,3,1,-15,1,-32768,1,-32768,1,-32768,1,-32768,1,-32768,1,-32768,1
462,-6,1,-18,1,-12,1,12,1,3,1,-15,1,-32768,1,-32768,1,-32768,1,-32768,1,-32768,1,-32768,1
463,-6,1,-18,1,-12,1,12,1,3,1,-15,1,-32768,1,-32768,1,-32768,1,-32768,1,-32768,1,-32768,1
464,-6,1,-19,1,-13,1,12,1,3,1,-16,1,-32768,1,-32768,1,-32768,1,-32768,1,-32768,1,-32768,1
465,-6,1,-18,1,-12,1,12,1,3,1,-15,1,-32768,1,-32768,1,-32768,1,-32768,1,-32768,1,-32768,1
466,-6,1,-18,1,-12,1,12,1,3,1,-15,1,-32768,1,-32768,1,-32768,1,-32768,1,-32768,1,-32768,1
467,-7,1,-18,1,-11,1,12,1,2,1,-15,1,-32768,1,-32768,1,-32768,1,-32768,1,-32768,1,-32768,1
468,-6,1,-18,1,-12,1,12,1,3,1,-15,1,-32768,1,-32768,1,-32768,1,-32768,1,-32768,1,-32768,1
469,-6,1,-18,1,-12,1,12,1,3,1,-15,1,-32768,1,-32768,1,-32768,1,-32768,1,-32768,1,-32768,1
470,-7,1,-18,1,-11,1,12,1,2,1,-15,1,-32768,1,-32768,1,-32768,1,-32768,1,-32768,1,-32768,1
471,-6,1,-18,1,-12,1,12,1,3,1,-15,1,-32768,1,-32768,1,-32768,1,-32768,1,-32768,1,-32768,1
472,-6,1,-19,1,-13,1,12,1,3,1,-16,1,-32768,1,-32768,1,-32768,1,-32768,1,-32768,1,-32768,1
473,-6,1,-19,1,-13,1,12,1,3,1,-16,1,-32768,1,-32768,1,-32768,1,-32768,1,-32768,1,-32768,1
474,-7,1,-20,1,-13,1,13,1,3,1,-17,1,-32768,1,-32768,1,-32768,1,-32768,1,-32768,1,-32768,1
475,-7,1,-21,1,-14,1,14,1,3,1,-18,1,-32768,1,-32768,1,-32768,1,-32768,1,-32768,1,-32768,1
476,-7,1,-21,1,-14,1,14,1,3,1,-18,1,-32768,1,-32768,1,-32768,1,-32768,1,-32768,1,-32768,1
477,-8,1,-20,1,-12,1,14,1,2,1,-16,1,-32768,1,-32768,1,-32768,1,-32768,1,-32768,1,-32768,1
478,-8,1,-20,1,-12,1,14,1,2,1,-16,1,-32768,1,-32768,1,-32768,1,-32768,1,-32768,1,-32768,1
479,-7,1,-20,1,-13,1,13,1,3,1,-17,1,-32768,1,-32768,1,-32768,1,-32768,1,-32768,1,-32768,1
480,-8,1,-20,1,-12,1,14,1,2,1,-16,1,-32768,1,-32768,1,-32768,1,-32768,1,-32768,1,-32768,1
481,-7,1,-20,1,-13,1,13,1,3,1,-17,1,-32768,1,-32768,1,-32768,1,-32768,1,-32768,1,-32768,1
482,-6,1,-20,1,-14,1,13,1,4,1,-17,1,-32768,1,-32768,1,-32768,1,-32768,1,-32768,1,-32768,1
483,-6,1,-20,1,-14,1,13,1,4,1,-17,1,-32768,1,-32768,1,-32768,1,-32768,1,-32768,1,-32768,1
484,-6,1,-20,1,-14,1,13,1,4,1,-17,1,-32768,1,-32768,1,-32768,1,-32768,1,-32768,1,-32768,1
485,-6,1,-20,1,-14,1,13,1,4,1,-17,1,-32768,1,-32768,1,-32768,1,-32768,1,-32768,1,-32768,1
486,-7,1,-20,1,-13,1,13,1,3,1,-17,1,-32768,1,-32768,1,-32768,1,-32768,1,-32768,1,-32768,1
487,-7,1,-20,1,-13,1,13,1,3,1,-17,1,-32768,1,-32768,1,-32768,1,-32768,1,-32768,1,-32768,1
488,-7,1,-21,1,-14,1,14,1,3,1,-18,1,-32768,1,-32768,1,-32768,1,-32768,1,-32768,1,-32768,1
489,-7,1,-21,1,-14,1,14,1,3,1,-18,1,-32768,1,-32768,1,-32768,1,-32768,1,-32768,1,-32768,1
490,-7,1,-20,1,-13,1,13,1,3,1,-17,1,-32768,1,-32768,1,-32768,1,-32768,1,-32768,1,-32768,1
491,-5,1,-19,1,-14,1,12,1,4,1,-17,1,-32768,1,-32768,1,-32768,1,-32768,1,-32768,1,-32768,1
492,-5,1,-19,1,-14,1,12,1,4,1,-17,1,-32768,1,-32768,1,-32768,1,-32768,1,-32768,1,-32768,1
493,-4,1,-19,1,-15,1,11,1,5,1,-17,1,-32768,1,-32768,1,-32768,1,-32768,1,-32768,1,-32768,1
494,-5,1,-19,1,-14,1,12,1,4,1,-17,1,-32768,1,-32768,1,-32768,1,-32768,1,-32768,1,-32768,1
495,-4,1,-19,1,-15,1,11,1,5,1,-17,1,-32768,1,-32768,1,-32768,1,-32768,1,-32768,1,-32768,1
496,-5,1,-19,1,-14,1,12,1,4,1,-17,1,-32768,1,-32768,1,-32768,1,-32768,1,-32768,1,-32768,1
497,-6,1,-19,1,-13,1,12,1,3,1,-16,1,-32768,1,-32768,1,-32768,1,-32768,1,-32768,1,-32768,1
498,-6,1,-19,1,-13,1,12,1,3,1,-16,1,-32768,1,-32768,1,-32768,1,-32768,1,-32768,1,-32768,1
499,-6,1,-19,1,-13,1,12,1,3,1,-16,1,-32768,1,-32768,1,-32768,1,-32768,1,-32768,1,-32768,1
500,-6,1,-19,1,-13,1,12,1,3,1,-16,1,-32768,1,-32768,1,-32768,1,-32768,1,-32768,1,-32768,1
501,-5,1,-19,1,-14,1,12,1,4,1,-17,1,-32768,1,-32768,1,-32768,1,-32768,1,-32768,1,-32768,1
502,-4,1,-19,1,-15,1,11,1,5,1,-17,1,-32768,1,-32768,1,-32768,1,-32768,1,-32768,1,-32768,1
503,-3,1,-19,1,-16,1,11,1,6,1,-18,1,-32768,1,-32768,1,-32768,1,-32768,1,-32768,1,-32768,1
504,-3,1,-17,1,-14,1,10,1,5,1,-16,1,-32768,1,-32768,1,-32768,1,-32768,1,-32768,1,-32768,1
505,-3,1,-17,1,-14,1,10,1,5,1,-16,1,-32768,1,-32768,1,-32768,1,-32768,1,-32768,1,-32768,1
506,-4,1,-18,1,-14,1,11,1,5,1,-16,1,-32768,1,-32768,1,-32768,1,-32768,1,-32768,1,-32768,1
507,-5,1,-18,1,-13,1,11,1,4,1,-16,1,-32768,1,-32768,1,-32768,1,-32768,1,-32768,1,-32768,1
508,-5,1,-18,1,-13,1,11,1,4,1,-16,1,-32768,1,-32768,1,-32768,1,-32768,1,-32768,1,-32768,1
509,-6,1,-18,1,-12,1,12,1,3,1,-15,1,-32768,1,-32768,1,-32768,1,-32768,1,-32768,1,-32768,1
510,-6,1,-18,1,-12,1,12,1,3,1,-15,1,-32768,1,-32768,1,-32768,1,-32768,1,-32768,1,-32768,1
511,-5,1,-18,1,-13,1,11,1,4,1,-16,1,-32768,1,-32768,1,-32768,1,-32768,1,-32768,1,-32768,1
512,-4,1,-17,1,-13,1,10,1,4,1,-15,1,-32768,1,-32768,1,-32768,1,-32768,1,-32768,1,-32768,1
513,-3,1,-18,1,-15,1,10,1,6,1,-17,1,-32768,1,-32768,1,-32768,1,-32768,1,-32768,1,-32768,1
514,-3,1,-18,1,-15,1,10,1,6,1,-17,1,-32768,1,-32768,1,-32768,1,-32768,1,-32768,1,-32768,1
515,-3,1,-18,1,-15,1,10,1,6,1,-17,1,-32768,1,-32768,1,-32768,1,-32768,1,-32768,1,-32768,1
516,-4,1,-18,1,-14,1,11,1,5,1,-16,1,-32768,1,-32768,1,-32768,1,-32768,1,-32768,1,-32768,1
517,-4,1,-18,1,-14,1,11,1,5,1,-16,1,-32768,1,-32768,1,-32768,1,-32768,1,-32768,1,-32768,1
518,-5,1,-18,1,-13,1,11,1,4,1,-16,1,-32768,1,-32768,1,-32768,1,-32768,1,-32768,1,-32768,1
519,-5,1,-17,1,-12,1,11,1,3,1,-15,1,-32768,1,-32768,1,-32768,1,-32768,1,-32768,1,-32768,1
520,-6,1,-17,1,-11,1,11,1,2,1,-14,1,-32768,1,-32768,1,-32768,1,-32768,1,-32768,1,-32768,1
521,-5,1,-17,1,-12,1,11,1,3,1,-15,1,-32768,1,-32768,1,-32768,1,-32768,1,-32768,1,-32768,1
522,-4,1,-17,1,-13,1,10,1,4,1,-15,1,-32768,1,-32768,1,-32768,1,-32768,1,-32768,1,-32768,1
523,-4,1,-17,1,-13,1,10,1,4,1,-15,1,-32768,1,-32768,1,-32768,1,-32768,1,-32768,1,-32768,1
524,-4,1,-17,1,-13,1,10,1,4,1,-15,1,-32768,1,-32768,1,-32768,1,-32768,1,-32768,1,-32768,1
525,-3,1,-17,1,-14,1,10,1,5,1,-16,1,-32768,1,-32768,1,-32768,1,-32768,1,-32768,1,-32768,1
526,-4,1,-17,1,-13,1,10,1,4,1,-15,1,-32768,1,-32768,1,-32768,1,-32768,1,-32768,1,-32768,1
527,-5,1,-17,1,-12,1,11,1,3,1,-15,1,-32768,1,-32768,1,-32768,1,-32768,1,-32768,1,-32768,1
528,-5,1,-17,1,-12,1,11,1,3,1,-15,1,-32768,1,-32768,1,-32768,1,-32768,1,-32768,1,-32768,1
529,-6,1,-17,1,-11,1,11,1,2,1,-14,1,-32768,1,-32768,1,-32768,1,-32768,1,-32768,1,-32768,1
530,-6,1,-17,1,-11,1,11,1,2,1,-14,1,-32768,1,-32768,1,-32768,1,-32768,1,-32768,1,-32768,1
531,-5,1,-17,1,-12,1,11,1,3,1,-15,1,-32768,1,-32768,1,-32768,1,-32768,1,-32768,1,-32768,1
532,-4,1,-17,1,-13,1,10,1,4,1,-15,1,-32768,1,-32768,1,-32768,1,-32768,1,-32768,1,-32768,1
533,-4,1,-17,1,-13,1,10,1,4,1,-15,1,-32768,1,-32768,1,-32768,1,-32768,1,-32768,1,-32768,1
534,-3,1,-16,1,-13,1,9,1,5,1,-15,1,-32768,1,-32768,1,-32768,1,-32768,1,-32768,1,-32768,1
535,-2,1,-16,1,-14,1,9,1,6,1,-15,1,-32768,1,-32768,1,-32768,1,-32768,1,-32768,1,-32768,1
536,-3,1,-15,1,-12,1,9,1,4,1,-14,1,-32768,1,-32768,1,-32768,1,-32768,1,-32768,1,-32768,1
537,-4,1,-15,1,-11,1,9,1,3,1,-13,1,-32768,1,-32768,1,-32768,1,-32768,1,-32768,1,-32768,1
538,-4,1,-15,1,-11,1,9,1,3,1,-13,1,-32768,1,-32768,1,-32768,1,-32768,1,-32768,1,-32768,1
539,-4,1,-15,1,-11,1,9,1,3,1,-13,1,-32768,1,-32768,1,-32768,1,-32768,1,-32768,1,-32768,1
540,-4,1,-15,1,-11,1,9,1,3,1,-13,1,-32768,1,-32768,1,-32768,1,-32768,1,-32768,1,-32768,1
541,-3,1,-15,1,-12,1,9,1,4,1,-14,1,-32768,1,-32768,1,-32768,1,-32768,1,-32768,1,-32768,1
542,-3,1,-15,1,-12,1,9,1,4,1,-14,1,-32768,1,-32768,1,-32768,1,-32768,1,-32768,1,-32768,1
543,-2,1,-15,1,-13,1,8,1,5,1,-14,1,-32768,1,-32768,1,-32768,1,-32768,1,-32768,1,-32768,1
544,-3,1,-15,1,-12,1,9,1,4,1,-14,1,-32768,1,-32768,1,-32768,1,-32768,1,-32768,1,-32768,1
545,-2,1,-15,1,-13,1,8,1,5,1,-14,1,-32768,1,-32768,1,-32768,1,-32768,1,-32768,1,-32768,1
546,-3,1,-15,1,-12,1,9,1,4,1,-14,1,-32768,1,-32768,1,-32768,1,-32768,1,-32768,1,-32768,1
547,-4,1,-15,1,-11,1,9,1,3,1,-13,1,-32768,1,-32768,1,-32768,1,-32768,1,-32768,1,-32768,1
548,-5,1,-15,1,-10,1,10,1,2,1,-13,1,-32768,1,-32768,1,-32768,1,-32768,1,-32768,1,-32768,1
549,-5,1,-15,1,-10,1,10,1,2,1,-13,1,-32768,1,-32768,1,-32768,1,-32768,1,-32768,1,-32768,1
550,-5,1,-14,1,-9,1,9,1,2,1,-12,1,-32768,1,-32768,1,-32768,1,-32768,1,-32768,1,-32768,1
551,-3,1,-14,1,-11,1,8,1,4,1,-13,1,-32768,1,-32768,1,-32768,1,-32768,1,-32768,1,-32768,1
552,-3,1,-14,1,-11,1,8,1,4,1,-13,1,-32768,1,-32768,1,-32768,1,-32768,1,-32768,1,-32768,1
553,-3,1,-14,1,-11,1,8,1,4,1,-13,1,-32768,1,-32768,1,-32768,1,-32768,1,-32768,1,-32768,1
554,-3,1,-14,1,-11,1,8,1,4,1,-13,1,-32768,1,-32768,1,-32768,1,-32768,1,-32768,1,-32768,1
555,-3,1,-14,1,-11,1,8,1,4,1,-13,1,-32768,1,-32768,1,-32768,1,-32768,1,-32768,1,-32768,1
556,-4,1,-14,1,-10,1,9,1,3,1,-12,1,-32768,1,-32768,1,-32768,1,-32768,1,-32768,1,-32768,1
557,-5,1,-14,1,-9,1,9,1,2,1,-12,1,-32768,1,-32768,1,-32768,1,-32768,1,-32768,1,-32768,1
558,-5,1,-13,1,-8,1,9,1,1,1,-11,1,-32768,1,-32768,1,-32768,1,-32768,1,-32768,1,-32768,1
559,-5,1,-13,1,-8,1,9,1,1,1,-11,1,-32768,1,-32768,1,-32768,1,-32768,1,-32768,1,-32768,1
560,-5,1,-13,1,-8,1,9,1,1,1,-11,1,-32768,1,-32768,1,-32768,1,-32768,1,-32768,1,-32768,1
561,-4,1,-13,1,-9,1,8,1,2,1,-11,1,-32768,1,-32768,1,-32768,1,-32768,1,-32768,1,-32768,1
562,-4,1,-13,1,-9,1,8,1,2,1,-11,1,-32768,1,-32768,1,-32768,1,-32768,1,-32768,1,-32768,1
563,-2,1,-13,1,-11,1,7,1,4,1,-12,1,-32768,1,-32768,1,-32768,1,-32768,1,-32768,1,-32768,1
564,-2,1,-12,1,-10,1,7,1,4,1,-11,1,-32768,1,-32768,1,-32768,1,-32768,1,-32768,1,-32768,1
565,-1,1,-12,1,-11,1,6,1,5,1,-12,1,-32768,1,-32768,1,-32768,1,-32768,1,-32768,1,-32768,1
566,-2,1,-12,1,-10,1,7,1,4,1,-11,1,-32768,1,-32768,1,-32768,1,-32768,1,-32768,1,-32768,1
567,-3,1,-12,1,-9,1,7,1,3,1,-11,1,-32768,1,-32768,1,-32768,1,-32768,1,-32768,1,-32768,1
568,-3,1,-11,1,-8,1,7,1,2,1,-10,1,-32768,1,-32768,1,-32768,1,-32768,1,-32768,1,-32768,1
569,-3,1,-10,1,-7,1,6,1,2,1,-9,1,-32768,1,-32768,1,-32768,1,-32768,1,-32768,1,-32768,1
570,-4,1,-11,1,-7,1,7,1,1,1,-9,1,-32768,1,-32768,1,-32768,1,-32768,1,-32768,1,-32768,1
571,-3,1,-11,1,-8,1,7,1,2,1,-10,1,-32768,1,-32768,1,-32768,1,-32768,1,-32768,1,-32768,1
572,-2,1,-10,1,-8,1,6,1,3,1,-9,1,-32768,1,-32768,1,-32768,1,-32768,1,-32768,1,-32768,1
573,-1,1,-10,1,-9,1,5,1,4,1,-10,1,-32768,1,-32768,1,-32768,1,-32768,1,-32768,1,-32768,1
574,-1,1,-10,1,-9,1,5,1,4,1,-10,1,-32768,1,-32768,1,-32768,1,-32768,1,-32768,1,-32768,1
575,0,1,-10,1,-10,1,5,1,5,1,-10,1,-32768,1,-32768,1,-32768,1,-32768,1,-32768,1,-32768,1
576,-1,1,-10,1,-9,1,5,1,4,1,-10,1,-32768,1,-32768,1,-32768,1,-32768,1,-32768,1,-32768,1
577,-2,1,-10,1,-8,1,6,1,3,1,-9,1,-32768,1,-32768,1,-32768,1,-32768,1,-32768,1,-32768,1
578,-3,1,-9,1,-6,1,6,1,1,1,-8,1,-32768,1,-32768,1,-32768,1,-32768,1,-32768,1,-32768,1
579,-3,1,-9,1,-6,1,6,1,1,1,-8,1,-32768,1,-32768,1,-32768,1,-32768,1,-32768,1,-32768,1
580,-3,1,-9,1,-6,1,6,1,1,1,-8,1,-32768,1,-32768,1,-32768,1,-32768,1,-32768,1,-32768,1
581,-2,1,-9,1,-7,1,5,1,2,1,-8,1,-32768,1,-32768,1,-32768,1,-32768,1,-32768,1,-32768,1
582,-1,1,-9,1,-8,1,5,1,3,1,-9,1,-32768,1,-32768,1,-32768,1,-32768,1,-32768,1,-32768,1
583,0,1,-9,1,-9,1,4,1,4,1,-9,1,-32768,1,-32768,1,-32768,1,-32768,1,-32768,1,-32768,1
584,-1,1,-9,1,-8,1,5,1,3,1,-9,1,-32768,1,-32768,1,-32768,1,-32768,1,-32768,1,-32768,1
585,0,1,-10,1,-10,1,5,1,5,1,-10,1,-32768,1,-32768,1,-32768,1,-32768,1,-32768,1,-32768,1
586,-1,1,-9,1,-8,1,5,1,3,1,-9,1,-32768,1,-32768,1,-32768,1,-32768,1,-32768,1,-32768,1
587,-1,1,-8,1,-7,1,4,1,3,1,-8,1,-32768,1,-32768,1,-32768,1,-32768,1,-32768,1,-32768,1
588,-1,1,-7,1,-6,1,4,1,2,1,-7,1,-32768,1,-32768,1,-32768,1,-32768,1,-32768,1,-32768,1
589,-1,1,-7,1,-6,1,4,1,2,1,-7,1,-32768,1,-32768,1,-32768,1,-32768,1,-32768,1,-32768,1
590,-2,1,-7,1,-5,1,4,1,1,1,-6,1,-32768,1,-32768,1,-32768,1,-32768,1,-32768,1,-32768,1
591,-1,1,-7,1,-6,1,4,1,2,1,-7,1,-32768,1,-32768,1,-32768,1,-32768,1,-32768,1,-32768,1
592,0,1,-7,1,-7,1,3,1,3,1,-7,1,-32768,1,-32768,1,-32768,1,-32768,1,-32768,1,-32768,1
593,0,1,-7,1,-7,1,3,1,3,1,-7,1,-32768,1,-32768,1,-32768,1,-32768,1,-32768,1,-32768,1
594,1,1,-7,1,-8,1,3,1,4,1,-7,1,-32768,1,-32768,1,-32768,1,-32768,1,-32768,1,-32768,1
595,2,1,-7,1,-9,1,2,1,5,1,-8,1,-32768,1,-32768,1,-32768,1,-32768,1,-32768,1,-32768,1
596,1,1,-6,1,-7,1,2,1,4,1,-6,1,-32768,1,-32768,1,-32768,1,-32768,1,-32768,1,-32768,1
597,0,1,-6,1,-6,1,3,1,3,1,-6,1,-32768,1,-32768,1,-32768,1,-32768,1,-32768,1,-32768,1
598,0,1,-6,1,-6,1,3,1,3,1,-6,1,-32768,1,-32768,1,-32768,1,-32768,1,-32768,1,-32768,1
599,-1,1,-6,1,-5,1,3,1,2,1,-6,1,-32768,1,-32768,1,-32768,1,-32768,1,-32768,1,-32768,1
600,-1,1,-6,1,-5,1,3,1,2,1,-6,1,-32768,1,-32768,1,-32768,1,-32768,1,-32768,1,-32768,1
601,0,1,-6,1,-6,1,3,1,3,1,-6,1,-32768,1,-32768,1,-32768,1,-32768,1,-32768,1,-32768,1
602,1,1,-6,1,-7,1,2,1,4,1,-6,1,-32768,1,-32768,1,-32768,1,-32768,1,-32768,1,-32768,1
603,2,1,-6,1,-8,1,2,1,5,1,-7,1,-32768,1,-32768,1,-32768,1,-32768,1,-32768,1,-32768,1
604,2,1,-5,1,-7,1,1,1,4,1,-6,1,-32768,1,-32768,1,-32768,1,-32768,1,-32768,1,-32768,1
605,2,1,-5,1,-7,1,1,1,4,1,-6,1,-32768,1,-32768,1,-32768,1,-32768,1,-32768,1,-32768,1
606,1,1,-6,1,-7,1,2,1,4,1,-6,1,-32768,1,-32768,1,-32768,1,-32768,1,-32768,1,-32768,1
607,0,1,-5,1,-5,1,2,1,2,1,-5,1,-32768,1,-32768,1,-32768,1,-32768,1,-32768,1,-32768,1
608,0,1,-5,1,-5,1,2,1,2,1,-5,1,-32768,1,-32768,1,-32768,1,-32768,1,-32768,1,-32768,1
609,1,1,-5,1,-6,1,2,1,3,1,-5,1,-32768,1,-32768,1,-32768,1,-32768,1,-32768,1,-32768,1
610,0,1,-5,1,-5,1,2,1,2,1,-5,1,-32768,1,-32768,1,-32768,1,-32768,1,-32768,1,-32768,1
611,1,1,-5,1,-6,1,2,1,3,1,-5,1,-32768,1,-32768,1,-32768,1,-32768,1,-32768,1,-32768,1
612,2,1,-5,1,-7,1,1,1,4,1,-6,1,-32768,1,-32768,1,-32768,1,-32768,1,-32768,1,-32768,1
613,2,1,-5,1,-7,1,1,1,4,1,-6,1,-32768,1,-32768,1,-32768,1,-32768,1,-32768,1,-32768,1
614,2,1,-5,1,-7,1,1,1,4,1,-6,1,-32768,1,-32768,1,-32768,1,-32768,1,-32768,1,-32768,1
615,2,1,-5,1,-7,1,1,1,4,1,-6,1,-32768,1,-32768,1,-32768,1,-32768,1,-32768,1,-32768,1
616,1,1,-4,1,-5,1,1,1,3,1,-4,1,-32768,1,-32768,1,-32768,1,-32768,1,-32768,1,-32768,1
617,1,1,-4,1,-5,1,1,1,3,1,-4,1,-32768,1,-32768,1,-32768,1,-32768,1,-32768,1,-32768,1
618,0,1,-4,1,-4,1,2,1,2,1,-4,1,-32768,1,-32768,1,-32768,1,-32768,1,-32768,1,-32768,1
619,0,1,-4,1,-4,1,2,1,2,1,-4,1,-32768,1,-32768,1,-32768,1,-32768,1,-32768,1,-32768,1
620,0,1,-4,1,-4,1,2,1,2,1,-4,1,-32768,1,-32768,1,-32768,1,-32768,1,-32768,1,-32768,1
621,0,1,-4,1,-4,1,2,1,2,1,-4,1,-32768,1,-32768,1,-32768,1,-32768,1,-32768,1,-32768,1
622,1,1,-4,1,-5,1,1,1,3,1,-4,1,-32768,1,-32768,1,-32768,1,-32768,1,-32768,1,-32768,1
623,2,1,-4,1,-6,1,1,1,4,1,-5,1,-32768,1,-32768,1,-32768,1,-32768,1,-32768,1,-32768,1
624,2,1,-4,1,-6,1,1,1,4,1,-5,1,-32768,1,-32768,1,-32768,1,-32768,1,-32768,1,-32768,1
625,3,1,-4,1,-7,1,0,1,5,1,-5,1,-32768,1,-32768,1,-32768,1,-32768,1,-32768,1,-32768,1
626,2,1,-4,1,-6,1,1,1,4,1,-5,1,-32768,1,-32768,1,-32768,1,-32768,1,-32768,1,-32768,1
627,1,1,-4,1,-5,1,1,1,3,1,-4,1,-32768,1,-32768,1,-32768,1,-32768,1,-32768,1,-32768,1
628,0,1,-4,1,-4,1,2,1,2,1,-4,1,-32768,1,-32768,1,-32768,1,-32768,1,-32768,1,-32768,1
629,0,1,-4,1,-4,1,2,1,2,1,-4,1,-32768,1,-32768,1,-32768,1,-32768,1,-32768,1,-32768,1
630,0,1,-3,1,-3,1,1,1,1,1,-3,1,-32768,1,-32768,1,-32768,1,-32768,1,-32768,1,-32768,1
631,0,1,-2,1,-2,1,1,1,1,1,-2,1,-32768,1,-32768,1,-32768,1,-32768,1,-32768,1,-32768,1
632,1,1,-2,1,-3,1,0,1,2,1,-2,1,-32768,1,-32768,1,-32768,1,-32768,1,-32768,1,-32768,1
633,2,1,-1,1,-3,1,0,1,2,1,-2,1,-32768,1,-32768,1,-32768,1,-32768,1,-32768,1,-32768,1
634,4,1,-1,1,-5,1,-1,1,4,1,-3,1,-32768,1,-32768,1,-32768,1,-32768,1,-32768,1,-32768,1
635,5,1,-1,1,-6,1,-2,1,5,1,-3,1,-32768,1,-32768,1,-32768,1,-32768,1,-32768,1,-32768,1
636,3,1,-1,1,-4,1,-1,1,3,1,-2,1,-32768,1,-32768,1,-32768,1,-32768,1,-32768,1,-32768,1
637,2,1,-1,1,-3,1,0,1,2,1,-2,1,-32768,1,-32768,1,-32768,1,-32768,1,-32768,1,-32768,1
638,2,1,-1,1,-3,1,0,1,2,1,-2,1,-32768,1,-32768,1,-32768,1,-32768,1,-32768,1,-32768,1
639,1,1,-1,1,-2,1,0,1,1,1,-1,1,-32768,1,-32768,1,-32768,1,-32768,1,-32768,1,-32768,1
640,1,1,-1,1,-2,1,0,1,1,1,-1,1,-32768,1,-32768,1,-32768,1,-32768,1,-32768,1,-32768,1
641,1,1,-1,1,-2,1,0,1,1,1,-1,1,-32768,1,-32768,1,-32768,1,-32768,1,-32768,1,-32768,1
642,3,1,-1,1,-4,1,-1,1,3,1,-2,1,-32768,1,-32768,1,-32768,1,-32768,1,-32768,1,-32768,1
643,5,1,-1,1,-6,1,-2,1,5,1,-3,1,-32768,1,-32768,1,-32768,1,-32768,1,-32768,1,-32768,1
644,6,1,-1,1,-7,1,-2,1,6,1,-4,1,-32768,1,-32768,1,-32768,1,-32768,1,-32768,1,-32768,1
645,6,1,-1,1,-7,1,-2,1,6,1,-4,1,-32768,1,-32768,1,-32768,1,-32768,1,-32768,1,-32768,1
646,4,1,0,1,-4,1,-2,1,4,1,-2,1,-32768,1,-32768,1,-32768,1,-32768,1,-32768,1,-32768,1
647,3,1,0,1,-3,1,-1,1,3,1,-1,1,-32768,1,-32768,1,-32768,1,-32768,1,-32768,1,-32768,1
648,2,1,0,1,-2,1,-1,1,2,1,-1,1,-32768,1,-32768,1,-32768,1,-32768,1,-32768,1,-32768,1
649,2,1,0,1,-2,1,-1,1,2,1,-1,1,-32768,1,-32768,1,-32768,1,-32768,1,-32768,1,-32768,1
650,2,1,0,1,-2,1,-1,1,2,1,-1,1,-32768,1,-32768,1,-32768,1,-32768,1,-32768,1,-32768,1
651,3,1,1,1,-2,1,-2,1,3,1,0,1,-32768,1,-32768,1,-32768,1,-32768,1,-32768,1,-32768,1
652,4,1,1,1,-3,1,-2,1,4,1,-1,1,-32768,1,-32768,1,-32768,1,-32768,1,-32768,1,-32768,1
653,5,1,1,1,-4,1,-3,1,5,1,-1,1,-32768,1,-32768,1,-32768,1,-32768,1,-32768,1,-32768,1
654,6,1,1,1,-5,1,-3,1,6,1,-2,1,-32768,1,-32768,1,-32768,1,-32768,1,-32768,1,-32768,1
655,6,1,0,1,-6,1,-3,1,6,1,-3,1,-32768,1,-32768,1,-32768,1,-32768,1,-32768,1,-32768,1
656,5,1,1,1,-4,1,-3,1,5,1,-1,1,-32768,1,-32768,1,-32768,1,-32768,1,-32768,1,-32768,1
657,4,1,2,1,-2,1,-3,1,3,1,0,1,-32768,1,-32768,1,-32768,1,-32768,1,-32768,1,-32768,1
658,3,1,2,1,-1,1,-2,1,2,1,1,1,-32768,1,-32768,1,-32768,1,-32768,1,-32768,1,-32768,1
659,3,1,2,1,-1,1,-2,1,2,1,1,1,-32768,1,-32768,1,-32768,1,-32768,1,-32768,1,-32768,1
660,2,1,3,1,1,1,-2,1,1,1,2,1,-32768,1,-32768,1,-32768,1,-32768,1,-32768,1,-32768,1
661,2,1,3,1,1,1,-2,1,1,1,2,1,-32768,1,-32768,1,-32768,1,-32768,1,-32768,1,-32768,1
662,3,1,4,1,1,1,-3,1,1,1,3,1,-32768,1,-32768,1,-32768,1,-32768,1,-32768,1,-32768,1
663,4,1,4,1,0,1,-4,1,2,1,2,1,-32768,1,-32768,1,-32768,1,-32768,1,-32768,1,-32768,1
664,4,1,4,1,0,1,-4,1,2,1,2,1,-32768,1,-32768,1,-32768,1,-32768,1,-32768,1,-32768,1
665,5,1,3,1,-2,1,-4,1,4,1,1,1,-32768,1,-32768,1,-32768,1,-32768,1,-32768,1,-32768,1
666,5,1,3,1,-2,1,-4,1,4,1,1,1,-32768,1,-32768,1,-32768,1,-32768,1,-32768,1,-32768,1
667,5,1,3,1,-2,1,-4,1,4,1,1,1,-32768,1,-32768,1,-32768,1,-32768,1,-32768,1,-32768,1
668,5,1,3,1,-2,1,-4,1,4,1,1,1,-32768,1,-32768,1,-32768,1,-32768,1,-32768,1,-32768,1
669,5,1,3,1,-2,1,-4,1,4,1,1,1,-32768,1,-32768,1,-32768,1,-32768,1,-32768,1,-32768,1
670,4,1,4,1,0,1,-4,1,2,1,2,1,-32768,1,-32768,1,-32768,1,-32768,1,-32768,1,-32768,1
671,4,1,4,1,0,1,-4,1,2,1,2,1,-32768,1,-32768,1,-32768,1,-32768,1,-32768,1,-32768,1
672,4,1,4,1,0,1,-4,1,2,1,2,1,-32768,1,-32768,1,-32768,1,-32768,1,-32768,1,-32768,1
673,4,1,4,1,0,1,-4,1,2,1,2,1,-32768,1,-32768,1,-32768,1,-32768,1,-32768,1,-32768,1
674,4,1,4,1,0,1,-4,1,2,1,2,1,-32768,1,-32768,1,-32768,1,-32768,1,-32768,1,-32768,1
675,4,1,3,1,-1,1,-3,1,3,1,1,1,-32768,1,-32768,1,-32768,1,-32768,1,-32768,1,-32768,1
676,4,1,3,1,-1,1,-3,1,3,1,1,1,-32768,1,-32768,1,-32768,1,-32768,1,-32768,1,-32768,1
677,4,1,4,1,0,1,-4,1,2,1,2,1,-32768,1,-32768,1,-32768,1,-32768,1,-32768,1,-32768,1
678,4,1,4,1,0,1,-4,1,2,1,2,1,-32768,1,-32768,1,-32768,1,-32768,1,-32768,1,-32768,1
679,4,1,4,1,0,1,-4,1,2,1,2,1,-32768,1,-32768,1,-32768,1,-32768,1,-32768,1,-32768,1
680,3,1,4,1,1,1,-3,1,1,1,3,1,-32768,1,-32768,1,-32768,1,-32768,1,-32768,1,-32768,1
681,4,1,4,1,0,1,-4,1,2,1,2,1,-32768,1,-32768,1,-32768,1,-32768,1,-32768,1,-32768,1
682,4,1,4,1,0,1,-4,1,2,1,2,1,-32768,1,-32768,1,-32768,1,-32768,1,-32768,1,-32768,1
683,5,1,4,1,-1,1,-4,1,3,1,2,1,-32768,1,-32768,1,-32768,1,-32768,1,-32768,1,-32768,1
684,5,1,4,1,-1,1,-4,1,3,1,2,1,-32768,1,-32768,1,-32768,1,-32768,1,-32768,1,-32768,1
685,5,1,3,1,-2,1,-4,1,4,1,1,1,-32768,1,-32768,1,-32768,1,-32768,1,-32768,1,-32768,1
686,4,1,4,1,0,1,-4,1,2,1,2,1,-32768,1,-32768,1,-32768,1,-32768,1,-32768,1,-32768,1
687,4,1,4,1,0,1,-4,1,2,1,2,1,-32768,1,-32768,1,-32768,1,-32768,1,-32768,1,-32768,1
688,4,1,4,1,0,1,-4,1,2,1,2,1,-32768,1,-32768,1,-32768,1,-32768,1,-32768,1,-32768,1
689,4,1,5,1,1,1,-4,1,2,1,3,1,-32768,1,-32768,1,-32768,1,-32768,1,-32768,1,-32768,1
690,4,1,5,1,1,1,-4,1,2,1,3,1,-32768,1,-32768,1,-32768,1,-32768,1,-32768,1,-32768,1
691,4,1,5,1,1,1,-4,1,2,1,3,1,-32768,1,-32768,1,-32768,1,-32768,1,-32768,1,-32768,1
692,5,1,6,1,1,1,-5,1,2,1,4,1,-32768,1,-32768,1,-32768,1,-32768,1,-32768,1,-32768,1
693,6,1,6,1,0,1,-6,1,3,1,3,1,-32768,1,-32768,1,-32768,1,-32768,1,-32768,1,-32768,1
694,6,1,6,1,0,1,-6,1,3,1,3,1,-32768,1,-32768,1,-32768,1,-32768,1,-32768,1,-32768,1
695,7,1,6,1,-1,1,-6,1,4,1,3,1,-32768,1,-32768,1,-32768,1,-32768,1,-32768,1,-32768,1
696,6,1,6,1,0,1,-6,1,3,1,3,1,-32768,1,-32768,1,-32768,1,-32768,1,-32768,1,-32768,1
697,6,1,6,1,0,1,-6,1,3,1,3,1,-32768,1,-32768,1,-32768,1,-32768,1,-32768,1,-32768,1
698,5,1,6,1,1,1,-5,1,2,1,4,1,-32768,1,-32768,1,-32768,1,-32768,1,-32768,1,-32768,1
699,5,1,6,1,1,1,-5,1,2,1,4,1,-32768,1,-32768,1,-32768,1,-32768,1,-32768,1,-32768,1
700,5,1,6,1,1,1,-5,1,2,1,4,1,-32768,1,-32768,1,-32768,1,-32768,1,-32768,1,-32768,1
701,5,1,6,1,1,1,-5,1,2,1,4,1,-32768,1,-32768,1,-32768,1,-32768,1,-32768,1,-32768,1
702,6,1,6,1,0,1,-6,1,3,1,3,1,-32768,1,-32768,1,-32768,1,-32768,1,-32768,1,-32768,1
703,6,1,5,1,-1,1,-5,1,4,1,2,1,-32768,1,-32768,1,-32768,1,-32768,1,-32768,1,-32768,1
704,6,1,5,1,-1,1,-5,1,4,1,2,1,-32768,1,-32768,1,-32768,1,-32768,1,-32768,1,-32768,1
705,7,1,6,1,-1,1,-6,1,4,1,3,1,-32768,1,-32768,1,-32768,1,-32768,1,-32768,1,-32768,1
706,7,1,6,1,-1,1,-6,1,4,1,3,1,-32768,1,-32768,1,-32768,1,-32768,1,-32768,1,-32768,1
707,7,1,6,1,-1,1,-6,1,4,1,3,1,-32768,1,-32768,1,-32768,1,-32768,1,-32768,1,-32768,1
708,7,1,6,1,-1,1,-6,1,4,1,3,1,-32768,1,-32768,1,-32768,1,-32768,1,-32768,1,-32768,1
709,7,1,6,1,-1,1,-6,1,4,1,3,1,-32768,1,-32768,1,-32768,1,-32768,1,-32768,1,-32768,1
710,6,1,6,1,0,1,-6,1,3,1,3,1,-32768,1,-32768,1,-32768,1,-32768,1,-32768,1,-32768,1
711,6,1,6,1,0,1,-6,1,3,1,3,1,-32768,1,-32768,1,-32768,1,-32768,1,-32768,1,-32768,1
712,7,1,6,1,-1,1,-6,1,4,1,3,1,-32768,1,-32768,1,-32768,1,-32768,1,-32768,1,-32768,1
713,7,1,6,1,-1,1,-6,1,4,1,3,1,-32768,1,-32768,1,-32768,1,-32768,1,-32768,1,-32768,1
714,6,1,7,1,1,1,-6,1,3,1,4,1,-32768,1,-32768,1,-32768,1,-32768,1,-32768,1,-32768,1
715,7,1,7,1,0,1,-7,1,4,1,4,1,-32768,1,-32768,1,-32768,1,-32768,1,-32768,1,-32768,1
716,6,1,7,1,1,1,-6,1,3,1,4,1,-32768,1,-32768,1,-32768,1,-32768,1,-32768,1,-32768,1
717,6,1,7,1,1,1,-6,1,3,1,4,1,-32768,1,-32768,1,-32768,1,-32768,1,-32768,1,-32768,1
718,6,1,7,1,1,1,-6,1,3,1,4,1,-32768,1,-32768,1,-32768,1,-32768,1,-32768,1,-32768,1
719,6,1,7,1,1,1,-6,1,3,1,4,1,-32768,1,-32768,1,-32768,1,-32768,1,-32768,1,-32768,1
720,6,1,7,1,1,1,-6,1,3,1,4,1,-32768,1,-32768,1,-32768,1,-32768,1,-32768,1,-32768,1
721,7,1,6,1,-1,1,-6,1,4,1,3,1,-32768,1,-32768,1,-32768,1,-32768,1,-32768,1,-32768,1
722,7,1,6,1,-1,1,-6,1,4,1,3,1,-32768,1,-32768,1,-32768,1,-32768,1,-32768,1,-32768,1
723,7,1,6,1,-1,1,-6,1,4,1,3,1,-32768,1,-32768,1,-32768,1,-32768,1,-32768,1,-32768,1
724,7,1,6,1,-1,1,-6,1,4,1,3,1,-32768,1,-32768,1,-32768,1,-32768,1,-32768,1,-32768,1
725,8,1,6,1,-2,1,-7,1,5,1,2,1,-32768,1,-32768,1,-32768,1,-32768,1,-32768,1,-32768,1
726,8,1,7,1,-1,1,-7,1,5,1,3,1,-32768,1,-32768,1,-32768,1,-32768,1,-32768,1,-32768,1
727,7,1,7,1,0,1,-7,1,4,1,4,1,-32768,1,-32768,1,-32768,1,-32768,1,-32768,1,-32768,1
728,7,1,8,1,1,1,-7,1,3,1,5,1,-32768,1,-32768,1,-32768,1,-32768,1,-32768,1,-32768,1
729,8,1,9,1,1,1,-8,1,4,1,5,1,-32768,1,-32768,1,-32768,1,-32768,1,-32768,1,-32768,1
730,7,1,9,1,2,1,-8,1,3,1,6,1,-32768,1,-32768,1,-32768,1,-32768,1,-32768,1,-32768,1
731,8,1,9,1,1,1,-8,1,4,1,5,1,-32768,1,-32768,1,-32768,1,-32768,1,-32768,1,-32768,1
732,9,1,9,1,0,1,-9,1,5,1,5,1,-32768,1,-32768,1,-32768,1,-32768,1,-32768,1,-32768,1
733,9,1,9,1,0,1,-9,1,5,1,5,1,-32768,1,-32768,1,-32768,1,-32768,1,-32768,1,-32768,1
734,9,1,9,1,0,1,-9,1,5,1,5,1,-32768,1,-32768,1,-32768,1,-32768,1,-32768,1,-32768,1
735,10,1,9,1,-1,1,-9,1,6,1,4,1,-32768,1,-32768,1,-32768,1,-32768,1,-32768,1,-32768,1
736,9,1,9,1,0,1,-9,1,5,1,5,1,-32768,1,-32768,1,-32768,1,-32768,1,-32768,1,-32768,1
737,9,1,9,1,0,1,-9,1,5,1,5,1,-32768,1,-32768,1,-32768,1,-32768,1,-32768,1,-32768,1
738,9,1,8,1,-1,1,-8,1,5,1,4,1,-32768,1,-32768,1,-32768,1,-32768,1,-32768,1,-32768,1
739,9,1,9,1,0,1,-9,1,5,1,5,1,-32768,1,-32768,1,-32768,1,-32768,1,-32768,1,-32768,1
740,9,1,9,1,0,1,-9,1,5,1,5,1,-32768,1,-32768,1,-32768,1,-32768,1,-32768,1,-32768,1
741,9,1,9,1,0,1,-9,1,5,1,5,1,-32768,1,-32768,1,-32768,1,-32768,1,-32768,1,-32768,1
742,9,1,9,1,0,1,-9,1,5,1,5,1,-32768,1,-32768,1,-32768,1,-32768,1,-32768,1,-32768,1
743,10,1,8,1,-2,1,-9,1,6,1,3,1,-32768,1,-32768,1,-32768,1,-32768,1,-32768,1,-32768,1
744,10,1,8,1,-2,1,-9,1,6,1,3,1,-32768,1,-32768,1,-32768,1,-32768,1,-32768,1,-32768,1
745,10,1,8,1,-2,1,-9,1,6,1,3,1,-32768,1,-32768,1,-32768,1,-32768,1,-32768,1,-32768,1
746,10,1,8,1,-2,1,-9,1,6,1,3,1,-32768,1,-32768,1,-32768,1,-32768,1,-32768,1,-32768,1
747,10,1,8,1,-2,1,-9,1,6,1,3,1,-32768,1,-32768,1,-32768,1,-32768,1,-32768,1,-32768,1
748,9,1,8,1,-1,1,-8,1,5,1,4,1,-32768,1,-32768,1,-32768,1,-32768,1,-32768,1,-32768,1
749,9,1,8,1,-1,1,-8,1,5,1,4,1,-32768,1,-32768,1,-32768,1,-32768,1,-32768,1,-32768,1
750,9,1,8,1,-1,1,-8,1,5,1,4,1,-32768,1,-32768,1,-32768,1,-32768,1,-32768,1,-32768,1
751,9,1,7,1,-2,1,-8,1,6,1,3,1,-32768,1,-32768,1,-32768,1,-32768,1,-32768,1,-32768,1
752,10,1,7,1,-3,1,-8,1,7,1,2,1,-32768,1,-32768,1,-32768,1,-32768,1,-32768,1,-32768,1
753,10,1,7,1,-3,1,-8,1,7,1,2,1,-32768,1,-32768,1,-32768,1,-32768,1,-32768,1,-32768,1
754,9,1,7,1,-2,1,-8,1,6,1,3,1,-32768,1,-32768,1,-32768,1,-32768,1,-32768,1,-32768,1
755,9,1,8,1,-1,1,-8,1,5,1,4,1,-32768,1,-32768,1,-32768,1,-32768,1,-32768,1,-32768,1
756,8,1,8,1,0,1,-8,1,4,1,4,1,-32768,1,-32768,1,-32768,1,-32768,1,-32768,1,-32768,1
757,8,1,8,1,0,1,-8,1,4,1,4,1,-32768,1,-32768,1,-32768,1,-32768,1,-32768,1,-32768,1
758,8,1,8,1,0,1,-8,1,4,1,4,1,-32768,1,-32768,1,-32768,1,-32768,1,-32768,1,-32768,1
759,8,1,7,1,-1,1,-7,1,5,1,3,1,-32768,1,-32768,1,-32768,1,-32768,1,-32768,1,-32768,1
760,7,1,7,1,0,1,-7,1,4,1,4,1,-32768,1,-32768,1,-32768,1,-32768,1,-32768,1,-32768,1
761,8,1,7,1,-1,1,-7,1,5,1,3,1,-32768,1,-32768,1,-32768,1,-32768,1,-32768,1,-32768,1
762,9,1,7,1,-2,1,-8,1,6,1,3,1,-32768,1,-32768,1,-32768,1,-32768,1,-32768,1,-32768,1
763,10,1,8,1,-2,1,-9,1,6,1,3,1,-32768,1,-32768,1,-32768,1,-32768,1,-32768,1,-32768,1
764,10,1,8,1,-2,1,-9,1,6,1,3,1,-32768,1,-32768,1,-32768,1,-32768,1,-32768,1,-32768,1
765,10,1,8,1,-2,1,-9,1,6,1,3,1,-32768,1,-32768,1,-32768,1,-32768,1,-32768,1,-32768,1
766,9,1,8,1,-1,1,-8,1,5,1,4,1,-32768,1,-32768,1,-32768,1,-32768,1,-32768,1,-32768,1
767,9,1,8,1,-1,1,-8,1,5,1,4,1,-32768,1,-32768,1,-32768,1,-32768,1,-32768,1,-32768,1
768,9,1,8,1,-1,1,-8,1,5,1,4,1,-32768,1,-32768,1,-32768,1,-32768,1,-32768,1,-32768,1
769,9,1,7,1,-2,1,-8,1,6,1,3,1,-32768,1,-32768,1,-32768,1,-32768,1,-32768,1,-32768,1
770,8,1,7,1,-1,1,-7,1,5,1,3,1,-32768,1,-32768,1,-32768,1,-32768,1,-32768,1,-32768,1
771,9,1,7,1,-2,1,-8,1,6,1,3,1,-32768,1,-32768,1,-32768,1,-32768,1,-32768,1,-32768,1
772,10,1,8,1,-2,1,-9,1,6,1,3,1,-32768,1,-32768,1,-32768,1,-32768,1,-32768,1,-32768,1
773,11,1,8,1,-3,1,-9,1,7,1,3,1,-32768,1,-32768,1,-32768,1,-32768,1,-32768,1,-32768,1
774,11,1,8,1,-3,1,-9,1,7,1,3,1,-32768,1,-32768,1,-32768,1,-32768,1,-32768,1,-32768,1
775,11,1,9,1,-2,1,-10,1,7,1,4,1,-32768,1,-32768,1,-32768,1,-32768,1,-32768,1,-32768,1
776,10,1,9,1,-1,1,-9,1,6,1,4,1,-32768,1,-32768,1,-32768,1,-32768,1,-32768,1,-32768,1
777,10,1,9,1,-1,1,-9,1,6,1,4,1,-32768,1,-32768,1,-32768,1,-32768,1,-32768,1,-32768,1
778,10,1,9,1,-1,1,-9,1,6,1,4,1,-32768,1,-32768,1,-32768,1,-32768,1,-32768,1,-32768,1
779,10,1,9,1,-1,1,-9,1,6,1,4,1,-32768,1,-32768,1,-32768,1,-32768,1,-32768,1,-32768,1
780,9,1,10,1,1,1,-9,1,4,1,6,1,-32768,1,-32768,1,-32768,1,-32768,1,-32768,1,-32768,1
781,10,1,9,1,-1,1,-9,1,6,1,4,1,-32768,1,-32768,1,-32768,1,-32768,1,-32768,1,-32768,1
782,11,1,9,1,-2,1,-10,1,7,1,4,1,-32768,1,-32768,1,-32768,1,-32768,1,-32768,1,-32768,1
783,12,1,9,1,-3,1,-10,1,8,1,3,1,-32768,1,-32768,1,-32768,1,-32768,1,-32768,1,-32768,1
784,12,1,10,1,-2,1,-11,1,7,1,4,1,-32768,1,-32768,1,-32768,1,-32768,1,-32768,1,-32768,1
785,13,1,9,1,-4,1,-11,1,9,1,3,1,-32768,1,-32768,1,-32768,1,-32768,1,-32768,1,-32768,1
786,12,1,10,1,-2,1,-11,1,7,1,4,1,-32768,1,-32768,1,-32768,1,-32768,1,-32768,1,-32768,1
787,11,1,10,1,-1,1,-10,1,6,1,5,1,-32768,1,-32768,1,-32768,1,-32768,1,-32768,1,-32768,1
788,11,1,11,1,0,1,-11,1,6,1,6,1,-32768,1,-32768,1,-32768,1,-32768,1,-32768,1,-32768,1
789,10,1,11,1,1,1,-10,1,5,1,6,1,-32768,1,-32768,1,-32768,1,-32768,1,-32768,1,-32768,1
790,10,1,10,1,0,1,-10,1,5,1,5,1,-32768,1,-32768,1,-32768,1,-32768,1,-32768,1,-32768,1
791,10,1,10,1,0,1,-10,1,5,1,5,1,-32768,1,-32768,1,-32768,1,-32768,1,-32768,1,-32768,1
792,11,1,10,1,-1,1,-10,1,6,1,5,1,-32768,1,-32768,1,-32768,1,-32768,1,-32768,1,-32768,1
793,12,1,10,1,-2,1,-11,1,7,1,4,1,-32768,1,-32768,1,-32768,1,-32768,1,-32768,1,-32768,1
794,12,1,10,1,-2,1,-11,1,7,1,4,1,-32768,1,-32768,1,-32768,1,-32768,1,-32768,1,-32768,1
795,11,1,10,1,-1,1,-10,1,6,1,5,1,-32768,1,-32768,1,-32768,1,-32768,1,-32768,1,-32768,1
796,11,1,10,1,-1,1,-10,1,6,1,5,1,-32768,1,-32768,1,-32768,1,-32768,1,-32768,1,-32768,1
797,10,1,9,1,-1,1,-9,1,6,1,4,1,-32768,1,-32768,1,-32768,1,-32768,1,-32768,1,-32768,1
798,10,1,9,1,-1,1,-9,1,6,1,4,1,-32768,1,-32768,1,-32768,1,-32768,1,-32768,1,-32768,1
799,9,1,9,1,0,1,-9,1,5,1,5,1,-32768,1,-32768,1,-32768,1,-32768,1,-32768,1,-32768,1
800,9,1,9,1,0,1,-9,1,5,1,5,1,-32768,1,-32768,1,-32768,1,-32768,1,-32768,1,-32768,1
801,10,1,9,1,-1,1,-9,1,6,1,4,1,-32768,1,-32768,1,-32768,1,-32768,1,-32768,1,-32768,1
802,11,1,9,1,-2,1,-10,1,7,1,4,1,-32768,1,-32768,1,-32768,1,-32768,1,-32768,1,-32768,1
803,12,1,9,1,-3,1,-10,1,8,1,3,1,-32768,1,-32768,1,-32768,1,-32768,1,-32768,1,-32768,1
804,12,1,9,1,-3,1,-10,1,8,1,3,1,-32768,1,-32768,1,-32768,1,-32768,1,-32768,1,-32768,1
805,12,1,9,1,-3,1,-10,1,8,1,3,1,-32768,1,-32768,1,-32768,1,-32768,1,-32768,1,-32768,1
806,11,1,9,1,-2,1,-10,1,7,1,4,1,-32768,1,-32768,1,-32768,1,-32768,1,-32768,1,-32768,1
807,11,1,9,1,-2,1,-10,1,7,1,4,1,-32768,1,-32768,1,-32768,1,-32768,1,-32768,1,-32768,1
808,11,1,10,1,-1,1,-10,1,6,1,5,1,-32768,1,-32768,1,-32768,1,-32768,1,-32768,1,-32768,1
809,11,1,10,1,-1,1,-10,1,6,1,5,1,-32768,1,-32768,1,-32768,1,-32768,1,-32768,1,-32768,1
810,11,1,10,1,-1,1,-10,1,6,1,5,1,-32768,1,-32768,1,-32768,1,-32768,1,-32768,1,-32768,1
811,12,1,10,1,-2,1,-11,1,7,1,4,1,-32768,1,-32768,1,-32768,1,-32768,1,-32768,1,-32768,1
812,13,1,10,1,-3,1,-11,1,8,1,4,1,-32768,1,-32768,1,-32768,1,-32768,1,-32768,1,-32768,1
813,14,1,10,1,-4,1,-12,1,9,1,3,1,-32768,1,-32768,1,-32768,1,-32768,1,-32768,1,-32768,1
814,15,1,11,1,-4,1,-13,1,10,1,4,1,-32768,1,-32768,1,-32768,1,-32768,1,-32768,1,-32768,1
815,15,1,11,1,-4,1,-13,1,10,1,4,1,-32768,1,-32768,1,-32768,1,-32768,1,-32768,1,-32768,1
816,14,1,11,1,-3,1,-12,1,9,1,4,1,-32768,1,-32768,1,-32768,1,-32768,1,-32768,1,-32768,1
817,13,1,11,1,-2,1,-12,1,8,1,5,1,-32768,1,-32768,1,-32768,1,-32768,1,-32768,1,-32768,1
818,12,1,11,1,-1,1,-11,1,7,1,5,1,-32768,1,-32768,1,-32768,1,-32768,1,-32768,1,-32768,1
819,12,1,11,1,-1,1,-11,1,7,1,5,1,-32768,1,-32768,1,-32768,1,-32768,1,-32768,1,-32768,1
820,12,1,11,1,-1,1,-11,1,7,1,5,1,-32768,1,-32768,1,-32768,1,-32768,1,-32768,1,-32768,1
821,13,1,11,1,-2,1,-12,1,8,1,5,1,-32768,1,-32768,1,-32768,1,-32768,1,-32768,1,-32768,1
822,14,1,11,1,-3,1,-12,1,9,1,4,1,-32768,1,-32768,1,-32768,1,-32768,1,-32768,1,-32768,1
823,14,1,11,1,-3,1,-12,1,9,1,4,1,-32768,1,-32768,1,-32768,1,-32768,1,-32768,1,-32768,1
824,15,1,11,1,-4,1,-13,1,10,1,4,1,-32768,1,-32768,1,-32768,1,-32768,1,-32768,1,-32768,1
825,15,1,11,1,-4,1,-13,1,10,1,4,1,-32768,1,-32768,1,-32768,1,-32768,1,-32768,1,-32768,1
826,14,1,11,1,-3,1,-12,1,9,1,4,1,-32768,1,-32768,1,-32768,1,-32768,1,-32768,1,-32768,1
827,13,1,11,1,-2,1,-12,1,8,1,5,1,-32768,1,-32768,1,-32768,1,-32768,1,-32768,1,-32768,1
828,12,1,11,1,-1,1,-11,1,7,1,5,1,-32768,1,-32768,1,-32768,1,-32768,1,-32768,1,-32768,1
829,12,1,11,1,-1,1,-11,1,7,1,5,1,-32768,1,-32768,1,-32768,1,-32768,1,-32768,1,-32768,1
830,12,1,11,1,-1,1,-11,1,7,1,5,1,-32768,1,-32768,1,-32768,1,-32768,1,-32768,1,-32768,1
831,13,1,10,1,-3,1,-11,1,8,1,4,1,-32768,1,-32768,1,-32768,1,-32768,1,-32768,1,-32768,1
832,14,1,10,1,-4,1,-12,1,9,1,3,1,-32768,1,-32768,1,-32768,1,-32768,1,-32768,1,-32768,1
833,15,1,10,1,-5,1,-12,1,10,1,3,1,-32768,1,-32768,1,-32768,1,-32768,1,-32768,1,-32768,1
834,15,1,10,1,-5,1,-12,1,10,1,3,1,-32768,1,-32768,1,-32768,1,-32768,1,-32768,1,-32768,1
835,15,1,10,1,-5,1,-12,1,10,1,3,1,-32768,1,-32768,1,-32768,1,-32768,1,-32768,1,-32768,1
836,13,1,10,1,-3,1,-11,1,8,1,4,1,-32768,1,-32768,1,-32768,1,-32768,1,-32768,1,-32768,1
837,13,1,10,1,-3,1,-11,1,8,1,4,1,-32768,1,-32768,1,-32768,1,-32768,1,-32768,1,-32768,1
838,12,1,10,1,-2,1,-11,1,7,1,4,1,-32768,1,-32768,1,-32768,1,-32768,1,-32768,1,-32768,1
839,12,1,10,1,-2,1,-11,1,7,1,4,1,-32768,1,-32768,1,-32768,1,-32768,1,-32768,1,-32768,1
840,12,1,11,1,-1,1,-11,1,7,1,5,1,-32768,1,-32768,1,-32768,1,-32768,1,-32768,1,-32768,1
841,13,1,11,1,-2,1,-12,1,8,1,5,1,-32768,1,-32768,1,-32768,1,-32768,1,-32768,1,-32768,1
842,15,1,11,1,-4,1,-13,1,10,1,4,1,-32768,1,-32768,1,-32768,1,-32768,1,-32768,1,-32768,1
843,16,1,11,1,-5,1,-13,1,11,1,3,1,-32768,1,-32768,1,-32768,1,-32768,1,-32768,1,-32768,1
844,16,1,11,1,-5,1,-13,1,11,1,3,1,-32768,1,-32768,1,-32768,1,-32768,1,-32768,1,-32768,1
845,16,1,11,1,-5,1,-13,1,11,1,3,1,-32768,1,-32768,1,-32768,1,-32768,1,-32768,1,-32768,1
846,15,1,11,1,-4,1,-13,1,10,1,4,1,-32768,1,-32768,1,-32768,1,-32768,1,-32768,1,-32768,1
847,14,1,11,1,-3,1,-12,1,9,1,4,1,-32768,1,-32768,1,-32768,1,-32768,1,-32768,1,-32768,1
848,14,1,11,1,-3,1,-12,1,9,1,4,1,-32768,1,-32768,1,-32768,1,-32768,1,-32768,1,-32768,1
849,14,1,11,1,-3,1,-12,1,9,1,4,1,-32768,1,-32768,1,-32768,1,-32768,1,-32768,1,-32768,1
850,14,1,12,1,-2,1,-13,1,8,1,5,1,-32768,1,-32768,1,-32768,1,-32768,1,-32768,1,-32768,1
851,15,1,12,1,-3,1,-13,1,9,1,5,1,-32768,1,-32768,1,-32768,1,-32768,1,-32768,1,-32768,1
852,15,1,11,1,-4,1,-13,1,10,1,4,1,-32768,1,-32768,1,-32768,1,-32768,1,-32768,1,-32768,1
853,16,1,12,1,-4,1,-14,1,10,1,4,1,-32768,1,-32768,1,-32768,1,-32768,1,-32768,1,-32768,1
854,16,1,12,1,-4,1,-14,1,10,1,4,1,-32768,1,-32768,1,-32768,1,-32768,1,-32768,1,-32768,1
855,17,1,11,1,-6,1,-14,1,12,1,3,1,-32768,1,-32768,1,-32768,1,-32768,1,-32768,1,-32768,1
856,16,1,12,1,-4,1,-14,1,10,1,4,1,-32768,1,-32768,1,-32768,1,-32768,1,-32768,1,-32768,1
857,16,1,12,1,-4,1,-14,1,10,1,4,1,-32768,1,-32768,1,-32768,1,-32768,1,-32768,1,-32768,1
858,15,1,12,1,-3,1,-13,1,9,1,5,1,-32768,1,-32768,1,-32768,1,-32768,1,-32768,1,-32768,1
859,15,1,13,1,-2,1,-14,1,9,1,6,1,-32768,1,-32768,1,-32768,1,-32768,1,-32768,1,-32768,1
860,15,1,13,1,-2,1,-14,1,9,1,6,1,-32768,1,-32768,1,-32768,1,-32768,1,-32768,1,-32768,1
861,15,1,13,1,-2,1,-14,1,9,1,6,1,-32768,1,-32768,1,-32768,1,-32768,1,-32768,1,-32768,1
862,16,1,12,1,-4,1,-14,1,10,1,4,1,-32768,1,-32768,1,-32768,1,-32768,1,-32768,1,-32768,1
863,17,1,12,1,-5,1,-14,1,11,1,4,1,-32768,1,-32768,1,-32768,1,-32768,1,-32768,1,-32768,1
864,17,1,12,1,-5,1,-14,1,11,1,4,1,-32768,1,-32768,1,-32768,1,-32768,1,-32768,1,-32768,1
865,18,1,13,1,-5,1,-15,1,12,1,4,1,-32768,1,-32768,1,-32768,1,-32768,1,-32768,1,-32768,1
866,17,1,13,1,-4,1,-15,1,11,1,5,1,-32768,1,-32768,1,-32768,1,-32768,1,-32768,1,-32768,1
867,17,1,13,1,-4,1,-15,1,11,1,5,1,-32768,1,-32768,1,-32768,1,-32768,1,-32768,1,-32768,1
868,17,1,14,1,-3,1,-15,1,10,1,6,1,-32768,1,-32768,1,-32768,1,-32768,1,-32768,1,-32768,1
869,17,1,14,1,-3,1,-15,1,10,1,6,1,-32768,1,-32768,1,-32768,1,-32768,1,-32768,1,-32768,1
870,15,1,14,1,-1,1,-14,1,8,1,7,1,-32768,1,-32768,1,-32768,1,-32768,1,-32768,1,-32768,1
871,15,1,13,1,-2,1,-14,1,9,1,6,1,-32768,1,-32768,1,-32768,1,-32768,1,-32768,1,-32768,1
872,15,1,13,1,-2,1,-14,1,9,1,6,1,-32768,1,-32768,1,-32768,1,-32768,1,-32768,1,-32768,1
873,15,1,13,1,-2,1,-14,1,9,1,6,1,-32768,1,-32768,1,-32768,1,-32768,1,-32768,1,-32768,1
874,15,1,12,1,-3,1,-13,1,9,1,5,1,-32768,1,-32768,1,-32768,1,-32768,1,-32768,1,-32768,1
875,16,1,12,1,-4,1,-14,1,10,1,4,1,-32768,1,-32768,1,-32768,1,-32768,1,-32768,1,-32768,1
876,15,1,11,1,-4,1,-13,1,10,1,4,1,-32768,1,-32768,1,-32768,1,-32768,1,-32768,1,-32768,1
877,15,1,10,1,-5,1,-12,1,10,1,3,1,-32768,1,-32768,1,-32768,1,-32768,1,-32768,1,-32768,1
878,14,1,10,1,-4,1,-12,1,9,1,3,1,-32768,1,-32768,1,-32768,1,-32768,1,-32768,1,-32768,1
879,14,1,9,1,-5,1,-11,1,10,1,2,1,-32768,1,-32768,1,-32768,1,-32768,1,-32768,1,-32768,1
880,13,1,9,1,-4,1,-11,1,9,1,3,1,-32768,1,-32768,1,-32768,1,-32768,1,-32768,1,-32768,1
881,14,1,9,1,-5,1,-11,1,10,1,2,1,-32768,1,-32768,1,-32768,1,-32768,1,-32768,1,-32768,1
882,14,1,9,1,-5,1,-11,1,10,1,2,1,-32768,1,-32768,1,-32768,1,-32768,1,-32768,1,-32768,1
883,13,1,9,1,-4,1,-11,1,9,1,3,1,-32768,1,-32768,1,-32768,1,-32768,1,-32768,1,-32768,1
884,13,1,9,1,-4,1,-11,1,9,1,3,1,-32768,1,-32768,1,-32768,1,-32768,1,-32768,1,-32768,1
885,14,1,9,1,-5,1,-11,1,10,1,2,1,-32768,1,-32768,1,-32768,1,-32768,1,-32768,1,-32768,1
886,12,1,9,1,-3,1,-10,1,8,1,3,1,-32768,1,-32768,1,-32768,1,-32768,1,-32768,1,-32768,1
887,12,1,9,1,-3,1,-10,1,8,1,3,1,-32768,1,-32768,1,-32768,1,-32768,1,-32768,1,-32768,1
888,12,1,9,1,-3,1,-10,1,8,1,3,1,-32768,1,-32768,1,-32768,1,-32768,1,-32768,1,-32768,1
889,11,1,9,1,-2,1,-10,1,7,1,4,1,-32768,1,-32768,1,-32768,1,-32768,1,-32768,1,-32768,1
890,11,1,10,1,-1,1,-10,1,6,1,5,1,-32768,1,-32768,1,-32768,1,-32768,1,-32768,1,-32768,1
891,12,1,10,1,-2,1,-11,1,7,1,4,1,-32768,1,-32768,1,-32768,1,-32768,1,-32768,1,-32768,1
892,13,1,10,1,-3,1,-11,1,8,1,4,1,-32768,1,-32768,1,-32768,1,-32768,1,-32768,1,-32768,1
893,14,1,10,1,-4,1,-12,1,9,1,3,1,-32768,1,-32768,1,-32768,1,-32768,1,-32768,1,-32768,1
894,14,1,9,1,-5,1,-11,1,10,1,2,1,-32768,1,-32768,1,-32768,1,-32768,1,-32768,1,-32768,1
895,15,1,9,1,-6,1,-12,1,11,1,2,1,-32768,1,-32768,1,-32768,1,-32768,1,-32768,1,-32768,1
896,14,1,9,1,-5,1,-11,1,10,1,2,1,-32768,1,-32768,1,-32768,1,-32768,1,-32768,1,-32768,1
897,14,1,9,1,-5,1,-11,1,10,1,2,1,-32768,1,-32768,1,-32768,1,-32768,1,-32768,1,-32768,1
898,13,1,9,1,-4,1,-11,1,9,1,3,1,-32768,1,-32768,1,-32768,1,-32768,1,-32768,1,-32768,1
899,13,1,10,1,-3,1,-11,1,8,1,4,1,-32768,1,-32768,1,-32768,1,-32768,1,-32768,1,-32768,1
900,12,1,10,1,-2,1,-11,1,7,1,4,1,-32768,1,-32768,1,-32768,1,-32768,1,-32768,1,-32768,1
901,13,1,10,1,-3,1,-11,1,8,1,4,1,-32768,1,-32768,1,-32768,1,-32768,1,-32768,1,-32768,1
902,14,1,10,1,-4,1,-12,1,9,1,3,1,-32768,1,-32768,1,-32768,1,-32768,1,-32768,1,-32768,1
903,14,1,10,1,-4,1,-12,1,9,1,3,1,-32768,1,-32768,1,-32768,1,-32768,1,-32768,1,-32768,1
904,13,1,10,1,-3,1,-11,1,8,1,4,1,-32768,1,-32768,1,-32768,1,-32768,1,-32768,1,-32768,1
905,14,1,10,1,-4,1,-12,1,9,1,3,1,-32768,1,-32768,1,-32768,1,-32768,1,-32768,1,-32768,1
906,14,1,10,1,-4,1,-12,1,9,1,3,1,-32768,1,-32768,1,-32768,1,-32768,1,-32768,1,-32768,1
907,13,1,10,1,-3,1,-11,1,8,1,4,1,-32768,1,-32768,1,-32768,1,-32768,1,-32768,1,-32768,1
908,13,1,10,1,-3,1,-11,1,8,1,4,1,-32768,1,-32768,1,-32768,1,-32768,1,-32768,1,-32768,1
909,13,1,10,1,-3,1,-11,1,8,1,4,1,-32768,1,-32768,1,-32768,1,-32768,1,-32768,1,-32768,1
910,13,1,11,1,-2,1,-12,1,8,1,5,1,-32768,1,-32768,1,-32768,1,-32768,1,-32768,1,-32768,1
911,14,1,10,1,-4,1,-12,1,9,1,3,1,-32768,1,-32768,1,-32768,1,-32768,1,-32768,1,-32768,1
912,15,1,10,1,-5,1,-12,1,10,1,3,1,-32768,1,-32768,1,-32768,1,-32768,1,-32768,1,-32768,1
913,16,1,10,1,-6,1,-13,1,11,1,2,1,-32768,1,-32768,1,-32768,1,-32768,1,-32768,1,-32768,1
914,16,1,10,1,-6,1,-13,1,11,1,2,1,-32768,1,-32768,1,-32768,1,-32768,1,-32768,1,-32768,1
915,16,1,10,1,-6,1,-13,1,11,1,2,1,-32768,1,-32768,1,-32768,1,-32768,1,-32768,1,-32768,1
916,15,1,11,1,-4,1,-13,1,10,1,4,1,-32768,1,-32768,1,-32768,1,-32768,1,-32768,1,-32768,1
917,15,1,11,1,-4,1,-13,1,10,1,4,1,-32768,1,-32768,1,-32768,1,-32768,1,-32768,1,-32768,1
918,15,1,12,1,-3,1,-13,1,9,1,5,1,-32768,1,-32768,1,-32768,1,-32768,1,-32768,1,-32768,1
919,15,1,13,1,-2,1,-14,1,9,1,6,1,-32768,1,-32768,1,-32768,1,-32768,1,-32768,1,-32768,1
920,14,1,13,1,-1,1,-13,1,8,1,6,1,-32768,1,-32768,1,-32768,1,-32768,1,-32768,1,-32768,1
921,15,1,12,1,-3,1,-13,1,9,1,5,1,-32768,1,-32768,1,-32768,1,-32768,1,-32768,1,-32768,1
922,16,1,12,1,-4,1,-14,1,10,1,4,1,-32768,1,-32768,1,-32768,1,-32768,1,-32768,1,-32768,1
923,16,1,11,1,-5,1,-13,1,11,1,3,1,-32768,1,-32768,1,-32768,1,-32768,1,-32768,1,-32768,1
924,16,1,11,1,-5,1,-13,1,11,1,3,1,-32768,1,-32768,1,-32768,1,-32768,1,-32768,1,-32768,1
925,16,1,11,1,-5,1,-13,1,11,1,3,1,-32768,1,-32768,1,-32768,1,-32768,1,-32768,1,-32768,1
926,15,1,11,1,-4,1,-13,1,10,1,4,1,-32768,1,-32768,1,-32768,1,-32768,1,-32768,1,-32768,1
927,15,1,11,1,-4,1,-13,1,10,1,4,1,-32768,1,-32768,1,-32768,1,-32768,1,-32768,1,-32768,1
928,15,1,11,1,-4,1,-13,1,10,1,4,1,-32768,1,-32768,1,-32768,1,-32768,1,-32768,1,-32768,1
929,15,1,11,1,-4,1,-13,1,10,1,4,1,-32768,1,-32768,1,-32768,1,-32768,1,-32768,1,-32768,1
930,15,1,11,1,-4,1,-13,1,10,1,4,1,-32768,1,-32768,1,-32768,1,-32768,1,-32768,1,-32768,1
931,16,1,11,1,-5,1,-13,1,11,1,3,1,-32768,1,-32768,1,-32768,1,-32768,1,-32768,1,-32768,1
932,17,1,11,1,-6,1,-14,1,12,1,3,1,-32768,1,-32768,1,-32768,1,-32768,1,-32768,1,-32768,1
933,18,1,11,1,-7,1,-14,1,13,1,2,1,-32768,1,-32768,1,-32768,1,-32768,1,-32768,1,-32768,1
934,18,1,12,1,-6,1,-15,1,12,1,3,1,-32768,1,-32768,1,-32768,1,-32768,1,-32768,1,-32768,1
935,18,1,12,1,-6,1,-15,1,12,1,3,1,-32768,1,-32768,1,-32768,1,-32768,1,-32768,1,-32768,1
936,17,1,13,1,-4,1,-15,1,11,1,5,1,-32768,1,-32768,1,-32768,1,-32768,1,-32768,1,-32768,1
937,16,1,13,1,-3,1,-14,1,10,1,5,1,-32768,1,-32768,1,-32768,1,-32768,1,-32768,1,-32768,1
938,16,1,12,1,-4,1,-14,1,10,1,4,1,-32768,1,-32768,1,-32768,1,-32768,1,-32768,1,-32768,1
939,16,1,12,1,-4,1,-14,1,10,1,4,1,-32768,1,-32768,1,-32768,1,-32768,1,-32768,1,-32768,1
940,16,1,12,1,-4,1,-14,1,10,1,4,1,-32768,1,-32768,1,-32768,1,-32768,1,-32768,1,-32768,1
941,17,1,11,1,-6,1,-14,1,12,1,3,1,-32768,1,-32768,1,-32768,1,-32768,1,-32768,1,-32768,1
942,18,1,11,1,-7,1,-14,1,13,1,2,1,-32768,1,-32768,1,-32768,1,-32768,1,-32768,1,-32768,1
943,19,1,11,1,-8,1,-15,1,14,1,2,1,-32768,1,-32768,1,-32768,1,-32768,1,-32768,1,-32768,1
944,19,1,11,1,-8,1,-15,1,14,1,2,1,-32768,1,-32768,1,-32768,1,-32768,1,-32768,1,-32768,1
945,18,1,12,1,-6,1,-15,1,12,1,3,1,-32768,1,-32768,1,-32768,1,-32768,1,-32768,1,-32768,1
946,17,1,12,1,-5,1,-14,1,11,1,4,1,-32768,1,-32768,1,-32768,1,-32768,1,-32768,1,-32768,1
947,16,1,13,1,-3,1,-14,1,10,1,5,1,-32768,1,-32768,1,-32768,1,-32768,1,-32768,1,-32768,1
948,16,1,13,1,-3,1,-14,1,10,1,5,1,-32768,1,-32768,1,-32768,1,-32768,1,-32768,1,-32768,1
949,16,1,13,1,-3,1,-14,1,10,1,5,1,-32768,1,-32768,1,-32768,1,-32768,1,-32768,1,-32768,1
950,16,1,13,1,-3,1,-14,1,10,1,5,1,-32768,1,-32768,1,-32768,1,-32768,1,-32768,1,-32768,1
951,17,1,13,1,-4,1,-15,1,11,1,5,1,-32768,1,-32768,1,-32768,1,-32768,1,-32768,1,-32768,1
952,18,1,13,1,-5,1,-15,1,12,1,4,1,-32768,1,-32768,1,-32768,1,-32768,1,-32768,1,-32768,1
953,19,1,13,1,-6,1,-16,1,13,1,4,1,-32768,1,-32768,1,-32768,1,-32768,1,-32768,1,-32768,1
954,19,1,14,1,-5,1,-16,1,12,1,5,1,-32768,1,-32768,1,-32768,1,-32768,1,-32768,1,-32768,1
955,20,1,14,1,-6,1,-17,1,13,1,4,1,-32768,1,-32768,1,-32768,1,-32768,1,-32768,1,-32768,1
956,18,1,14,1,-4,1,-16,1,11,1,5,1,-32768,1,-32768,1,-32768,1,-32768,1,-32768,1,-32768,1
957,18,1,14,1,-4,1,-16,1,11,1,5,1,-32768,1,-32768,1,-32768,1,-32768,1,-32768,1,-32768,1
958,17,1,14,1,-3,1,-15,1,10,1,6,1,-32768,1,-32768,1,-32768,1,-32768,1,-32768,1,-32768,1
959,17,1,14,1,-3,1,-15,1,10,1,6,1,-32768,1,-32768,1,-32768,1,-32768,1,-32768,1,-32768,1
960,17,1,15,1,-2,1,-16,1,10,1,7,1,-32768,1,-32768,1,-32768,1,-32768,1,-32768,1,-32768,1
961,18,1,15,1,-3,1,-16,1,11,1,6,1,-32768,1,-32768,1,-32768,1,-32768,1,-32768,1,-32768,1
962,19,1,14,1,-5,1,-16,1,12,1,5,1,-32768,1,-32768,1,-32768,1,-32768,1,-32768,1,-32768,1
963,20,1,14,1,-6,1,-17,1,13,1,4,1,-32768,1,-32768,1,-32768,1,-32768,1,-32768,1,-32768,1
964,20,1,14,1,-6,1,-17,1,13,1,4,1,-32768,1,-32768,1,-32768,1,-32768,1,-32768,1,-32768,1
965,20,1,14,1,-6,1,-17,1,13,1,4,1,-32768,1,-32768,1,-32768,1,-32768,1,-32768,1,-32768,1
966,19,1,15,1,-4,1,-17,1,12,1,6,1,-32768,1,-32768,1,-32768,1,-32768,1,-32768,1,-32768,1
967,18,1,15,1,-3,1,-16,1,11,1,6,1,-32768,1,-32768,1,-32768,1,-32768,1,-32768,1,-32768,1
968,18,1,15,1,-3,1,-16,1,11,1,6,1,-32768,1,-32768,1,-32768,1,-32768,1,-32768,1,-32768,1
969,18,1,15,1,-3,1,-16,1,11,1,6,1,-32768,1,-32768,1,-32768,1,-32768,1,-32768,1,-32768,1
970,17,1,15,1,-2,1,-16,1,10,1,7,1,-32768,1,-32768,1,-32768,1,-32768,1,-32768,1,-32768,1
971,18,1,15,1,-3,1,-16,1,11,1,6,1,-32768,1,-32768,1,-32768,1,-32768,1,-32768,1,-32768,1
972,19,1,15,1,-4,1,-17,1,12,1,6,1,-32768,1,-32768,1,-32768,1,-32768,1,-32768,1,-32768,1
973,20,1,16,1,-4,1,-18,1,12,1,6,1,-32768,1,-32768,1,-32768,1,-32768,1,-32768,1,-32768,1
974,20,1,16,1,-4,1,-18,1,12,1,6,1,-32768,1,-32768,1,-32768,1,-32768,1,-32768,1,-32768,1
975,20,1,16,1,-4,1,-18,1,12,1,6,1,-32768,1,-32768,1,-32768,1,-32768,1,-32768,1,-32768,1
976,19,1,16,1,-3,1,-17,1,11,1,7,1,-32768,1,-32768,1,-32768,1,-32768,1,-32768,1,-32768,1
977,18,1,15,1,-3,1,-16,1,11,1,6,1,-32768,1,-32768,1,-32768,1,-32768,1,-32768,1,-32768,1
978,17,1,15,1,-2,1,-16,1,10,1,7,1,-32768,1,-32768,1,-32768,1,-32768,1,-32768,1,-32768,1
979,18,1,15,1,-3,1,-16,1,11,1,6,1,-32768,1,-32768,1,-32768,1,-32768,1,-32768,1,-32768,1
980,18,1,15,1,-3,1,-16,1,11,1,6,1,-32768,1,-32768,1,-32768,1,-32768,1,-32768,1,-32768,1
981,18,1,14,1,-4,1,-16,1,11,1,5,1,-32768,1,-32768,1,-32768,1,-32768,1,-32768,1,-32768,1
982,19,1,14,1,-5,1,-16,1,12,1,5,1,-32768,1,-32768,1,-32768,1,-32768,1,-32768,1,-32768,1
983,19,1,14,1,-5,1,-16,1,12,1,5,1,-32768,1,-32768,1,-32768,1,-32768,1,-32768,1,-32768,1
984,19,1,14,1,-5,1,-16,1,12,1,5,1,-32768,1,-32768,1,-32768,1,-32768,1,-32768,1,-32768,1
985,19,1,14,1,-5,1,-16,1,12,1,5,1,-32768,1,-32768,1,-32768,1,-32768,1,-32768,1,-32768,1
986,17,1,14,1,-3,1,-15,1,10,1,6,1,-32768,1,-32768,1,-32768,1,-32768,1,-32768,1,-32768,1
987,16,1,14,1,-2,1,-15,1,9,1,6,1,-32768,1,-32768,1,-32768,1,-32768,1,-32768,1,-32768,1
988,15,1,14,1,-1,1,-14,1,8,1,7,1,-32768,1,-32768,1,-32768,1,-32768,1,-32768,1,-32768,1
989,15,1,14,1,-1,1,-14,1,8,1,7,1,-32768,1,-32768,1,-32768,1,-32768,1,-32768,1,-32768,1
990,15,1,13,1,-2,1,-14,1,9,1,6,1,-32768,1,-32768,1,-32768,1,-32768,1,-32768,1,-32768,1
991,17,1,13,1,-4,1,-15,1,11,1,5,1,-32768,1,-32768,1,-32768,1,-32768,1,-32768,1,-32768,1
992,19,1,13,1,-6,1,-16,1,13,1,4,1,-32768,1,-32768,1,-32768,1,-32768,1,-32768,1,-32768,1
993,20,1,13,1,-7,1,-16,1,14,1,3,1,-32768,1,-32768,1,-32768,1,-32768,1,-32768,1,-32768,1
994,20,1,14,1,-6,1,-17,1,13,1,4,1,-32768,1,-32768,1,-32768,1,-32768,1,-32768,1,-32768,1
995,20,1,15,1,-5,1,-17,1,13,1,5,1,-32768,1,-32768,1,-32768,1,-32768,1,-32768,1,-32768,1
996,19,1,16,1,-3,1,-17,1,11,1,7,1,-32768,1,-32768,1,-32768,1,-32768,1,-32768,1,-32768,1
997,18,1,16,1,-2,1,-17,1,10,1,7,1,-32768,1,-32768,1,-32768,1,-32768,1,-32768,1,-32768,1
998,18,1,17,1,-1,1,-17,1,10,1,8,1,-32768,1,-32768,1,-32768,1,-32768,1,-32768,1,-32768,1
999,18,1,17,1,-1,1,-17,1,10,1,8,1,-32768,1,-32768,1,-32768,1,-32768,1,-32768,1,-32768,1
1000,18,1,17,1,-1,1,-17,1,10,1,8,1,-32768,1,-32768,1,-32768,1,-32768,1,-32768,1,-32768,1
1001,19,1,17,1,-2,1,-18,1,11,1,8,1,-32768,1,-32768,1,-32768,1,-32768,1,-32768,1,-32768,1
1002,19,1,18,1,-1,1,-18,1,10,1,9,1,-32768,1,-32768,1,-32768,1,-32768,1,-32768,1,-32768,1
1003,19,1,17,1,-2,1,-18,1,11,1,8,1,-32768,1,-32768,1,-32768,1,-32768,1,-32768,1,-32768,1
1004,19,1,17,1,-2,1,-18,1,11,1,8,1,-32768,1,-32768,1,-32768,1,-32768,1,-32768,1,-32768,1
1005,18,1,17,1,-1,1,-17,1,10,1,8,1,-32768,1,-32768,1,-32768,1,-32768,1,-32768,1,-32768,1
1006,17,1,17,1,0,1,-17,1,9,1,9,1,-32768,1,-32768,1,-32768,1,-32768,1,-32768,1,-32768,1
1007,16,1,17,1,1,1,-16,1,8,1,9,1,-32768,1,-32768,1,-32768,1,-32768,1,-32768,1,-32768,1
1008,15,1,17,1,2,1,-16,1,7,1,10,1,-32768,1,-32768,1,-32768,1,-32768,1,-32768,1,-32768,1
1009,16,1,17,1,1,1,-16,1,8,1,9,1,-32768,1,-32768,1,-32768,1,-32768,1,-32768,1,-32768,1
1010,16,1,17,1,1,1,-16,1,8,1,9,1,-32768,1,-32768,1,-32768,1,-32768,1,-32768,1,-32768,1
1011,16,1,15,1,-1,1,-15,1,9,1,7,1,-32768,1,-32768,1,-32768,1,-32768,1,-32768,1,-32768,1
1012,15,1,15,1,0,1,-15,1,8,1,8,1,-32768,1,-32768,1,-32768,1,-32768,1,-32768,1,-32768,1
1013,14,1,14,1,0,1,-14,1,7,1,7,1,-32768,1,-32768,1,-32768,1,-32768,1,-32768,1,-32768,1
1014,13,1,13,1,0,1,-13,1,7,1,7,1,-32768,1,-32768,1,-32768,1,-32768,1,-32768,1,-32768,1
1015,13,1,13,1,0,1,-13,1,7,1,7,1,-32768,1,-32768,1,-32768,1,-32768,1,-32768,1,-32768,1
1016,11,1,13,1,2,1,-12,1,5,1,8,1,-32768,1,-32768,1,-32768,1,-32768,1,-32768,1,-32768,1
1017,10,1,12,1,2,1,-11,1,4,1,7,1,-32768,1,-32768,1,-32768,1,-32768,1,-32768,1,-32768,1
1018,9,1,11,1,2,1,-10,1,4,1,7,1,-32768,1,-32768,1,-32768,1,-32768,1,-32768,1,-32768,1
1019,8,1,11,1,3,1,-9,1,3,1,7,1,-32768,1,-32768,1,-32768,1,-32768,1,-32768,1,-32768,1
1020,8,1,10,1,2,1,-9,1,3,1,6,1,-32768,1,-32768,1,-32768,1,-32768,1,-32768,1,-32768,1
1021,9,1,10,1,1,1,-9,1,4,1,6,1,-32768,1,-32768,1,-32768,1,-32768,1,-32768,1,-32768,1
1022,10,1,10,1,0,1,-10,1,5,1,5,1,-32768,1,-32768,1,-32768,1,-32768,1,-32768,1,-32768,1
1023,11,1,9,1,-2,1,-10,1,7,1,4,1,-32768,1,-32768,1,-32768,1,-32768,1,-32768,1,-32768,1
1024,10,1,9,1,-1,1,-9,1,6,1,4,1,-32768,1,-32768,1,-32768,1,-32768,1,-32768,1,-32768,1
1025,10,1,9,1,-1,1,-9,1,6,1,4,1,-32768,1,-32768,1,-32768,1,-32768,1,-32768,1,-32768,1
1026,9,1,10,1,1,1,-9,1,4,1,6,1,-32768,1,-32768,1,-32768,1,-32768,1,-32768,1,-32768,1
1027,7,1,10,1,3,1,-8,1,2,1,7,1,-32768,1,-32768,1,-32768,1,-32768,1,-32768,1,-32768,1
1028,7,1,10,1,3,1,-8,1,2,1,7,1,-32768,1,-32768,1,-32768,1,-32768,1,-32768,1,-32768,1
1029,8,1,9,1,1,1,-8,1,4,1,5,1,-32768,1,-32768,1,-32768,1,-32768,1,-32768,1,-32768,1
1030,7,1,9,1,2,1,-8,1,3,1,6,1,-32768,1,-32768,1,-32768,1,-32768,1,-32768,1,-32768,1
1031,9,1,9,1,0,1,-9,1,5,1,5,1,-32768,1,-32768,1,-32768,1,-32768,1,-32768,1,-32768,1
1032,10,1,9,1,-1,1,-9,1,6,1,4,1,-32768,1,-32768,1,-32768,1,-32768,1,-32768,1,-32768,1
1033,10,1,9,1,-1,1,-9,1,6,1,4,1,-32768,1,-32768,1,-32768,1,-32768,1,-32768,1,-32768,1
1034,10,1,9,1,-1,1,-9,1,6,1,4,1,-32768,1,-32768,1,-32768,1,-32768,1,-32768,1,-32768,1
1035,9,1,9,1,0,1,-9,1,5,1,5,1,-32768,1,-32768,1,-32768,1,-32768,1,-32768,1,-32768,1
1036,8,1,10,1,2,1,-9,1,3,1,6,1,-32768,1,-32768,1,-32768,1,-32768,1,-32768,1,-32768,1
1037,7,1,10,1,3,1,-8,1,2,1,7,1,-32768,1,-32768,1,-32768,1,-32768,1,-32768,1,-32768,1
1038,7,1,9,1,2,1,-8,1,3,1,6,1,-32768,1,-32768,1,-32768,1,-32768,1,-32768,1,-32768,1
1039,6,1,9,1,3,1,-7,1,2,1,6,1,-32768,1,-32768,1,-32768,1,-32768,1,-32768,1,-32768,1
1040,6,1,10,1,4,1,-8,1,1,1,7,1,-32768,1,-32768,1,-32768,1,-32768,1,-32768,1,-32768,1
1041,7,1,9,1,2,1,-8,1,3,1,6,1,-32768,1,-32768,1,-32768,1,-32768,1,-32768,1,-32768,1
1042,8,1,9,1,1,1,-8,1,4,1,5,1,-32768,1,-32768,1,-32768,1,-32768,1,-32768,1,-32768,1
1043,10,1,9,1,-1,1,-9,1,6,1,4,1,-32768,1,-32768,1,-32768,1,-32768,1,-32768,1,-32768,1
1044,10,1,9,1,-1,1,-9,1,6,1,4,1,-32768,1,-32768,1,-32768,1,-32768,1,-32768,1,-32768,1
1045,10,1,9,1,-1,1,-9,1,6,1,4,1,-32768,1,-32768,1,-32768,1,-32768,1,-32768,1,-32768,1
1046,9,1,10,1,1,1,-9,1,4,1,6,1,-32768,1,-32768,1,-32768,1,-32768,1,-32768,1,-32768,1
1047,8,1,10,1,2,1,-9,1,3,1,6,1,-32768,1,-32768,1,-32768,1,-32768,1,-32768,1,-32768,1
1048,8,1,10,1,2,1,-9,1,3,1,6,1,-32768,1,-32768,1,-32768,1,-32768,1,-32768,1,-32768,1
1049,8,1,10,1,2,1,-9,1,3,1,6,1,-32768,1,-32768,1,-32768,1,-32768,1,-32768,1,-32768,1
1050,8,1,10,1,2,1,-9,1,3,1,6,1,-32768,1,-32768,1,-32768,1,-32768,1,-32768,1,-32768,1
1051,8,1,10,1,2,1,-9,1,3,1,6,1,-32768,1,-32768,1,-32768,1,-32768,1,-32768,1,-32768,1
1052,9,1,10,1,1,1,-9,1,4,1,6,1,-32768,1,-32768,1,-32768,1,-32768,1,-32768,1,-32768,1
1053,10,1,10,1,0,1,-10,1,5,1,5,1,-32768,1,-32768,1,-32768,1,-32768,1,-32768,1,-32768,1
1054,10,1,10,1,0,1,-10,1,5,1,5,1,-32768,1,-32768,1,-32768,1,-32768,1,-32768,1,-32768,1
1055,10,1,9,1,-1,1,-9,1,6,1,4,1,-32768,1,-32768,1,-32768,1,-32768,1,-32768,1,-32768,1
1056,9,1,11,1,2,1,-10,1,4,1,7,1,-32768,1,-32768,1,-32768,1,-32768,1,-32768,1,-32768,1
1057,9,1,11,1,2,1,-10,1,4,1,7,1,-32768,1,-32768,1,-32768,1,-32768,1,-32768,1,-32768,1
1058,8,1,11,1,3,1,-9,1,3,1,7,1,-32768,1,-32768,1,-32768,1,-32768,1,-32768,1,-32768,1
1059,8,1,11,1,3,1,-9,1,3,1,7,1,-32768,1,-32768,1,-32768,1,-32768,1,-32768,1,-32768,1
1060,8,1,11,1,3,1,-9,1,3,1,7,1,-32768,1,-32768,1,-32768,1,-32768,1,-32768,1,-32768,1
1061,8,1,10,1,2,1,-9,1,3,1,6,1,-32768,1,-32768,1,-32768,1,-32768,1,-32768,1,-32768,1
1062,9,1,11,1,2,1,-10,1,4,1,7,1,-32768,1,-32768,1,-32768,1,-32768,1,-32768,1,-32768,1
1063,10,1,10,1,0,1,-10,1,5,1,5,1,-32768,1,-32768,1,-32768,1,-32768,1,-32768,1,-32768,1
1064,10,1,10,1,0,1,-10,1,5,1,5,1,-32768,1,-32768,1,-32768,1,-32768,1,-32768,1,-32768,1
1065,11,1,10,1,-1,1,-10,1,6,1,5,1,-32768,1,-32768,1,-32768,1,-32768,1,-32768,1,-32768,1
1066,10,1,10,1,0,1,-10,1,5,1,5,1,-32768,1,-32768,1,-32768,1,-32768,1,-32768,1,-32768,1
1067,9,1,10,1,1,1,-9,1,4,1,6,1,-32768,1,-32768,1,-32768,1,-32768,1,-32768,1,-32768,1
1068,9,1,10,1,1,1,-9,1,4,1,6,1,-32768,1,-32768,1,-32768,1,-32768,1,-32768,1,-32768,1
1069,10,1,10,1,0,1,-10,1,5,1,5,1,-32768,1,-32768,1,-32768,1,-32768,1,-32768,1,-32768,1
1070,9,1,10,1,1,1,-9,1,4,1,6,1,-32768,1,-32768,1,-32768,1,-32768,1,-32768,1,-32768,1
1071,10,1,10,1,0,1,-10,1,5,1,5,1,-32768,1,-32768,1,-32768,1,-32768,1,-32768,1,-32768,1
1072,10,1,10,1,0,1,-10,1,5,1,5,1,-32768,1,-32768,1,-32768,1,-32768,1,-32768,1,-32768,1
1073,11,1,10,1,-1,1,-10,1,6,1,5,1,-32768,1,-32768,1,-32768,1,-32768,1,-32768,1,-32768,1
1074,11,1,10,1,-1,1,-10,1,6,1,5,1,-32768,1,-32768,1,-32768,1,-32768,1,-32768,1,-32768,1
1075,11,1,10,1,-1,1,-10,1,6,1,5,1,-32768,1,-32768,1,-32768,1,-32768,1,-32768,1,-32768,1
1076,10,1,11,1,1,1,-10,1,5,1,6,1,-32768,1,-32768,1,-32768,1,-32768,1,-32768,1,-32768,1
1077,9,1,11,1,2,1,-10,1,4,1,7,1,-32768,1,-32768,1,-32768,1,-32768,1,-32768,1,-32768,1
1078,8,1,11,1,3,1,-9,1,3,1,7,1,-32768,1,-32768,1,-32768,1,-32768,1,-32768,1,-32768,1
1079,8,1,11,1,3,1,-9,1,3,1,7,1,-32768,1,-32768,1,-32768,1,-32768,1,-32768,1,-32768,1
1080,8,1,11,1,3,1,-9,1,3,1,7,1,-32768,1,-32768,1,-32768,1,-32768,1,-32768,1,-32768,1
1081,9,1,11,1,2,1,-10,1,4,1,7,1,-32768,1,-32768,1,-32768,1,-32768,1,-32768,1,-32768,1
1082,10,1,11,1,1,1,-10,1,5,1,6,1,-32768,1,-32768,1,-32768,1,-32768,1,-32768,1,-32768,1
1083,11,1,12,1,1,1,-11,1,5,1,7,1,-32768,1,-32768,1,-32768,1,-32768,1,-32768,1,-32768,1
1084,12,1,11,1,-1,1,-11,1,7,1,5,1,-32768,1,-32768,1,-32768,1,-32768,1,-32768,1,-32768,1
1085,12,1,11,1,-1,1,-11,1,7,1,5,1,-32768,1,-32768,1,-32768,1,-32768,1,-32768,1,-32768,1
1086,11,1,11,1,0,1,-11,1,6,1,6,1,-32768,1,-32768,1,-32768,1,-32768,1,-32768,1,-32768,1
1087,10,1,11,1,1,1,-10,1,5,1,6,1,-32768,1,-32768,1,-32768,1,-32768,1,-32768,1,-32768,1
1088,10,1,11,1,1,1,-10,1,5,1,6,1,-32768,1,-32768,1,-32768,1,-32768,1,-32768,1,-32768,1
1089,11,1,11,1,0,1,-11,1,6,1,6,1,-32768,1,-32768,1,-32768,1,-32768,1,-32768,1,-32768,1
1090,10,1,11,1,1,1,-10,1,5,1,6,1,-32768,1,-32768,1,-32768,1,-32768,1,-32768,1,-32768,1
1091,11,1,10,1,-1,1,-10,1,6,1,5,1,-32768,1,-32768,1,-32768,1,-32768,1,-32768,1,-32768,1
1092,11,1,10,1,-1,1,-10,1,6,1,5,1,-32768,1,-32768,1,-32768,1,-32768,1,-32768,1,-32768,1
1093,11,1,11,1,0,1,-11,1,6,1,6,1,-32768,1,-32768,1,-32768,1,-32768,1,-32768,1,-32768,1
1094,12,1,12,1,0,1,-12,1,6,1,6,1,-32768,1,-32768,1,-32768,1,-32768,1,-32768,1,-32768,1
1095,12,1,11,1,-1,1,-11,1,7,1,5,1,-32768,1,-32768,1,-32768,1,-32768,1,-32768,1,-32768,1
1096,11,1,11,1,0,1,-11,1,6,1,6,1,-32768,1,-32768,1,-32768,1,-32768,1,-32768,1,-32768,1
1097,11,1,11,1,0,1,-11,1,6,1,6,1,-32768,1,-32768,1,-32768,1,-32768,1,-32768,1,-32768,1
1098,11,1,10,1,-1,1,-10,1,6,1,5,1,-32768,1,-32768,1,-32768,1,-32768,1,-32768,1,-32768,1
1099,12,1,10,1,-2,1,-11,1,7,1,4,1,-32768,1,-32768,1,-32768,1,-32768,1,-32768,1,-32768,1
1100,11,1,10,1,-1,1,-10,1,6,1,5,1,-32768,1,-32768,1,-32768,1,-32768,1,-32768,1,-32768,1
1101,12,1,10,1,-2,1,-11,1,7,1,4,1,-32768,1,-32768,1,-32768,1,-32768,1,-32768,1,-32768,1
1102,12,1,10,1,-2,1,-11,1,7,1,4,1,-32768,1,-32768,1,-32768,1,-32768,1,-32768,1,-32768,1
1103,12,1,11,1,-1,1,-11,1,7,1,5,1,-32768,1,-32768,1,-32768,1,-32768,1,-32768,1,-32768,1
1104,12,1,11,1,-1,1,-11,1,7,1,5,1,-32768,1,-32768,1,-32768,1,-32768,1,-32768,1,-32768,1
1105,12,1,11,1,-1,1,-11,1,7,1,5,1,-32768,1,-32768,1,-32768,1,-32768,1,-32768,1,-32768,1
1106,12,1,11,1,-1,1,-11,1,7,1,5,1,-32768,1,-32768,1,-32768,1,-32768,1,-32768,1,-32768,1
1107,11,1,11,1,0,1,-11,1,6,1,6,1,-32768,1,-32768,1,-32768,1,-32768,1,-32768,1,-32768,1
1108,11,1,11,1,0,1,-11,1,6,1,6,1,-32768,1,-32768,1,-32768,1,-32768,1,-32768,1,-32768,1
1109,11,1,11,1,0,1,-11,1,6,1,6,1,-32768,1,-32768,1,-32768,1,-32768,1,-32768,1,-32768,1
1110,10,1,11,1,1,1,-10,1,5,1,6,1,-32768,1,-32768,1,-32768,1,-32768,1,-32768,1,-32768,1
1111,10,1,10,1,0,1,-10,1,5,1,5,1,-32768,1,-32768,1,-32768,1,-32768,1,-32768,1,-32768,1
1112,11,1,10,1,-1,1,-10,1,6,1,5,1,-32768,1,-32768,1,-32768,1,-32768,1,-32768,1,-32768,1
1113,12,1,11,1,-1,1,-11,1,7,1,5,1,-32768,1,-32768,1,-32768,1,-32768,1,-32768,1,-32768,1
1114,12,1,11,1,-1,1,-11,1,7,1,5,1,-32768,1,-32768,1,-32768,1,-32768,1,-32768,1,-32768,1
1115,11,1,12,1,1,1,-11,1,5,1,7,1,-32768,1,-32768,1,-32768,1,-32768,1,-32768,1,-32768,1
1116,10,1,12,1,2,1,-11,1,4,1,7,1,-32768,1,-32768,1,-32768,1,-32768,1,-32768,1,-32768,1
1117,10,1,12,1,2,1,-11,1,4,1,7,1,-32768,1,-32768,1,-32768,1,-32768,1,-32768,1,-32768,1
1118,10,1,12,1,2,1,-11,1,4,1,7,1,-32768,1,-32768,1,-32768,1,-32768,1,-32768,1,-32768,1
1119,11,1,11,1,0,1,-11,1,6,1,6,1,-32768,1,-32768,1,-32768,1,-32768,1,-32768,1,-32768,1
1120,12,1,11,1,-1,1,-11,1,7,1,5,1,-32768,1,-32768,1,-32768,1,-32768,1,-32768,1,-32768,1
1121,13,1,11,1,-2,1,-12,1,8,1,5,1,-32768,1,-32768,1,-32768,1,-32768,1,-32768,1,-32768,1
1122,14,1,11,1,-3,1,-12,1,9,1,4,1,-32768,1,-32768,1,-32768,1,-32768,1,-32768,1,-32768,1
1123,14,1,11,1,-3,1,-12,1,9,1,4,1,-32768,1,-32768,1,-32768,1,-32768,1,-32768,1,-32768,1
1124,14,1,11,1,-3,1,-12,1,9,1,4,1,-32768,1,-32768,1,-32768,1,-32768,1,-32768,1,-32768,1
1125,14,1,12,1,-2,1,-13,1,8,1,5,1,-32768,1,-32768,1,-32768,1,-32768,1,-32768,1,-32768,1
1126,13,1,12,1,-1,1,-12,1,7,1,6,1,-32768,1,-32768,1,-32768,1,-32768,1,-32768,1,-32768,1
1127,13,1,12,1,-1,1,-12,1,7,1,6,1,-32768,1,-32768,1,-32768,1,-32768,1,-32768,1,-32768,1
1128,12,1,12,1,0,1,-12,1,6,1,6,1,-32768,1,-32768,1,-32768,1,-32768,1,-32768,1,-32768,1
1129,12,1,12,1,0,1,-12,1,6,1,6,1,-32768,1,-32768,1,-32768,1,-32768,1,-32768,1,-32768,1
1130,12,1,12,1,0,1,-12,1,6,1,6,1,-32768,1,-32768,1,-32768,1,-32768,1,-32768,1,-32768,1
1131,13,1,12,1,-1,1,-12,1,7,1,6,1,-32768,1,-32768,1,-32768,1,-32768,1,-32768,1,-32768,1
1132,14,1,12,1,-2,1,-13,1,8,1,5,1,-32768,1,-32768,1,-32768,1,-32768,1,-32768,1,-32768,1
1133,15,1,12,1,-3,1,-13,1,9,1,5,1,-32768,1,-32768,1,-32768,1,-32768,1,-32768,1,-32768,1
1134,15,1,13,1,-2,1,-14,1,9,1,6,1,-32768,1,-32768,1,-32768,1,-32768,1,-32768,1,-32768,1
1135,16,1,13,1,-3,1,-14,1,10,1,5,1,-32768,1,-32768,1,-32768,1,-32768,1,-32768,1,-32768,1
1136,15,1,13,1,-2,1,-14,1,9,1,6,1,-32768,1,-32768,1,-32768,1,-32768,1,-32768,1,-32768,1
1137,14,1,13,1,-1,1,-13,1,8,1,6,1,-32768,1,-32768,1,-32768,1,-32768,1,-32768,1,-32768,1
1138,14,1,13,1,-1,1,-13,1,8,1,6,1,-32768,1,-32768,1,-32768,1,-32768,1,-32768,1,-32768,1
1139,14,1,13,1,-1,1,-13,1,8,1,6,1,-32768,1,-32768,1,-32768,1,-32768,1,-32768,1,-32768,1
1140,14,1,14,1,0,1,-14,1,7,1,7,1,-32768,1,-32768,1,-32768,1,-32768,1,-32768,1,-32768,1
1141,15,1,13,1,-2,1,-14,1,9,1,6,1,-32768,1,-32768,1,-32768,1,-32768,1,-32768,1,-32768,1
1142,15,1,13,1,-2,1,-14,1,9,1,6,1,-32768,1,-32768,1,-32768,1,-32768,1,-32768,1,-32768,1
1143,15,1,14,1,-1,1,-14,1,8,1,7,1,-32768,1,-32768,1,-32768,1,-32768,1,-32768,1,-32768,1
1144,15,1,14,1,-1,1,-14,1,8,1,7,1,-32768,1,-32768,1,-32768,1,-32768,1,-32768,1,-32768,1
1145,16,1,14,1,-2,1,-15,1,9,1,6,1,-32768,1,-32768,1,-32768,1,-32768,1,-32768,1,-32768,1
1146,15,1,14,1,-1,1,-14,1,8,1,7,1,-32768,1,-32768,1,-32768,1,-32768,1,-32768,1,-32768,1
1147,14,1,14,1,0,1,-14,1,7,1,7,1,-32768,1,-32768,1,-32768,1,-32768,1,-32768,1,-32768,1
1148,14,1,14,1,0,1,-14,1,7,1,7,1,-32768,1,-32768,1,-32768,1,-32768,1,-32768,1,-32768,1
1149,14,1,14,1,0,1,-14,1,7,1,7,1,-32768,1,-32768,1,-32768,1,-32768,1,-32768,1,-32768,1
1150,14,1,14,1,0,1,-14,1,7,1,7,1,-32768,1,-32768,1,-32768,1,-32768,1,-32768,1,-32768,1
1151,15,1,15,1,0,1,-15,1,8,1,8,1,-32768,1,-32768,1,-32768,1,-32768,1,-32768,1,-32768,1
1152,15,1,15,1,0,1,-15,1,8,1,8,1,-32768,1,-32768,1,-32768,1,-32768,1,-32768,1,-32768,1
1153,16,1,15,1,-1,1,-15,1,9,1,7,1,-32768,1,-32768,1,-32768,1,-32768,1,-32768,1,-32768,1
1154,16,1,15,1,-1,1,-15,1,9,1,7,1,-32768,1,-32768,1,-32768,1,-32768,1,-32768,1,-32768,1
1155,16,1,15,1,-1,1,-15,1,9,1,7,1,-32768,1,-32768,1,-32768,1,-32768,1,-32768,1,-32768,1
1156,16,1,15,1,-1,1,-15,1,9,1,7,1,-32768,1,-32768,1,-32768,1,-32768,1,-32768,1,-32768,1
1157,15,1,15,1,0,1,-15,1,8,1,8,1,-32768,1,-32768,1,-32768,1,-32768,1,-32768,1,-32768,1
1158,15,1,15,1,0,1,-15,1,8,1,8,1,-32768,1,-32768,1,-32768,1,-32768,1,-32768,1,-32768,1
1159,15,1,16,1,1,1,-15,1,7,1,9,1,-32768,1,-32768,1,-32768,1,-32768,1,-32768,1,-32768,1
1160,15,1,17,1,2,1,-16,1,7,1,10,1,-32768,1,-32768,1,-32768,1,-32768,1,-32768,1,-32768,1
1161,16,1,17,1,1,1,-16,1,8,1,9,1,-32768,1,-32768,1,-32768,1,-32768,1,-32768,1,-32768,1
1162,17,1,17,1,0,1,-17,1,9,1,9,1,-32768,1,-32768,1,-32768,1,-32768,1,-32768,1,-32768,1
1163,18,1,17,1,-1,1,-17,1,10,1,8,1,-32768,1,-32768,1,-32768,1,-32768,1,-32768,1,-32768,1
1164,18,1,17,1,-1,1,-17,1,10,1,8,1,-32768,1,-32768,1,-32768,1,-32768,1,-32768,1,-32768,1
1165,19,1,18,1,-1,1,-18,1,10,1,9,1,-32768,1,-32768,1,-32768,1,-32768,1,-32768,1,-32768,1
1166,19,1,19,1,0,1,-19,1,10,1,10,1,-32768,1,-32768,1,-32768,1,-32768,1,-32768,1,-32768,1
1167,18,1,19,1,1,1,-18,1,9,1,10,1,-32768,1,-32768,1,-32768,1,-32768,1,-32768,1,-32768,1
1168,18,1,16,1,-2,1,-17,1,10,1,7,1,-32768,1,-32768,1,-32768,1,-32768,1,-32768,1,-32768,1
1169,18,1,16,1,-2,1,-17,1,10,1,7,1,-32768,1,-32768,1,-32768,1,-32768,1,-32768,1,-32768,1
1170,19,1,17,1,-2,1,-18,1,11,1,8,1,-32768,1,-32768,1,-32768,1,-32768,1,-32768,1,-32768,1
1171,20,1,18,1,-2,1,-19,1,11,1,8,1,-32768,1,-32768,1,-32768,1,-32768,1,-32768,1,-32768,1
1172,20,1,18,1,-2,1,-19,1,11,1,8,1,-32768,1,-32768,1,-32768,1,-32768,1,-32768,1,-32768,1
1173,21,1,18,1,-3,1,-19,1,12,1,8,1,-32768,1,-32768,1,-32768,1,-32768,1,-32768,1,-32768,1
1174,20,1,17,1,-3,1,-18,1,12,1,7,1,-32768,1,-32768,1,-32768,1,-32768,1,-32768,1,-32768,1
1175,20,1,18,1,-2,1,-19,1,11,1,8,1,-32768,1,-32768,1,-32768,1,-32768,1,-32768,1,-32768,1
1176,18,1,18,1,0,1,-18,1,9,1,9,1,-32768,1,-32768,1,-32768,1,-32768,1,-32768,1,-32768,1
1177,18,1,18,1,0,1,-18,1,9,1,9,1,-32768,1,-32768,1,-32768,1,-32768,1,-32768,1,-32768,1
1178,17,1,18,1,1,1,-17,1,8,1,10,1,-32768,1,-32768,1,-32768,1,-32768,1,-32768,1,-32768,1
1179,17,1,18,1,1,1,-17,1,8,1,10,1,-32768,1,-32768,1,-32768,1,-32768,1,-32768,1,-32768,1
1180,17,1,18,1,1,1,-17,1,8,1,10,1,-32768,1,-32768,1,-32768,1,-32768,1,-32768,1,-32768,1
1181,18,1,18,1,0,1,-18,1,9,1,9,1,-32768,1,-32768,1,-32768,1,-32768,1,-32768,1,-32768,1
1182,19,1,18,1,-1,1,-18,1,10,1,9,1,-32768,1,-32768,1,-32768,1,-32768,1,-32768,1,-32768,1
1183,18,1,18,1,0,1,-18,1,9,1,9,1,-32768,1,-32768,1,-32768,1,-32768,1,-32768,1,-32768,1
1184,18,1,18,1,0,1,-18,1,9,1,9,1,-32768,1,-32768,1,-32768,1,-32768,1,-32768,1,-32768,1
1185,18,1,17,1,-1,1,-17,1,10,1,8,1,-32768,1,-32768,1,-32768,1,-32768,1,-32768,1,-32768,1
1186,17,1,17,1,0,1,-17,1,9,1,9,1,-32768,1,-32768,1,-32768,1,-32768,1,-32768,1,-32768,1
1187,17,1,16,1,-1,1,-16,1,9,1,8,1,-32768,1,-32768,1,-32768,1,-32768,1,-32768,1,-32768,1
1188,16,1,16,1,0,1,-16,1,8,1,8,1,-32768,1,-32768,1,-32768,1,-32768,1,-32768,1,-32768,1
1189,16,1,17,1,1,1,-16,1,8,1,9,1,-32768,1,-32768,1,-32768,1,-32768,1,-32768,1,-32768,1
1190,15,1,16,1,1,1,-15,1,7,1,9,1,-32768,1,-32768,1,-32768,1,-32768,1,-32768,1,-32768,1
1191,16,1,16,1,0,1,-16,1,8,1,8,1,-32768,1,-32768,1,-32768,1,-32768,1,-32768,1,-32768,1
1192,16,1,15,1,-1,1,-15,1,9,1,7,1,-32768,1,-32768,1,-32768,1,-32768,1,-32768,1,-32768,1
1193,16,1,15,1,-1,1,-15,1,9,1,7,1,-32768,1,-32768,1,-32768,1,-32768,1,-32768,1,-32768,1
1194,16,1,15,1,-1,1,-15,1,9,1,7,1,-32768,1,-32768,1,-32768,1,-32768,1,-32768,1,-32768,1
1195,15,1,15,1,0,1,-15,1,8,1,8,1,-32768,1,-32768,1,-32768,1,-32768,1,-32768,1,-32768,1
1196,14,1,15,1,1,1,-14,1,7,1,8,1,-32768,1,-32768,1,-32768,1,-32768,1,-32768,1,-32768,1
1197,14,1,15,1,1,1,-14,1,7,1,8,1,-32768,1,-32768,1,-32768,1,-32768,1,-32768,1,-32768,1
1198,14,1,15,1,1,1,-14,1,7,1,8,1,-32768,1,-32768,1,-32768,1,-32768,1,-32768,1,-32768,1
1199,14,1,15,1,1,1,-14,1,7,1,8,1,-32768,1,-32768,1,-32768,1,-32768,1,-32768,1,-32768,1
1200,14,1,15,1,1,1,-14,1,7,1,8,1,-32768,1,-32768,1,-32768,1,-32768,1,-32768,1,-32768,1
1201,15,1,15,1,0,1,-15,1,8,1,8,1,-32768,1,-32768,1,-32768,1,-32768,1,-32768,1,-32768,1
1202,16,1,15,1,-1,1,-15,1,9,1,7,1,-32768,1,-32768,1,-32768,1,-32768,1,-32768,1,-32768,1
1203,16,1,16,1,0,1,-16,1,8,1,8,1,-32768,1,-32768,1,-32768,1,-32768,1,-32768,1,-32768,1
1204,16,1,16,1,0,1,-16,1,8,1,8,1,-32768,1,-32768,1,-32768,1,-32768,1,-32768,1,-32768,1
1205,17,1,15,1,-2,1,-16,1,10,1,7,1,-32768,1,-32768,1,-32768,1,-32768,1,-32768,1,-32768,1
1206,16,1,16,1,0,1,-16,1,8,1,8,1,-32768,1,-32768,1,-32768,1,-32768,1,-32768,1,-32768,1
1207,15,1,16,1,1,1,-15,1,7,1,9,1,-32768,1,-32768,1,-32768,1,-32768,1,-32768,1,-32768,1
1208,15,1,16,1,1,1,-15,1,7,1,9,1,-32768,1,-32768,1,-32768,1,-32768,1,-32768,1,-32768,1
1209,15,1,16,1,1,1,-15,1,7,1,9,1,-32768,1,-32768,1,-32768,1,-32768,1,-32768,1,-32768,1
1210,16,1,16,1,0,1,-16,1,8,1,8,1,-32768,1,-32768,1,-32768,1,-32768,1,-32768,1,-32768,1
1211,17,1,16,1,-1,1,-16,1,9,1,8,1,-32768,1,-32768,1,-32768,1,-32768,1,-32768,1,-32768,1
1212,17,1,16,1,-1,1,-16,1,9,1,8,1,-32768,1,-32768,1,-32768,1,-32768,1,-32768,1,-32768,1
1213,17,1,16,1,-1,1,-16,1,9,1,8,1,-32768,1,-32768,1,-32768,1,-32768,1,-32768,1,-32768,1
1214,17,1,16,1,-1,1,-16,1,9,1,8,1,-32768,1,-32768,1,-32768,1,-32768,1,-32768,1,-32768,1
1215,18,1,16,1,-2,1,-17,1,10,1,7,1,-32768,1,-32768,1,-32768,1,-32768,1,-32768,1,-32768,1
1216,17,1,17,1,0,1,-17,1,9,1,9,1,-32768,1,-32768,1,-32768,1,-32768,1,-32768,1,-32768,1
1217,17,1,17,1,0,1,-17,1,9,1,9,1,-32768,1,-32768,1,-32768,1,-32768,1,-32768,1,-32768,1
1218,18,1,17,1,-1,1,-17,1,10,1,8,1,-32768,1,-32768,1,-32768,1,-32768,1,-32768,1,-32768,1
1219,18,1,17,1,-1,1,-17,1,10,1,8,1,-32768,1,-32768,1,-32768,1,-32768,1,-32768,1,-32768,1
1220,17,1,18,1,1,1,-17,1,8,1,10,1,-32768,1,-32768,1,-32768,1,-32768,1,-32768,1,-32768,1
1221,18,1,17,1,-1,1,-17,1,10,1,8,1,-32768,1,-32768,1,-32768,1,-32768,1,-32768,1,-32768,1
1222,18,1,18,1,0,1,-18,1,9,1,9,1,-32768,1,-32768,1,-32768,1,-32768,1,-32768,1,-32768,1
1223,18,1,18,1,0,1,-18,1,9,1,9,1,-32768,1,-32768,1,-32768,1,-32768,1,-32768,1,-32768,1
1224,18,1,18,1,0,1,-18,1,9,1,9,1,-32768,1,-32768,1,-32768,1,-32768,1,-32768,1,-32768,1
1225,19,1,18,1,-1,1,-18,1,10,1,9,1,-32768,1,-32768,1,-32768,1,-32768,1,-32768,1,-32768,1
1226,19,1,18,1,-1,1,-18,1,10,1,9,1,-32768,1,-32768,1,-32768,1,-32768,1,-32768,1,-32768,1
1227,19,1,19,1,0,1,-19,1,10,1,10,1,-32768,1,-32768,1,-32768,1,-32768,1,-32768,1,-32768,1
1228,19,1,20,1,1,1,-19,1,9,1,11,1,-32768,1,-32768,1,-32768,1,-32768,1,-32768,1,-32768,1
1229,20,1,20,1,0,1,-20,1,10,1,10,1,-32768,1,-32768,1,-32768,1,-32768,1,-32768,1,-32768,1
1230,19,1,20,1,1,1,-19,1,9,1,11,1,-32768,1,-32768,1,-32768,1,-32768,1,-32768,1,-32768,1
1231,19,1,20,1,1,1,-19,1,9,1,11,1,-32768,1,-32768,1,-32768,1,-32768,1,-32768,1,-32768,1
1232,19,1,20,1,1,1,-19,1,9,1,11,1,-32768,1,-32768,1,-32768,1,-32768,1,-32768,1,-32768,1
1233,20,1,19,1,-1,1,-19,1,11,1,9,1,-32768,1,-32768,1,-32768,1,-32768,1,-32768,1,-32768,1
1234,20,1,20,1,0,1,-20,1,10,1,10,1,-32768,1,-32768,1,-32768,1,-32768,1,-32768,1,-32768,1
1235,21,1,20,1,-1,1,-20,1,11,1,10,1,-32768,1,-32768,1,-32768,1,-32768,1,-32768,1,-32768,1
1236,20,1,20,1,0,1,-20,1,10,1,10,1,-32768,1,-32768,1,-32768,1,-32768,1,-32768,1,-32768,1
1237,20,1,20,1,0,1,-20,1,10,1,10,1,-32768,1,-32768,1,-32768,1,-32768,1,-32768,1,-32768,1
1238,20,1,20,1,0,1,-20,1,10,1,10,1,-32768,1,-32768,1,-32768,1,-32768,1,-32768,1,-32768,1
1239,20,1,20,1,0,1,-20,1,10,1,10,1,-32768,1,-32768,1,-32768,1,-32768,1,-32768,1,-32768,1
1240,20,1,21,1,1,1,-20,1,10,1,11,1,-32768,1,-32768,1,-32768,1,-32768,1,-32768,1,-32768,1
1241,22,1,21,1,-1,1,-21,1,12,1,10,1,-32768,1,-32768,1,-32768,1,-32768,1,-32768,1,-32768,1
1242,23,1,21,1,-2,1,-22,1,13,1,10,1,-32768,1,-32768,1,-32768,1,-32768,1,-32768,1,-32768,1
1243,24,1,21,1,-3,1,-22,1,14,1,9,1,-32768,1,-32768,1,-32768,1,-32768,1,-32768,1,-32768,1
1244,24,1,21,1,-3,1,-22,1,14,1,9,1,-32768,1,-32768,1,-32768,1,-32768,1,-32768,1,-32768,1
1245,25,1,21,1,-4,1,-23,1,15,1,9,1,-32768,1,-32768,1,-32768,1,-32768,1,-32768,1,-32768,1
1246,24,1,23,1,-1,1,-23,1,13,1,11,1,-32768,1,-32768,1,-32768,1,-32768,1,-32768,1,-32768,1
1247,23,1,23,1,0,1,-23,1,12,1,12,1,-32768,1,-32768,1,-32768,1,-32768,1,-32768,1,-32768,1
1248,23,1,23,1,0,1,-23,1,12,1,12,1,-32768,1,-32768,1,-32768,1,-32768,1,-32768,1,-32768,1
1249,22,1,22,1,0,1,-22,1,11,1,11,1,-32768,1,-32768,1,-32768,1,-32768,1,-32768,1,-32768,1
1250,23,1,23,1,0,1,-23,1,12,1,12,1,-32768,1,-32768,1,-32768,1,-32768,1,-32768,1,-32768,1
1251,24,1,23,1,-1,1,-23,1,13,1,11,1,-32768,1,-32768,1,-32768,1,-32768,1,-32768,1,-32768,1
1252,25,1,24,1,-1,1,-24,1,13,1,12,1,-32768,1,-32768,1,-32768,1,-32768,1,-32768,1,-32768,1
1253,25,1,24,1,-1,1,-24,1,13,1,12,1,-32768,1,-32768,1,-32768,1,-32768,1,-32768,1,-32768,1
1254,25,1,23,1,-2,1,-24,1,14,1,11,1,-32768,1,-32768,1,-32768,1,-32768,1,-32768,1,-32768,1
1255,26,1,23,1,-3,1,-24,1,15,1,10,1,-32768,1,-32768,1,-32768,1,-32768,1,-32768,1,-32768,1
1256,25,1,24,1,-1,1,-24,1,13,1,12,1,-32768,1,-32768,1,-32768,1,-32768,1,-32768,1,-32768,1
1257,25,1,23,1,-2,1,-24,1,14,1,11,1,-32768,1,-32768,1,-32768,1,-32768,1,-32768,1,-32768,1
1258,25,1,24,1,-1,1,-24,1,13,1,12,1,-32768,1,-32768,1,-32768,1,-32768,1,-32768,1,-32768,1
1259,25,1,24,1,-1,1,-24,1,13,1,12,1,-32768,1,-32768,1,-32768,1,-32768,1,-32768,1,-32768,1
1260,25,1,24,1,-1,1,-24,1,13,1,12,1,-32768,1,-32768,1,-32768,1,-32768,1,-32768,1,-32768,1
1261,26,1,24,1,-2,1,-25,1,14,1,11,1,-32768,1,-32768,1,-32768,1,-32768,1,-32768,1,-32768,1
1262,27,1,24,1,-3,1,-25,1,15,1,11,1,-32768,1,-32768,1,-32768,1,-32768,1,-32768,1,-32768,1
1263,27,1,26,1,-1,1,-26,1,14,1,13,1,-32768,1,-32768,1,-32768,1,-32768,1,-32768,1,-32768,1
1264,27,1,26,1,-1,1,-26,1,14,1,13,1,-32768,1,-32768,1,-32768,1,-32768,1,-32768,1,-32768,1
1265,28,1,26,1,-2,1,-27,1,15,1,12,1,-32768,1,-32768,1,-32768,1,-32768,1,-32768,1,-32768,1
1266,27,1,27,1,0,1,-27,1,14,1,14,1,-32768,1,-32768,1,-32768,1,-32768,1,-32768,1,-32768,1
1267,27,1,27,1,0,1,-27,1,14,1,14,1,-32768,1,-32768,1,-32768,1,-32768,1,-32768,1,-32768,1
1268,27,1,27,1,0,1,-27,1,14,1,14,1,-32768,1,-32768,1,-32768,1,-32768,1,-32768,1,-32768,1
1269,27,1,27,1,0,1,-27,1,14,1,14,1,-32768,1,-32768,1,-32768,1,-32768,1,-32768,1,-32768,1
1270,27,1,27,1,0,1,-27,1,14,1,14,1,-32768,1,-32768,1,-32768,1,-32768,1,-32768,1,-32768,1
1271,28,1,27,1,-1,1,-27,1,15,1,13,1,-32768,1,-32768,1,-32768,1,-32768,1,-32768,1,-32768,1
1272,29,1,27,1,-2,1,-28,1,16,1,13,1,-32768,1,-32768,1,-32768,1,-32768,1,-32768,1,-32768,1
1273,29,1,27,1,-2,1,-28,1,16,1,13,1,-32768,1,-32768,1,-32768,1,-32768,1,-32768,1,-32768,1
1274,30,1,28,1,-2,1,-29,1,16,1,13,1,-32768,1,-32768,1,-32768,1,-32768,1,-32768,1,-32768,1
1275,30,1,28,1,-2,1,-29,1,16,1,13,1,-32768,1,-32768,1,-32768,1,-32768,1,-32768,1,-32768,1
1276,28,1,28,1,0,1,-28,1,14,1,14,1,-32768,1,-32768,1,-32768,1,-32768,1,-32768,1,-32768,1
1277,28,1,28,1,0,1,-28,1,14,1,14,1,-32768,1,-32768,1,-32768,1,-32768,1,-32768,1,-32768,1
1278,28,1,28,1,0,1,-28,1,14,1,14,1,-32768,1,-32768,1,-32768,1,-32768,1,-32768,1,-32768,1
1279,28,1,28,1,0,1,-28,1,14,1,14,1,-32768,1,-32768,1,-32768,1,-32768,1,-32768,1,-32768,1
1280,28,1,28,1,0,1,-28,1,14,1,14,1,-32768,1,-32768,1,-32768,1,-32768,1,-32768,1,-32768,1
1281,29,1,28,1,-1,1,-28,1,15,1,14,1,-32768,1,-32768,1,-32768,1,-32768,1,-32768,1,-32768,1
1282,30,1,28,1,-2,1,-29,1,16,1,13,1,-32768,1,-32768,1,-32768,1,-32768,1,-32768,1,-32768,1
1283,30,1,28,1,-2,1,-29,1,16,1,13,1,-32768,1,-32768,1,-32768,1,-32768,1,-32768,1,-32768,1
1284,30,1,28,1,-2,1,-29,1,16,1,13,1,-32768,1,-32768,1,-32768,1,-32768,1,-32768,1,-32768,1
1285,30,1,28,1,-2,1,-29,1,16,1,13,1,-32768,1,-32768,1,-32768,1,-32768,1,-32768,1,-32768,1
1286,29,1,29,1,0,1,-29,1,15,1,15,1,-32768,1,-32768,1,-32768,1,-32768,1,-32768,1,-32768,1
1287,28,1,29,1,1,1,-28,1,14,1,15,1,-32768,1,-32768,1,-32768,1,-32768,1,-32768,1,-32768,1
1288,27,1,28,1,1,1,-27,1,13,1,15,1,-32768,1,-32768,1,-32768,1,-32768,1,-32768,1,-32768,1
1289,28,1,27,1,-1,1,-27,1,15,1,13,1,-32768,1,-32768,1,-32768,1,-32768,1,-32768,1,-32768,1
1290,28,1,28,1,0,1,-28,1,14,1,14,1,-32768,1,-32768,1,-32768,1,-32768,1,-32768,1,-32768,1
1291,29,1,28,1,-1,1,-28,1,15,1,14,1,-32768,1,-32768,1,-32768,1,-32768,1,-32768,1,-32768,1
1292,30,1,28,1,-2,1,-29,1,16,1,13,1,-32768,1,-32768,1,-32768,1,-32768,1,-32768,1,-32768,1
1293,31,1,29,1,-2,1,-30,1,17,1,14,1,-32768,1,-32768,1,-32768,1,-32768,1,-32768,1,-32768,1
1294,31,1,29,1,-2,1,-30,1,17,1,14,1,-32768,1,-32768,1,-32768,1,-32768,1,-32768,1,-32768,1
1295,31,1,30,1,-1,1,-30,1,16,1,15,1,-32768,1,-32768,1,-32768,1,-32768,1,-32768,1,-32768,1
1296,30,1,30,1,0,1,-30,1,15,1,15,1,-32768,1,-32768,1,-32768,1,-32768,1,-32768,1,-32768,1
1297,30,1,30,1,0,1,-30,1,15,1,15,1,-32768,1,-32768,1,-32768,1,-32768,1,-32768,1,-32768,1
1298,29,1,29,1,0,1,-29,1,15,1,15,1,-32768,1,-32768,1,-32768,1,-32768,1,-32768,1,-32768,1
1299,30,1,29,1,-1,1,-29,1,16,1,14,1,-32768,1,-32768,1,-32768,1,-32768,1,-32768,1,-32768,1
1300,30,1,30,1,0,1,-30,1,15,1,15,1,-32768,1,-32768,1,-32768,1,-32768,1,-32768,1,-32768,1
1301,30,1,30,1,0,1,-30,1,15,1,15,1,-32768,1,-32768,1,-32768,1,-32768,1,-32768,1,-32768,1
1302,30,1,30,1,0,1,-30,1,15,1,15,1,-32768,1,-32768,1,-32768,1,-32768,1,-32768,1,-32768,1
1303,30,1,29,1,-1,1,-29,1,16,1,14,1,-32768,1,-32768,1,-32768,1,-32768,1,-32768,1,-32768,1
1304,31,1,30,1,-1,1,-30,1,16,1,15,1,-32768,1,-32768,1,-32768,1,-32768,1,-32768,1,-32768,1
1305,32,1,30,1,-2,1,-31,1,17,1,14,1,-32768,1,-32768,1,-32768,1,-32768,1,-32768,1,-32768,1
1306,31,1,30,1,-1,1,-30,1,16,1,15,1,-32768,1,-32768,1,-32768,1,-32768,1,-32768,1,-32768,1
1307,30,1,30,1,0,1,-30,1,15,1,15,1,-32768,1,-32768,1,-32768,1,-32768,1,-32768,1,-32768,1
1308,30,1,30,1,0,1,-30,1,15,1,15,1,-32768,1,-32768,1,-32768,1,-32768,1,-32768,1,-32768,1
1309,30,1,29,1,-1,1,-29,1,16,1,14,1,-32768,1,-32768,1,-32768,1,-32768,1,-32768,1,-32768,1
1310,31,1,31,1,0,1,-31,1,16,1,16,1,-32768,1,-32768,1,-32768,1,-32768,1,-32768,1,-32768,1
1311,32,1,31,1,-1,1,-31,1,17,1,15,1,-32768,1,-32768,1,-32768,1,-32768,1,-32768,1,-32768,1
1312,33,1,31,1,-2,1,-32,1,18,1,15,1,-32768,1,-32768,1,-32768,1,-32768,1,-32768,1,-32768,1
1313,33,1,31,1,-2,1,-32,1,18,1,15,1,-32768,1,-32768,1,-32768,1,-32768,1,-32768,1,-32768,1
1314,33,1,31,1,-2,1,-32,1,18,1,15,1,-32768,1,-32768,1,-32768,1,-32768,1,-32768,1,-32768,1
1315,33,1,32,1,-1,1,-32,1,17,1,16,1,-32768,1,-32768,1,-32768,1,-32768,1,-32768,1,-32768,1
1316,33,1,32,1,-1,1,-32,1,17,1,16,1,-32768,1,-32768,1,-32768,1,-32768,1,-32768,1,-32768,1
1317,32,1,32,1,0,1,-32,1,16,1,16,1,-32768,1,-32768,1,-32768,1,-32768,1,-32768,1,-32768,1
1318,32,1,31,1,-1,1,-31,1,17,1,15,1,-32768,1,-32768,1,-32768,1,-32768,1,-32768,1,-32768,1
1319,31,1,31,1,0,1,-31,1,16,1,16,1,-32768,1,-32768,1,-32768,1,-32768,1,-32768,1,-32768,1
1320,31,1,31,1,0,1,-31,1,16,1,16,1,-32768,1,-32768,1,-32768,1,-32768,1,-32768,1,-32768,1
1321,32,1,31,1,-1,1,-31,1,17,1,15,1,-32768,1,-32768,1,-32768,1,-32768,1,-32768,1,-32768,1
1322,34,1,31,1,-3,1,-32,1,19,1,14,1,-32768,1,-32768,1,-32768,1,-32768,1,-32768,1,-32768,1
1323,35,1,31,1,-4,1,-33,1,20,1,14,1,-32768,1,-32768,1,-32768,1,-32768,1,-32768,1,-32768,1
1324,35,1,31,1,-4,1,-33,1,20,1,14,1,-32768,1,-32768,1,-32768,1,-32768,1,-32768,1,-32768,1
1325,35,1,32,1,-3,1,-33,1,19,1,15,1,-32768,1,-32768,1,-32768,1,-32768,1,-32768,1,-32768,1
1326,34,1,32,1,-2,1,-33,1,18,1,15,1,-32768,1,-32768,1,-32768,1,-32768,1,-32768,1,-32768,1
1327,35,1,33,1,-2,1,-34,1,19,1,16,1,-32768,1,-32768,1,-32768,1,-32768,1,-32768,1,-32768,1
1328,34,1,33,1,-1,1,-33,1,18,1,16,1,-32768,1,-32768,1,-32768,1,-32768,1,-32768,1,-32768,1
1329,34,1,33,1,-1,1,-33,1,18,1,16,1,-32768,1,-32768,1,-32768,1,-32768,1,-32768,1,-32768,1
1330,34,1,34,1,0,1,-34,1,17,1,17,1,-32768,1,-32768,1,-32768,1,-32768,1,-32768,1,-32768,1
1331,35,1,34,1,-1,1,-34,1,18,1,17,1,-32768,1,-32768,1,-32768,1,-32768,1,-32768,1,-32768,1
1332,36,1,34,1,-2,1,-35,1,19,1,16,1,-32768,1,-32768,1,-32768,1,-32768,1,-32768,1,-32768,1
1333,37,1,34,1,-3,1,-35,1,20,1,16,1,-32768,1,-32768,1,-32768,1,-32768,1,-32768,1,-32768,1
1334,37,1,34,1,-3,1,-35,1,20,1,16,1,-32768,1,-32768,1,-32768,1,-32768,1,-32768,1,-32768,1
1335,37,1,35,1,-2,1,-36,1,20,1,17,1,-32768,1,-32768,1,-32768,1,-32768,1,-32768,1,-32768,1
1336,35,1,35,1,0,1,-35,1,18,1,18,1,-32768,1,-32768,1,-32768,1,-32768,1,-32768,1,-32768,1
1337,35,1,34,1,-1,1,-34,1,18,1,17,1,-32768,1,-32768,1,-32768,1,-32768,1,-32768,1,-32768,1
1338,36,1,34,1,-2,1,-35,1,19,1,16,1,-32768,1,-32768,1,-32768,1,-32768,1,-32768,1,-32768,1
1339,36,1,35,1,-1,1,-35,1,19,1,17,1,-32768,1,-32768,1,-32768,1,-32768,1,-32768,1,-32768,1
1340,36,1,35,1,-1,1,-35,1,19,1,17,1,-32768,1,-32768,1,-32768,1,-32768,1,-32768,1,-32768,1
1341,38,1,35,1,-3,1,-36,1,21,1,16,1,-32768,1,-32768,1,-32768,1,-32768,1,-32768,1,-32768,1
1342,39,1,35,1,-4,1,-37,1,22,1,16,1,-32768,1,-32768,1,-32768,1,-32768,1,-32768,1,-32768,1
1343,40,1,35,1,-5,1,-37,1,23,1,15,1,-32768,1,-32768,1,-32768,1,-32768,1,-32768,1,-32768,1
1344,39,1,36,1,-3,1,-37,1,21,1,17,1,-32768,1,-32768,1,-32768,1,-32768,1,-32768,1,-32768,1
1345,39,1,36,1,-3,1,-37,1,21,1,17,1,-32768,1,-32768,1,-32768,1,-32768,1,-32768,1,-32768,1
1346,38,1,36,1,-2,1,-37,1,20,1,17,1,-32768,1,-32768,1,-32768,1,-32768,1,-32768,1,-32768,1
1347,38,1,36,1,-2,1,-37,1,20,1,17,1,-32768,1,-32768,1,-32768,1,-32768,1,-32768,1,-32768,1
1348,38,1,35,1,-3,1,-36,1,21,1,16,1,-32768,1,-32768,1,-32768,1,-32768,1,-32768,1,-32768,1
1349,39,1,36,1,-3,1,-37,1,21,1,17,1,-32768,1,-32768,1,-32768,1,-32768,1,-32768,1,-32768,1
1350,39,1,36,1,-3,1,-37,1,21,1,17,1,-32768,1,-32768,1,-32768,1,-32768,1,-32768,1,-32768,1
1351,40,1,36,1,-4,1,-38,1,22,1,16,1,-32768,1,-32768,1,-32768,1,-32768,1,-32768,1,-32768,1
1352,41,1,36,1,-5,1,-38,1,23,1,16,1,-32768,1,-32768,1,-32768,1,-32768,1,-32768,1,-32768,1
1353,42,1,37,1,-5,1,-39,1,24,1,16,1,-32768,1,-32768,1,-32768,1,-32768,1,-32768,1,-32768,1
1354,42,1,38,1,-4,1,-40,1,23,1,17,1,-32768,1,-32768,1,-32768,1,-32768,1,-32768,1,-32768,1
1355,42,1,38,1,-4,1,-40,1,23,1,17,1,-32768,1,-32768,1,-32768,1,-32768,1,-32768,1,-32768,1
1356,42,1,38,1,-4,1,-40,1,23,1,17,1,-32768,1,-32768,1,-32768,1,-32768,1,-32768,1,-32768,1
1357,41,1,38,1,-3,1,-39,1,22,1,18,1,-32768,1,-32768,1,-32768,1,-32768,1,-32768,1,-32768,1
1358,41,1,39,1,-2,1,-40,1,22,1,19,1,-32768,1,-32768,1,-32768,1,-32768,1,-32768,1,-32768,1
1359,42,1,39,1,-3,1,-40,1,23,1,18,1,-32768,1,-32768,1,-32768,1,-32768,1,-32768,1,-32768,1
1360,42,1,39,1,-3,1,-40,1,23,1,18,1,-32768,1,-32768,1,-32768,1,-32768,1,-32768,1,-32768,1
1361,43,1,38,1,-5,1,-40,1,24,1,17,1,-32768,1,-32768,1,-32768,1,-32768,1,-32768,1,-32768,1
1362,43,1,39,1,-4,1,-41,1,24,1,18,1,-32768,1,-32768,1,-32768,1,-32768,1,-32768,1,-32768,1
1363,43,1,39,1,-4,1,-41,1,24,1,18,1,-32768,1,-32768,1,-32768,1,-32768,1,-32768,1,-32768,1
1364,43,1,39,1,-4,1,-41,1,24,1,18,1,-32768,1,-32768,1,-32768,1,-32768,1,-32768,1,-32768,1
1365,44,1,40,1,-4,1,-42,1,24,1,18,1,-32768,1,-32768,1,-32768,1,-32768,1,-32768,1,-32768,1
1366,43,1,40,1,-3,1,-41,1,23,1,19,1,-32768,1,-32768,1,-32768,1,-32768,1,-32768,1,-32768,1
1367,43,1,40,1,-3,1,-41,1,23,1,19,1,-32768,1,-32768,1,-32768,1,-32768,1,-32768,1,-32768,1
1368,43,1,40,1,-3,1,-41,1,23,1,19,1,-32768,1,-32768,1,-32768,1,-32768,1,-32768,1,-32768,1
