TS,I,If,II,IIf,III,IIIf,aVR,aVRf,aVL,aVLf,aVF,aVFf,V1,V1f,V2,V2f,V3,V3f,V4,V4f,V5,V5f,V6,V6f
1,-13,1,-4,1,9,1,8,1,-11,1,2,1,-13,1,-45,1,-38,1,-30,1,-33,1,-10,1
2,-16,1,-3,1,13,1,9,1,-15,1,5,1,-12,1,-45,1,-37,1,-30,1,-32,1,-10,1
3,-19,1,-4,1,15,1,11,1,-17,1,5,1,-14,1,-45,1,-37,1,-30,1,-33,1,-10,1
4,-18,1,0,1,18,1,9,1,-18,1,9,1,-11,1,-44,1,-38,1,-31,1,-33,1,-9,1
5,-17,1,1,1,18,1,8,1,-17,1,9,1,-11,1,-45,1,-40,1,-33,1,-34,1,-9,1
6,-13,1,3,1,16,1,5,1,-14,1,9,1,-12,1,-44,1,-43,1,-33,1,-35,1,-9,1
7,-11,1,2,1,13,1,4,1,-12,1,7,1,-13,1,-44,1,-44,1,-33,1,-36,1,-11,1
8,-13,1,2,1,15,1,5,1,-14,1,8,1,-13,1,-43,1,-43,1,-32,1,-36,1,-10,1
9,-14,1,1,1,15,1,6,1,-14,1,8,1,-14,1,-46,1,-42,1,-32,1,-36,1,-11,1
10,-15,1,-1,1,14,1,8,1,-15,1,6,1,-14,1,-47,1,-40,1,-31,1,-34,1,-11,1
11,-13,1,0,1,13,1,6,1,-13,1,6,1,-12,1,-45,1,-37,1,-28,1,-32,1,-9,1
12,-14,1,-4,1,10,1,9,1,-12,1,3,1,-11,1,-43,1,-34,1,-25,1,-29,1,-7,1
13,-16,1,-7,1,9,1,11,1,-13,1,1,1,-11,1,-43,1,-34,1,-25,1,-29,1,-7,1
14,-13,1,-5,1,8,1,9,1,-11,1,1,1,-11,1,-42,1,-35,1,-26,1,-30,1,-6,1
15,-11,1,-1,1,10,1,6,1,-11,1,4,1,-13,1,-43,1,-40,1,-29,1,-33,1,-9,1
16,-10,1,4,1,14,1,3,1,-12,1,9,1,-15,1,-44,1,-42,1,-31,1,-35,1,-11,1
17,-10,1,5,1,15,1,2,1,-12,1,10,1,-15,1,-44,1,-43,1,-29,1,-36,1,-12,1
18,-12,1,3,1,15,1,4,1,-13,1,9,1,-15,1,-45,1,-43,1,-28,1,-35,1,-14,1
19,-11,1,1,1,12,1,5,1,-11,1,6,1,-14,1,-45,1,-40,1,-26,1,-34,1,-13,1
20,-13,1,-1,1,12,1,7,1,-13,1,5,1,-15,1,-45,1,-37,1,-25,1,-34,1,-13,1
21,-16,1,-6,1,10,1,11,1,-13,1,2,1,-12,1,-44,1,-35,1,-24,1,-31,1,-11,1
22,-15,1,-6,1,9,1,10,1,-12,1,1,1,-10,1,-43,1,-33,1,-22,1,-30,1,-9,1
23,-15,1,-4,1,11,1,9,1,-13,1,3,1,-11,1,-43,1,-33,1,-21,1,-30,1,-8,1
24,-12,1,-2,1,10,1,7,1,-11,1,4,1,-11,1,-43,1,-35,1,-22,1,-30,1,-7,1
25,-12,1,0,1,12,1,6,1,-12,1,6,1,-12,1,-44,1,-38,1,-24,1,-33,1,-8,1
26,-10,1,1,1,11,1,4,1,-10,1,6,1,-13,1,-41,1,-39,1,-24,1,-34,1,-9,1
27,-8,1,2,1,10,1,3,1,-9,1,6,1,-13,1,-42,1,-40,1,-24,1,-34,1,-9,1
28,-11,1,-1,1,10,1,6,1,-11,1,4,1,-15,1,-44,1,-43,1,-25,1,-35,1,-10,1
29,-13,1,-4,1,9,1,8,1,-11,1,2,1,-14,1,-44,1,-40,1,-23,1,-34,1,-11,1
30,-16,1,-6,1,10,1,11,1,-13,1,2,1,-15,1,-45,1,-40,1,-23,1,-34,1,-11,1
31,-17,1,-9,1,8,1,13,1,-13,1,-1,1,-13,1,-43,1,-37,1,-21,1,-32,1,-10,1
32,-16,1,-8,1,8,1,12,1,-12,1,0,1,-10,1,-41,1,-34,1,-19,1,-30,1,-9,1
33,-15,1,-5,1,10,1,10,1,-13,1,2,1,-9,1,-41,1,-33,1,-19,1,-31,1,-9,1
34,-12,1,0,1,12,1,6,1,-12,1,6,1,-8,1,-39,1,-33,1,-20,1,-31,1,-7,1
35,-10,1,4,1,14,1,3,1,-12,1,9,1,-10,1,-38,1,-36,1,-21,1,-32,1,-7,1
36,-8,1,5,1,13,1,1,1,-10,1,9,1,-13,1,-40,1,-40,1,-23,1,-34,1,-10,1
37,-9,1,5,1,14,1,2,1,-11,1,9,1,-14,1,-40,1,-43,1,-24,1,-36,1,-12,1
38,-11,1,5,1,16,1,3,1,-13,1,10,1,-13,1,-42,1,-44,1,-24,1,-36,1,-12,1
39,-12,1,2,1,14,1,5,1,-13,1,8,1,-13,1,-43,1,-42,1,-22,1,-35,1,-11,1
40,-11,1,0,1,11,1,5,1,-11,1,5,1,-12,1,-41,1,-36,1,-19,1,-32,1,-10,1
41,-14,1,-2,1,12,1,8,1,-13,1,5,1,-11,1,-41,1,-33,1,-17,1,-28,1,-9,1
42,-15,1,-5,1,10,1,10,1,-13,1,2,1,-11,1,-41,1,-33,1,-17,1,-28,1,-8,1
43,-12,1,-2,1,10,1,7,1,-11,1,4,1,-11,1,-41,1,-33,1,-18,1,-29,1,-6,1
44,-10,1,0,1,10,1,5,1,-10,1,5,1,-10,1,-37,1,-33,1,-17,1,-28,1,-5,1
45,-5,1,2,1,7,1,1,1,-6,1,4,1,-11,1,-37,1,-35,1,-18,1,-30,1,-6,1
46,-3,1,4,1,7,1,0,1,-5,1,5,1,-11,1,-36,1,-35,1,-17,1,-30,1,-5,1
47,-3,1,4,1,7,1,0,1,-5,1,5,1,-9,1,-34,1,-34,1,-16,1,-29,1,-5,1
48,-2,1,8,1,10,1,-3,1,-6,1,9,1,-10,1,-34,1,-34,1,-15,1,-29,1,-6,1
49,-2,1,5,1,7,1,-1,1,-4,1,6,1,-10,1,-34,1,-31,1,-12,1,-27,1,-6,1
50,-3,1,1,1,4,1,1,1,-3,1,2,1,-7,1,-31,1,-28,1,-9,1,-26,1,-5,1
51,-3,1,0,1,3,1,1,1,-3,1,1,1,-6,1,-31,1,-25,1,-7,1,-22,1,-4,1
52,-1,1,0,1,1,1,0,1,-1,1,0,1,-7,1,-31,1,-24,1,-7,1,-21,1,-2,1
53,0,1,0,1,0,1,0,1,0,1,0,1,-9,1,-32,1,-24,1,-8,1,-22,1,-2,1
54,0,1,1,1,1,1,0,1,0,1,1,1,-9,1,-29,1,-25,1,-7,1,-22,1,-1,1
55,3,1,5,1,2,1,-4,1,1,1,4,1,-10,1,-29,1,-28,1,-8,1,-23,1,-2,1
56,6,1,13,1,7,1,-9,1,0,1,10,1,-10,1,-30,1,-30,1,-8,1,-25,1,-4,1
57,8,1,16,1,8,1,-12,1,0,1,12,1,-13,1,-31,1,-31,1,-8,1,-25,1,-3,1
58,6,1,14,1,8,1,-10,1,-1,1,11,1,-16,1,-34,1,-32,1,-8,1,-25,1,-5,1
59,4,1,12,1,8,1,-8,1,-2,1,10,1,-17,1,-35,1,-31,1,-8,1,-25,1,-6,1
60,6,1,13,1,7,1,-9,1,0,1,10,1,-17,1,-35,1,-29,1,-6,1,-24,1,-6,1
61,2,1,12,1,10,1,-7,1,-4,1,11,1,-15,1,-36,1,-27,1,-5,1,-22,1,-6,1
62,-2,1,7,1,9,1,-2,1,-5,1,8,1,-16,1,-38,1,-27,1,-6,1,-23,1,-7,1
63,-5,1,3,1,8,1,1,1,-6,1,5,1,-20,1,-39,1,-29,1,-8,1,-24,1,-7,1
64,-1,1,7,1,8,1,-3,1,-4,1,7,1,-21,1,-39,1,-31,1,-9,1,-26,1,-7,1
65,2,1,9,1,7,1,-5,1,-2,1,8,1,-20,1,-37,1,-33,1,-9,1,-26,1,-6,1
66,2,1,11,1,9,1,-6,1,-3,1,10,1,-19,1,-36,1,-34,1,-8,1,-26,1,-7,1
67,5,1,11,1,6,1,-8,1,0,1,9,1,-19,1,-35,1,-35,1,-8,1,-27,1,-8,1
68,7,1,11,1,4,1,-9,1,2,1,8,1,-19,1,-34,1,-33,1,-6,1,-26,1,-8,1
69,4,1,5,1,1,1,-4,1,2,1,3,1,-21,1,-36,1,-33,1,-7,1,-26,1,-9,1
70,2,1,1,1,-1,1,-1,1,2,1,0,1,-22,1,-38,1,-33,1,-8,1,-26,1,-10,1
71,1,1,1,1,0,1,-1,1,1,1,1,1,-20,1,-38,1,-30,1,-6,1,-25,1,-9,1
72,2,1,3,1,1,1,-2,1,1,1,2,1,-19,1,-38,1,-28,1,-5,1,-22,1,-9,1
73,1,1,3,1,2,1,-2,1,0,1,3,1,-20,1,-38,1,-29,1,-6,1,-24,1,-9,1
74,2,1,5,1,3,1,-3,1,0,1,4,1,-21,1,-40,1,-32,1,-9,1,-27,1,-10,1
75,3,1,8,1,5,1,-5,1,-1,1,7,1,-22,1,-39,1,-36,1,-11,1,-29,1,-11,1
76,5,1,10,1,5,1,-7,1,0,1,8,1,-22,1,-38,1,-37,1,-10,1,-29,1,-12,1
77,4,1,8,1,4,1,-6,1,0,1,6,1,-21,1,-37,1,-38,1,-10,1,-28,1,-13,1
78,3,1,7,1,4,1,-5,1,0,1,6,1,-20,1,-38,1,-38,1,-9,1,-28,1,-14,1
79,0,1,5,1,5,1,-2,1,-2,1,5,1,-20,1,-38,1,-38,1,-9,1,-28,1,-15,1
80,-2,1,3,1,5,1,0,1,-3,1,4,1,-18,1,-39,1,-35,1,-9,1,-27,1,-14,1
81,-1,1,4,1,5,1,-1,1,-3,1,4,1,-17,1,-40,1,-32,1,-7,1,-25,1,-15,1
82,-6,1,-2,1,4,1,4,1,-5,1,1,1,-17,1,-39,1,-31,1,-6,1,-24,1,-13,1
83,-11,1,-5,1,6,1,8,1,-9,1,0,1,-14,1,-36,1,-29,1,-6,1,-25,1,-14,1
84,-11,1,-3,1,8,1,7,1,-10,1,2,1,-13,1,-33,1,-29,1,-5,1,-25,1,-14,1
85,-9,1,1,1,10,1,4,1,-9,1,5,1,-13,1,-33,1,-32,1,-6,1,-27,1,-15,1
86,-9,1,3,1,12,1,3,1,-10,1,7,1,-14,1,-33,1,-36,1,-8,1,-29,1,-16,1
87,-12,1,0,1,12,1,6,1,-12,1,6,1,-16,1,-36,1,-41,1,-12,1,-34,1,-20,1
88,-14,1,-4,1,10,1,9,1,-12,1,3,1,-16,1,-40,1,-44,1,-14,1,-36,1,-22,1
89,-15,1,-7,1,8,1,11,1,-12,1,0,1,-18,1,-43,1,-43,1,-15,1,-36,1,-24,1
90,-17,1,-8,1,9,1,12,1,-13,1,0,1,-17,1,-44,1,-42,1,-14,1,-35,1,-24,1
91,-18,1,-11,1,7,1,14,1,-13,1,-2,1,-15,1,-43,1,-39,1,-11,1,-32,1,-22,1
92,-17,1,-12,1,5,1,14,1,-11,1,-4,1,-15,1,-42,1,-38,1,-10,1,-30,1,-19,1
93,-19,1,-10,1,9,1,14,1,-14,1,-1,1,-15,1,-41,1,-37,1,-9,1,-30,1,-17,1
94,-18,1,-6,1,12,1,12,1,-15,1,3,1,-15,1,-41,1,-39,1,-10,1,-31,1,-18,1
95,-14,1,-1,1,13,1,7,1,-14,1,6,1,-15,1,-42,1,-42,1,-12,1,-33,1,-18,1
96,-11,1,0,1,11,1,5,1,-11,1,5,1,-15,1,-40,1,-44,1,-12,1,-35,1,-18,1
97,-12,1,-1,1,11,1,6,1,-12,1,5,1,-18,1,-41,1,-47,1,-15,1,-38,1,-21,1
98,-15,1,-3,1,12,1,9,1,-14,1,4,1,-18,1,-42,1,-47,1,-13,1,-37,1,-22,1
99,-18,1,-6,1,12,1,12,1,-15,1,3,1,-16,1,-42,1,-44,1,-12,1,-35,1,-23,1
100,-19,1,-9,1,10,1,14,1,-15,1,0,1,-13,1,-42,1,-42,1,-9,1,-33,1,-21,1
101,-19,1,-13,1,6,1,16,1,-13,1,-4,1,-12,1,-41,1,-37,1,-7,1,-31,1,-19,1
102,-21,1,-13,1,8,1,17,1,-15,1,-3,1,-13,1,-41,1,-36,1,-7,1,-30,1,-18,1
103,-19,1,-13,1,6,1,16,1,-13,1,-4,1,-12,1,-41,1,-37,1,-6,1,-30,1,-17,1
104,-17,1,-8,1,9,1,12,1,-13,1,0,1,-14,1,-42,1,-40,1,-8,1,-32,1,-18,1
105,-16,1,-4,1,12,1,10,1,-14,1,4,1,-15,1,-42,1,-43,1,-10,1,-34,1,-19,1
106,-14,1,0,1,14,1,7,1,-14,1,7,1,-16,1,-42,1,-45,1,-10,1,-35,1,-17,1
107,-12,1,1,1,13,1,5,1,-12,1,7,1,-16,1,-41,1,-45,1,-10,1,-36,1,-18,1
108,-10,1,1,1,11,1,4,1,-10,1,6,1,-15,1,-40,1,-42,1,-9,1,-35,1,-19,1
109,-18,1,-9,1,9,1,13,1,-14,1,0,1,-16,1,-41,1,-41,1,-7,1,-35,1,-20,1
110,-21,1,-13,1,8,1,17,1,-15,1,-3,1,-14,1,-40,1,-39,1,-6,1,-34,1,-21,1
111,-23,1,-13,1,10,1,18,1,-17,1,-2,1,-6,1,-34,1,-35,1,-4,1,-32,1,-19,1
112,-22,1,-9,1,13,1,15,1,-18,1,2,1,3,1,-27,1,-30,1,-3,1,-32,1,-19,1
113,-22,1,-4,1,18,1,13,1,-20,1,7,1,13,1,-18,1,-28,1,-3,1,-32,1,-19,1
114,-26,1,-2,1,24,1,14,1,-25,1,11,1,18,1,-10,1,-25,1,-1,1,-33,1,-18,1
115,-25,1,2,1,27,1,11,1,-26,1,14,1,20,1,-1,1,-20,1,3,1,-30,1,-16,1
116,-17,1,7,1,24,1,5,1,-20,1,15,1,24,1,15,1,-10,1,12,1,-24,1,-13,1
117,-7,1,9,1,16,1,-1,1,-11,1,12,1,31,1,41,1,8,1,26,1,-16,1,-7,1
118,1,1,7,1,6,1,-4,1,-2,1,7,1,44,1,72,1,32,1,43,1,-5,1,-2,1
119,9,1,10,1,1,1,-9,1,4,1,6,1,54,1,101,1,62,1,64,1,10,1,7,1
120,23,1,21,1,-2,1,-22,1,13,1,10,1,62,1,136,1,103,1,99,1,36,1,23,1
121,36,1,32,1,-4,1,-34,1,20,1,14,1,60,1,160,1,146,1,138,1,66,1,43,1
122,57,1,52,1,-5,1,-54,1,31,1,24,1,45,1,175,1,187,1,178,1,99,1,65,1
123,82,1,74,1,-8,1,-78,1,45,1,33,1,19,1,181,1,228,1,219,1,131,1,90,1
124,101,1,98,1,-3,1,-99,1,52,1,48,1,-18,1,172,1,259,1,256,1,163,1,116,1
125,122,1,123,1,1,1,-122,1,61,1,62,1,-71,1,134,1,269,1,283,1,191,1,142,1
126,139,1,149,1,10,1,-144,1,65,1,80,1,-124,1,86,1,271,1,302,1,215,1,166,1
127,147,1,163,1,16,1,-155,1,66,1,90,1,-161,1,48,1,272,1,314,1,228,1,180,1
128,146,1,158,1,12,1,-152,1,67,1,85,1,-179,1,17,1,271,1,318,1,231,1,181,1
129,131,1,134,1,3,1,-132,1,64,1,69,1,-180,1,-2,1,263,1,304,1,214,1,168,1
130,114,1,108,1,-6,1,-111,1,60,1,51,1,-176,1,-22,1,239,1,271,1,186,1,147,1
131,93,1,90,1,-3,1,-91,1,48,1,44,1,-183,1,-59,1,189,1,223,1,152,1,127,1
132,67,1,74,1,7,1,-70,1,30,1,41,1,-185,1,-107,1,121,1,161,1,109,1,102,1
133,45,1,54,1,9,1,-49,1,18,1,32,1,-188,1,-158,1,43,1,97,1,62,1,75,1
134,22,1,35,1,13,1,-28,1,5,1,24,1,-188,1,-219,1,-49,1,28,1,15,1,46,1
135,-1,1,19,1,20,1,-9,1,-10,1,19,1,-188,1,-279,1,-138,1,-37,1,-28,1,20,1
136,-15,1,8,1,23,1,3,1,-19,1,15,1,-197,1,-315,1,-199,1,-82,1,-58,1,1,1
137,-26,1,5,1,31,1,10,1,-28,1,18,1,-199,1,-325,1,-226,1,-103,1,-76,1,-12,1
138,-35,1,0,1,35,1,17,1,-35,1,17,1,-189,1,-309,1,-222,1,-106,1,-83,1,-20,1
139,-45,1,-12,1,33,1,28,1,-39,1,10,1,-176,1,-290,1,-212,1,-107,1,-90,1,-30,1
140,-52,1,-17,1,35,1,34,1,-44,1,9,1,-169,1,-275,1,-201,1,-103,1,-92,1,-34,1
141,-52,1,-21,1,31,1,36,1,-42,1,5,1,-163,1,-258,1,-190,1,-100,1,-94,1,-36,1
142,-56,1,-26,1,30,1,41,1,-43,1,2,1,-155,1,-240,1,-180,1,-98,1,-96,1,-39,1
143,-56,1,-23,1,33,1,39,1,-45,1,5,1,-143,1,-213,1,-163,1,-88,1,-93,1,-39,1
144,-51,1,-13,1,38,1,32,1,-45,1,12,1,-129,1,-188,1,-146,1,-76,1,-86,1,-34,1
145,-45,1,-5,1,40,1,25,1,-43,1,17,1,-118,1,-166,1,-130,1,-63,1,-77,1,-29,1
146,-39,1,-1,1,38,1,20,1,-39,1,18,1,-101,1,-143,1,-115,1,-52,1,-70,1,-26,1
147,-33,1,4,1,37,1,14,1,-35,1,20,1,-84,1,-120,1,-99,1,-39,1,-62,1,-22,1
148,-28,1,7,1,35,1,10,1,-31,1,21,1,-68,1,-97,1,-79,1,-25,1,-52,1,-18,1
149,-26,1,9,1,35,1,8,1,-30,1,22,1,-53,1,-78,1,-63,1,-12,1,-44,1,-14,1
150,-24,1,8,1,32,1,8,1,-28,1,20,1,-40,1,-65,1,-51,1,-4,1,-38,1,-10,1
151,-22,1,4,1,26,1,9,1,-24,1,15,1,-29,1,-52,1,-40,1,1,1,-32,1,-5,1
152,-19,1,2,1,21,1,8,1,-20,1,11,1,-20,1,-41,1,-33,1,7,1,-28,1,-2,1
153,-15,1,5,1,20,1,5,1,-17,1,12,1,-15,1,-33,1,-30,1,9,1,-28,1,-1,1
154,-14,1,6,1,20,1,4,1,-17,1,13,1,-13,1,-28,1,-29,1,11,1,-28,1,-1,1
155,-14,1,5,1,19,1,4,1,-16,1,12,1,-13,1,-24,1,-30,1,10,1,-30,1,-3,1
156,-10,1,7,1,17,1,1,1,-13,1,12,1,-11,1,-22,1,-30,1,10,1,-31,1,-2,1
157,-10,1,7,1,17,1,1,1,-13,1,12,1,-10,1,-20,1,-30,1,11,1,-31,1,-2,1
158,-14,1,1,1,15,1,6,1,-14,1,8,1,-10,1,-19,1,-30,1,10,1,-32,1,-4,1
159,-16,1,-4,1,12,1,10,1,-14,1,4,1,-9,1,-18,1,-28,1,12,1,-30,1,-3,1
160,-16,1,-4,1,12,1,10,1,-14,1,4,1,-7,1,-16,1,-25,1,16,1,-27,1,-1,1
161,-15,1,-2,1,13,1,8,1,-14,1,5,1,-6,1,-15,1,-21,1,19,1,-25,1,0,1
162,-14,1,2,1,16,1,6,1,-15,1,9,1,-4,1,-13,1,-18,1,20,1,-23,1,1,1
163,-13,1,5,1,18,1,4,1,-15,1,11,1,-3,1,-11,1,-18,1,21,1,-22,1,2,1
164,-9,1,4,1,13,1,2,1,-11,1,8,1,-2,1,-8,1,-17,1,22,1,-22,1,5,1
165,-6,1,7,1,13,1,0,1,-9,1,10,1,-3,1,-8,1,-18,1,22,1,-23,1,5,1
166,-6,1,10,1,16,1,-2,1,-11,1,13,1,-4,1,-7,1,-20,1,21,1,-24,1,5,1
167,-5,1,12,1,17,1,-3,1,-11,1,14,1,-4,1,-3,1,-19,1,22,1,-24,1,4,1
168,-6,1,7,1,13,1,0,1,-9,1,10,1,-3,1,-4,1,-20,1,22,1,-25,1,2,1
169,-9,1,2,1,11,1,3,1,-10,1,6,1,-3,1,-5,1,-19,1,21,1,-25,1,0,1
170,-10,1,0,1,10,1,5,1,-10,1,5,1,0,1,-4,1,-14,1,18,1,-23,1,2,1
171,-11,1,-2,1,9,1,6,1,-10,1,3,1,-1,1,-3,1,-12,1,15,1,-21,1,2,1
172,-10,1,-3,1,7,1,6,1,-9,1,2,1,1,1,-1,1,-9,1,15,1,-18,1,4,1
173,-9,1,-2,1,7,1,5,1,-8,1,2,1,3,1,1,1,-9,1,14,1,-17,1,5,1
174,-7,1,1,1,8,1,3,1,-7,1,4,1,5,1,2,1,-9,1,9,1,-18,1,5,1
175,-6,1,5,1,11,1,0,1,-8,1,8,1,3,1,3,1,-12,1,-15,1,-19,1,4,1
176,-5,1,9,1,14,1,-2,1,-9,1,11,1,2,1,4,1,-13,1,-33,1,-20,1,3,1
177,-4,1,10,1,14,1,-3,1,-9,1,12,1,1,1,5,1,-14,1,-42,1,-20,1,1,1
178,-6,1,6,1,12,1,0,1,-9,1,9,1,2,1,3,1,-13,1,-48,1,-20,1,0,1
179,-9,1,2,1,11,1,3,1,-10,1,6,1,1,1,3,1,-11,1,-52,1,-20,1,-2,1
180,-9,1,2,1,11,1,3,1,-10,1,6,1,5,1,4,1,-7,1,-50,1,-17,1,0,1
181,-10,1,-1,1,9,1,5,1,-10,1,4,1,6,1,4,1,-3,1,-50,1,-15,1,0,1
182,-9,1,0,1,9,1,4,1,-9,1,4,1,7,1,7,1,-2,1,-49,1,-13,1,2,1
183,-9,1,1,1,10,1,4,1,-9,1,5,1,7,1,8,1,-1,1,-48,1,-12,1,3,1
184,-6,1,5,1,11,1,0,1,-8,1,8,1,6,1,10,1,-1,1,-48,1,-12,1,4,1
185,-3,1,8,1,11,1,-2,1,-7,1,9,1,5,1,11,1,-2,1,-48,1,-13,1,5,1
186,-1,1,10,1,11,1,-4,1,-6,1,10,1,6,1,12,1,-3,1,-48,1,-14,1,5,1
187,-4,1,7,1,11,1,-1,1,-7,1,9,1,4,1,13,1,-5,1,-49,1,-16,1,3,1
188,-2,1,7,1,9,1,-2,1,-5,1,8,1,2,1,12,1,-4,1,-49,1,-16,1,2,1
189,-1,1,6,1,7,1,-2,1,-4,1,6,1,3,1,13,1,-1,1,-46,1,-12,1,2,1
190,-4,1,6,1,10,1,-1,1,-7,1,8,1,5,1,14,1,1,1,-43,1,-9,1,3,1
191,-5,1,5,1,10,1,0,1,-7,1,7,1,6,1,13,1,5,1,-40,1,-7,1,5,1
192,-5,1,5,1,10,1,0,1,-7,1,7,1,6,1,14,1,7,1,-40,1,-5,1,7,1
193,-3,1,8,1,11,1,-2,1,-7,1,9,1,9,1,17,1,8,1,-41,1,-5,1,7,1
194,0,1,10,1,10,1,-5,1,-5,1,10,1,12,1,20,1,8,1,-38,1,-4,1,10,1
195,-1,1,11,1,12,1,-5,1,-6,1,11,1,12,1,21,1,6,1,-39,1,-6,1,8,1
196,1,1,12,1,11,1,-6,1,-5,1,12,1,12,1,22,1,5,1,-41,1,-7,1,8,1
197,4,1,15,1,11,1,-9,1,-3,1,13,1,12,1,24,1,5,1,-39,1,-7,1,7,1
198,3,1,13,1,10,1,-8,1,-3,1,12,1,12,1,24,1,6,1,-36,1,-6,1,6,1
199,2,1,10,1,8,1,-6,1,-3,1,9,1,12,1,24,1,7,1,-36,1,-5,1,6,1
200,0,1,8,1,8,1,-4,1,-4,1,8,1,13,1,24,1,10,1,-35,1,-4,1,6,1
201,-1,1,7,1,8,1,-3,1,-4,1,7,1,14,1,26,1,16,1,-31,1,-1,1,9,1
202,-2,1,7,1,9,1,-2,1,-5,1,8,1,16,1,28,1,18,1,-30,1,0,1,10,1
203,0,1,9,1,9,1,-4,1,-4,1,9,1,17,1,29,1,19,1,-29,1,0,1,13,1
204,3,1,14,1,11,1,-8,1,-4,1,13,1,17,1,32,1,20,1,-26,1,3,1,15,1
205,5,1,16,1,11,1,-10,1,-3,1,14,1,18,1,35,1,19,1,-26,1,1,1,16,1
206,6,1,17,1,11,1,-11,1,-2,1,14,1,17,1,37,1,19,1,-27,1,1,1,16,1
207,7,1,20,1,13,1,-13,1,-3,1,17,1,16,1,40,1,17,1,-28,1,0,1,15,1
208,8,1,18,1,10,1,-13,1,-1,1,14,1,16,1,42,1,19,1,-25,1,1,1,15,1
209,7,1,15,1,8,1,-11,1,0,1,12,1,18,1,45,1,24,1,-22,1,3,1,16,1
210,5,1,12,1,7,1,-8,1,-1,1,10,1,21,1,47,1,29,1,-20,1,5,1,16,1
211,5,1,13,1,8,1,-9,1,-1,1,11,1,21,1,48,1,33,1,-19,1,6,1,17,1
212,4,1,12,1,8,1,-8,1,-2,1,10,1,20,1,49,1,34,1,-17,1,6,1,18,1
213,9,1,18,1,9,1,-13,1,0,1,14,1,22,1,53,1,38,1,-13,1,10,1,21,1
214,10,1,21,1,11,1,-15,1,0,1,16,1,23,1,56,1,37,1,-12,1,9,1,22,1
215,10,1,20,1,10,1,-15,1,0,1,15,1,21,1,57,1,36,1,-13,1,8,1,22,1
216,9,1,19,1,10,1,-14,1,0,1,15,1,21,1,59,1,36,1,-13,1,8,1,22,1
217,12,1,20,1,8,1,-16,1,2,1,14,1,21,1,61,1,38,1,-11,1,9,1,23,1
218,14,1,24,1,10,1,-19,1,2,1,17,1,21,1,63,1,41,1,-8,1,11,1,22,1
219,14,1,26,1,12,1,-20,1,1,1,19,1,22,1,65,1,45,1,-5,1,12,1,23,1
220,15,1,25,1,10,1,-20,1,3,1,18,1,24,1,68,1,50,1,-3,1,14,1,23,1
221,12,1,21,1,9,1,-16,1,2,1,15,1,26,1,71,1,56,1,1,1,18,1,26,1
222,13,1,21,1,8,1,-17,1,3,1,15,1,27,1,73,1,60,1,4,1,22,1,29,1
223,15,1,25,1,10,1,-20,1,3,1,18,1,28,1,77,1,62,1,6,1,22,1,30,1
224,16,1,29,1,13,1,-22,1,2,1,21,1,27,1,80,1,62,1,6,1,22,1,31,1
225,22,1,34,1,12,1,-28,1,5,1,23,1,29,1,85,1,66,1,10,1,24,1,34,1
226,23,1,34,1,11,1,-28,1,6,1,23,1,29,1,89,1,66,1,11,1,24,1,34,1
227,22,1,30,1,8,1,-26,1,7,1,19,1,27,1,91,1,67,1,12,1,25,1,34,1
228,22,1,27,1,5,1,-24,1,9,1,16,1,28,1,93,1,71,1,16,1,26,1,36,1
229,24,1,28,1,4,1,-26,1,10,1,16,1,28,1,93,1,74,1,19,1,29,1,37,1
230,25,1,29,1,4,1,-27,1,11,1,17,1,30,1,97,1,82,1,24,1,33,1,40,1
231,22,1,28,1,6,1,-25,1,8,1,17,1,32,1,99,1,87,1,27,1,36,1,42,1
232,24,1,30,1,6,1,-27,1,9,1,18,1,33,1,103,1,92,1,30,1,39,1,45,1
233,27,1,35,1,8,1,-31,1,10,1,22,1,34,1,106,1,95,1,32,1,40,1,46,1
234,29,1,38,1,9,1,-33,1,10,1,24,1,34,1,109,1,95,1,35,1,39,1,46,1
235,32,1,43,1,11,1,-37,1,11,1,27,1,34,1,112,1,95,1,35,1,39,1,48,1
236,33,1,46,1,13,1,-39,1,10,1,30,1,33,1,115,1,96,1,36,1,39,1,48,1
237,36,1,47,1,11,1,-41,1,13,1,29,1,33,1,117,1,97,1,38,1,41,1,49,1
238,34,1,45,1,11,1,-39,1,12,1,28,1,32,1,118,1,99,1,41,1,43,1,49,1
239,33,1,41,1,8,1,-37,1,13,1,25,1,32,1,120,1,104,1,45,1,45,1,49,1
240,33,1,41,1,8,1,-37,1,13,1,25,1,32,1,119,1,107,1,47,1,47,1,51,1
241,33,1,42,1,9,1,-37,1,12,1,26,1,30,1,118,1,110,1,49,1,47,1,52,1
242,33,1,44,1,11,1,-38,1,11,1,28,1,32,1,121,1,113,1,52,1,49,1,55,1
243,36,1,46,1,10,1,-41,1,13,1,28,1,33,1,124,1,115,1,54,1,51,1,57,1
244,39,1,53,1,14,1,-46,1,13,1,34,1,34,1,127,1,116,1,55,1,52,1,59,1
245,43,1,59,1,16,1,-51,1,14,1,38,1,34,1,128,1,116,1,56,1,52,1,61,1
246,43,1,59,1,16,1,-51,1,14,1,38,1,33,1,128,1,114,1,54,1,51,1,60,1
247,42,1,57,1,15,1,-49,1,14,1,36,1,32,1,128,1,114,1,56,1,51,1,60,1
248,40,1,52,1,12,1,-46,1,14,1,32,1,30,1,126,1,115,1,57,1,52,1,60,1
249,38,1,49,1,11,1,-43,1,14,1,30,1,30,1,126,1,118,1,59,1,55,1,61,1
250,40,1,48,1,8,1,-44,1,16,1,28,1,31,1,125,1,121,1,62,1,58,1,64,1
251,36,1,47,1,11,1,-41,1,13,1,29,1,32,1,125,1,123,1,64,1,60,1,66,1
252,36,1,49,1,13,1,-42,1,12,1,31,1,33,1,125,1,125,1,65,1,62,1,68,1
253,38,1,51,1,13,1,-44,1,13,1,32,1,32,1,126,1,124,1,66,1,61,1,69,1
254,41,1,55,1,14,1,-48,1,14,1,35,1,30,1,125,1,121,1,64,1,60,1,70,1
255,42,1,59,1,17,1,-50,1,13,1,38,1,29,1,124,1,119,1,62,1,58,1,69,1
256,42,1,61,1,19,1,-51,1,12,1,40,1,27,1,123,1,115,1,61,1,56,1,68,1
257,42,1,61,1,19,1,-51,1,12,1,40,1,25,1,120,1,112,1,59,1,54,1,66,1
258,43,1,60,1,17,1,-51,1,13,1,39,1,25,1,119,1,112,1,61,1,55,1,67,1
259,43,1,57,1,14,1,-50,1,15,1,36,1,25,1,116,1,113,1,61,1,56,1,66,1
260,39,1,54,1,15,1,-46,1,12,1,35,1,24,1,112,1,113,1,61,1,57,1,65,1
261,38,1,53,1,15,1,-45,1,12,1,34,1,24,1,110,1,113,1,61,1,58,1,66,1
262,36,1,53,1,17,1,-44,1,10,1,35,1,25,1,109,1,112,1,60,1,57,1,68,1
263,36,1,54,1,18,1,-45,1,9,1,36,1,24,1,105,1,108,1,58,1,55,1,68,1
264,36,1,56,1,20,1,-46,1,8,1,38,1,24,1,103,1,104,1,54,1,52,1,67,1
265,36,1,58,1,22,1,-47,1,7,1,40,1,23,1,100,1,99,1,52,1,49,1,68,1
266,35,1,59,1,24,1,-47,1,6,1,42,1,20,1,95,1,92,1,46,1,44,1,64,1
267,35,1,59,1,24,1,-47,1,6,1,42,1,17,1,89,1,85,1,41,1,41,1,61,1
268,32,1,54,1,22,1,-43,1,5,1,38,1,17,1,85,1,81,1,38,1,40,1,59,1
269,27,1,49,1,22,1,-38,1,3,1,36,1,16,1,80,1,79,1,38,1,39,1,59,1
270,23,1,46,1,23,1,-34,1,0,1,35,1,17,1,75,1,77,1,37,1,38,1,59,1
271,22,1,43,1,21,1,-32,1,1,1,32,1,17,1,70,1,75,1,35,1,38,1,59,1
272,21,1,40,1,19,1,-30,1,1,1,30,1,17,1,66,1,72,1,32,1,36,1,59,1
273,19,1,41,1,22,1,-30,1,-1,1,32,1,17,1,63,1,67,1,28,1,33,1,56,1
274,20,1,43,1,23,1,-31,1,-1,1,33,1,16,1,60,1,62,1,22,1,30,1,54,1
275,18,1,45,1,27,1,-31,1,-4,1,36,1,13,1,55,1,53,1,17,1,27,1,52,1
276,18,1,48,1,30,1,-33,1,-6,1,39,1,11,1,49,1,45,1,12,1,20,1,47,1
277,14,1,48,1,34,1,-31,1,-10,1,41,1,8,1,44,1,38,1,7,1,15,1,42,1
278,12,1,42,1,30,1,-27,1,-9,1,36,1,7,1,38,1,33,1,2,1,10,1,38,1
279,10,1,35,1,25,1,-22,1,-7,1,30,1,7,1,34,1,31,1,-1,1,9,1,35,1
280,5,1,28,1,23,1,-16,1,-9,1,26,1,8,1,30,1,29,1,-2,1,9,1,35,1
281,2,1,25,1,23,1,-13,1,-10,1,24,1,7,1,27,1,28,1,-3,1,9,1,36,1
282,0,1,24,1,24,1,-12,1,-12,1,24,1,7,1,23,1,26,1,-6,1,8,1,35,1
283,0,1,23,1,23,1,-11,1,-11,1,23,1,7,1,21,1,21,1,-10,1,5,1,34,1
284,2,1,27,1,25,1,-14,1,-11,1,26,1,6,1,18,1,16,1,-13,1,1,1,34,1
285,5,1,31,1,26,1,-18,1,-10,1,29,1,2,1,14,1,9,1,-18,1,-2,1,31,1
286,4,1,30,1,26,1,-17,1,-11,1,28,1,0,1,11,1,4,1,-21,1,-5,1,28,1
287,3,1,27,1,24,1,-15,1,-10,1,26,1,-1,1,8,1,0,1,-25,1,-9,1,24,1
288,-3,1,19,1,22,1,-8,1,-12,1,20,1,-1,1,4,1,-4,1,-28,1,-11,1,22,1
289,-7,1,11,1,18,1,-2,1,-12,1,14,1,-4,1,0,1,-6,1,-30,1,-13,1,19,1
290,-8,1,10,1,18,1,-1,1,-13,1,14,1,-4,1,-2,1,-7,1,-32,1,-14,1,19,1
291,-11,1,8,1,19,1,1,1,-15,1,13,1,-4,1,-4,1,-6,1,-31,1,-14,1,19,1
292,-10,1,9,1,19,1,0,1,-14,1,14,1,-3,1,-5,1,-7,1,-32,1,-15,1,19,1
293,-8,1,10,1,18,1,-1,1,-13,1,14,1,-3,1,-6,1,-8,1,-34,1,-15,1,19,1
294,-7,1,12,1,19,1,-2,1,-13,1,15,1,-4,1,-7,1,-12,1,-37,1,-18,1,17,1
295,-6,1,14,1,20,1,-4,1,-13,1,17,1,-4,1,-8,1,-15,1,-38,1,-20,1,16,1
296,-6,1,14,1,20,1,-4,1,-13,1,17,1,-6,1,-10,1,-18,1,-42,1,-23,1,14,1
297,-7,1,13,1,20,1,-3,1,-13,1,16,1,-8,1,-12,1,-21,1,-44,1,-26,1,11,1
298,-9,1,12,1,21,1,-1,1,-15,1,16,1,-8,1,-13,1,-22,1,-44,1,-27,1,10,1
299,-11,1,8,1,19,1,1,1,-15,1,13,1,-9,1,-16,1,-23,1,-44,1,-27,1,9,1
300,-12,1,6,1,18,1,3,1,-15,1,12,1,-7,1,-16,1,-20,1,-44,1,-27,1,9,1
301,-11,1,3,1,14,1,4,1,-12,1,8,1,-6,1,-15,1,-18,1,-42,1,-24,1,10,1
302,-11,1,0,1,11,1,5,1,-11,1,5,1,-6,1,-16,1,-17,1,-42,1,-23,1,11,1
303,-9,1,4,1,13,1,2,1,-11,1,8,1,-6,1,-16,1,-18,1,-43,1,-23,1,11,1
304,-13,1,2,1,15,1,5,1,-14,1,8,1,-9,1,-18,1,-23,1,-47,1,-26,1,10,1
305,-11,1,4,1,15,1,3,1,-13,1,9,1,-10,1,-17,1,-26,1,-48,1,-27,1,10,1
306,-9,1,8,1,17,1,0,1,-13,1,12,1,-10,1,-18,1,-29,1,-50,1,-29,1,9,1
307,-11,1,9,1,20,1,1,1,-15,1,14,1,-11,1,-19,1,-31,1,-51,1,-30,1,7,1
308,-12,1,7,1,19,1,2,1,-15,1,13,1,-11,1,-19,1,-30,1,-50,1,-29,1,7,1
309,-12,1,3,1,15,1,4,1,-13,1,9,1,-12,1,-20,1,-28,1,-49,1,-29,1,6,1
310,-13,1,3,1,16,1,5,1,-14,1,9,1,-12,1,-20,1,-26,1,-48,1,-27,1,6,1
311,-14,1,2,1,16,1,6,1,-15,1,9,1,-10,1,-19,1,-24,1,-48,1,-27,1,6,1
312,-14,1,2,1,16,1,6,1,-15,1,9,1,-8,1,-19,1,-23,1,-47,1,-26,1,8,1
313,-15,1,3,1,18,1,6,1,-16,1,10,1,-8,1,-18,1,-23,1,-46,1,-26,1,7,1
314,-12,1,6,1,18,1,3,1,-15,1,12,1,-7,1,-17,1,-24,1,-47,1,-27,1,8,1
315,-8,1,9,1,17,1,0,1,-12,1,13,1,-7,1,-16,1,-26,1,-47,1,-27,1,9,1
316,-8,1,8,1,16,1,0,1,-12,1,12,1,-11,1,-18,1,-30,1,-50,1,-30,1,6,1
317,-7,1,9,1,16,1,-1,1,-11,1,12,1,-10,1,-18,1,-30,1,-50,1,-31,1,5,1
318,-11,1,3,1,14,1,4,1,-12,1,8,1,-11,1,-20,1,-32,1,-52,1,-33,1,3,1
319,-15,1,1,1,16,1,7,1,-15,1,8,1,-11,1,-21,1,-30,1,-50,1,-33,1,2,1
320,-18,1,0,1,18,1,9,1,-18,1,9,1,-10,1,-20,1,-27,1,-47,1,-29,1,4,1
321,-16,1,0,1,16,1,8,1,-16,1,8,1,-8,1,-19,1,-24,1,-46,1,-28,1,7,1
322,-16,1,-1,1,15,1,8,1,-16,1,7,1,-9,1,-19,1,-24,1,-46,1,-27,1,8,1
323,-17,1,1,1,18,1,8,1,-17,1,9,1,-9,1,-19,1,-25,1,-45,1,-28,1,8,1
324,-16,1,4,1,20,1,6,1,-18,1,12,1,-8,1,-19,1,-27,1,-46,1,-29,1,8,1
325,-11,1,8,1,19,1,1,1,-15,1,13,1,-8,1,-17,1,-28,1,-45,1,-29,1,8,1
326,-12,1,9,1,21,1,1,1,-16,1,15,1,-9,1,-16,1,-30,1,-46,1,-30,1,8,1
327,-12,1,5,1,17,1,3,1,-14,1,11,1,-9,1,-16,1,-31,1,-47,1,-30,1,8,1
328,-13,1,5,1,18,1,4,1,-15,1,11,1,-10,1,-17,1,-31,1,-47,1,-30,1,7,1
329,-13,1,6,1,19,1,3,1,-16,1,12,1,-10,1,-19,1,-30,1,-47,1,-30,1,6,1
330,-15,1,2,1,17,1,6,1,-16,1,9,1,-8,1,-17,1,-26,1,-44,1,-28,1,8,1
331,-15,1,0,1,15,1,7,1,-15,1,7,1,-7,1,-15,1,-22,1,-42,1,-26,1,10,1
332,-14,1,1,1,15,1,6,1,-14,1,8,1,-7,1,-15,1,-21,1,-42,1,-24,1,12,1
333,-13,1,3,1,16,1,5,1,-14,1,9,1,-8,1,-16,1,-23,1,-43,1,-24,1,12,1
334,-13,1,5,1,18,1,4,1,-15,1,11,1,-8,1,-15,1,-25,1,-43,1,-24,1,13,1
335,-12,1,6,1,18,1,3,1,-15,1,12,1,-8,1,-15,1,-28,1,-45,1,-26,1,13,1
336,-10,1,11,1,21,1,0,1,-15,1,16,1,-9,1,-15,1,-30,1,-47,1,-28,1,11,1
337,-9,1,11,1,20,1,-1,1,-14,1,15,1,-10,1,-15,1,-31,1,-48,1,-29,1,10,1
338,-10,1,8,1,18,1,1,1,-14,1,13,1,-10,1,-15,1,-31,1,-47,1,-29,1,10,1
339,-10,1,6,1,16,1,2,1,-13,1,11,1,-10,1,-16,1,-29,1,-46,1,-29,1,8,1
340,-13,1,2,1,15,1,5,1,-14,1,8,1,-8,1,-16,1,-26,1,-44,1,-27,1,8,1
341,-15,1,0,1,15,1,7,1,-15,1,7,1,-6,1,-16,1,-24,1,-43,1,-25,1,10,1
342,-15,1,2,1,17,1,6,1,-16,1,9,1,-5,1,-16,1,-24,1,-44,1,-25,1,11,1
343,-14,1,4,1,18,1,5,1,-16,1,11,1,-6,1,-15,1,-24,1,-44,1,-25,1,11,1
344,-10,1,7,1,17,1,1,1,-13,1,12,1,-5,1,-13,1,-25,1,-42,1,-26,1,12,1
345,-8,1,10,1,18,1,-1,1,-13,1,14,1,-6,1,-12,1,-27,1,-43,1,-26,1,11,1
346,-8,1,11,1,19,1,-1,1,-13,1,15,1,-7,1,-14,1,-30,1,-45,1,-27,1,9,1
347,-8,1,11,1,19,1,-1,1,-13,1,15,1,-8,1,-14,1,-32,1,-47,1,-29,1,6,1
348,-10,1,9,1,19,1,0,1,-14,1,14,1,-9,1,-16,1,-33,1,-46,1,-29,1,6,1
349,-12,1,7,1,19,1,2,1,-15,1,13,1,-8,1,-16,1,-30,1,-45,1,-27,1,6,1
350,-13,1,4,1,17,1,4,1,-15,1,10,1,-9,1,-17,1,-29,1,-45,1,-27,1,5,1
351,-15,1,2,1,17,1,6,1,-16,1,9,1,-8,1,-15,1,-25,1,-42,1,-25,1,6,1
352,-11,1,4,1,15,1,3,1,-13,1,9,1,-5,1,-13,1,-22,1,-40,1,-22,1,8,1
353,-10,1,3,1,13,1,3,1,-11,1,8,1,-5,1,-13,1,-22,1,-40,1,-22,1,10,1
354,-10,1,5,1,15,1,2,1,-12,1,10,1,-7,1,-14,1,-25,1,-42,1,-23,1,9,1
355,-9,1,9,1,18,1,0,1,-13,1,13,1,-8,1,-14,1,-27,1,-42,1,-25,1,8,1
356,-8,1,10,1,18,1,-1,1,-13,1,14,1,-8,1,-16,1,-30,1,-43,1,-27,1,6,1
357,-8,1,9,1,17,1,0,1,-12,1,13,1,-8,1,-15,1,-31,1,-44,1,-28,1,5,1
358,-8,1,10,1,18,1,-1,1,-13,1,14,1,-8,1,-15,1,-31,1,-43,1,-28,1,3,1
359,-11,1,4,1,15,1,3,1,-13,1,9,1,-8,1,-16,1,-29,1,-42,1,-27,1,3,1
360,-12,1,3,1,15,1,4,1,-13,1,9,1,-7,1,-16,1,-26,1,-41,1,-26,1,4,1
361,-14,1,0,1,14,1,7,1,-14,1,7,1,-6,1,-17,1,-25,1,-40,1,-23,1,5,1
362,-16,1,0,1,16,1,8,1,-16,1,8,1,-8,1,-18,1,-25,1,-41,1,-24,1,5,1
363,-15,1,1,1,16,1,7,1,-15,1,8,1,-9,1,-18,1,-26,1,-42,1,-24,1,7,1
364,-14,1,1,1,15,1,6,1,-14,1,8,1,-7,1,-17,1,-29,1,-43,1,-25,1,6,1
365,-11,1,4,1,15,1,3,1,-13,1,9,1,-8,1,-16,1,-31,1,-44,1,-26,1,6,1
366,-7,1,7,1,14,1,0,1,-10,1,10,1,-9,1,-16,1,-32,1,-44,1,-27,1,6,1
367,-6,1,7,1,13,1,0,1,-9,1,10,1,-11,1,-18,1,-35,1,-47,1,-29,1,3,1
368,-8,1,3,1,11,1,2,1,-9,1,7,1,-12,1,-19,1,-36,1,-49,1,-31,1,1,1
369,-11,1,1,1,12,1,5,1,-11,1,6,1,-11,1,-21,1,-36,1,-46,1,-30,1,1,1
370,-13,1,0,1,13,1,6,1,-13,1,6,1,-10,1,-20,1,-32,1,-44,1,-27,1,4,1
371,-18,1,-3,1,15,1,10,1,-17,1,6,1,-10,1,-20,1,-30,1,-43,1,-26,1,5,1
372,-18,1,-3,1,15,1,10,1,-17,1,6,1,-10,1,-21,1,-30,1,-43,1,-25,1,5,1
373,-16,1,0,1,16,1,8,1,-16,1,8,1,-10,1,-21,1,-30,1,-43,1,-25,1,6,1
374,-15,1,4,1,19,1,5,1,-17,1,11,1,-10,1,-21,1,-33,1,-45,1,-27,1,6,1
375,-15,1,5,1,20,1,5,1,-17,1,12,1,-12,1,-22,1,-37,1,-48,1,-29,1,5,1
376,-12,1,6,1,18,1,3,1,-15,1,12,1,-13,1,-22,1,-40,1,-49,1,-31,1,5,1
377,-12,1,5,1,17,1,3,1,-14,1,11,1,-13,1,-22,1,-40,1,-48,1,-31,1,5,1
378,-13,1,4,1,17,1,4,1,-15,1,10,1,-15,1,-23,1,-42,1,-49,1,-31,1,3,1
379,-14,1,1,1,15,1,6,1,-14,1,8,1,-13,1,-23,1,-39,1,-48,1,-30,1,2,1
380,-15,1,-1,1,14,1,8,1,-15,1,6,1,-12,1,-24,1,-36,1,-47,1,-29,1,3,1
381,-14,1,0,1,14,1,7,1,-14,1,7,1,-11,1,-24,1,-34,1,-45,1,-28,1,4,1
382,-14,1,0,1,14,1,7,1,-14,1,7,1,-11,1,-24,1,-34,1,-45,1,-28,1,5,1
383,-13,1,0,1,13,1,6,1,-13,1,6,1,-11,1,-24,1,-35,1,-46,1,-29,1,6,1
384,-12,1,2,1,14,1,5,1,-13,1,8,1,-11,1,-23,1,-37,1,-48,1,-31,1,6,1
385,-12,1,2,1,14,1,5,1,-13,1,8,1,-11,1,-23,1,-40,1,-49,1,-31,1,6,1
386,-12,1,5,1,17,1,3,1,-14,1,11,1,-13,1,-24,1,-42,1,-50,1,-33,1,4,1
387,-11,1,3,1,14,1,4,1,-12,1,8,1,-13,1,-24,1,-43,1,-52,1,-33,1,4,1
388,-12,1,1,1,13,1,5,1,-12,1,7,1,-14,1,-26,1,-44,1,-53,1,-33,1,3,1
389,-13,1,0,1,13,1,6,1,-13,1,6,1,-14,1,-27,1,-42,1,-52,1,-32,1,4,1
390,-14,1,-2,1,12,1,8,1,-13,1,5,1,-14,1,-28,1,-40,1,-48,1,-28,1,5,1
391,-11,1,0,1,11,1,5,1,-11,1,5,1,-12,1,-28,1,-37,1,-47,1,-26,1,7,1
392,-11,1,0,1,11,1,5,1,-11,1,5,1,-9,1,-25,1,-35,1,-47,1,-25,1,10,1
393,-15,1,-1,1,14,1,8,1,-15,1,6,1,-11,1,-28,1,-37,1,-50,1,-28,1,8,1
394,-14,1,5,1,19,1,4,1,-16,1,12,1,-16,1,-30,1,-42,1,-53,1,-32,1,7,1
395,-6,1,11,1,17,1,-2,1,-11,1,14,1,-15,1,-27,1,-41,1,-50,1,-31,1,8,1
396,-11,1,3,1,14,1,4,1,-12,1,8,1,-16,1,-27,1,-44,1,-51,1,-32,1,8,1
397,-13,1,-2,1,11,1,7,1,-12,1,4,1,-17,1,-28,1,-46,1,-53,1,-33,1,7,1
398,-10,1,3,1,13,1,3,1,-11,1,8,1,-16,1,-29,1,-45,1,-51,1,-31,1,7,1
399,-12,1,0,1,12,1,6,1,-12,1,6,1,-16,1,-29,1,-43,1,-50,1,-30,1,7,1
400,-19,1,-6,1,13,1,12,1,-16,1,3,1,-18,1,-32,1,-43,1,-52,1,-31,1,5,1
401,-18,1,-6,1,12,1,12,1,-15,1,3,1,-17,1,-33,1,-40,1,-52,1,-29,1,6,1
402,-15,1,-4,1,11,1,9,1,-13,1,3,1,-15,1,-30,1,-37,1,-49,1,-27,1,9,1
403,-15,1,-2,1,13,1,8,1,-14,1,5,1,-14,1,-30,1,-38,1,-49,1,-27,1,11,1
404,-14,1,2,1,16,1,6,1,-15,1,9,1,-14,1,-30,1,-41,1,-51,1,-29,1,10,1
405,-11,1,4,1,15,1,3,1,-13,1,9,1,-16,1,-30,1,-45,1,-53,1,-32,1,9,1
406,-11,1,5,1,16,1,3,1,-13,1,10,1,-16,1,-30,1,-48,1,-54,1,-33,1,8,1
407,-11,1,4,1,15,1,3,1,-13,1,9,1,-18,1,-32,1,-49,1,-56,1,-36,1,5,1
408,-13,1,2,1,15,1,5,1,-14,1,8,1,-18,1,-33,1,-49,1,-55,1,-35,1,6,1
409,-14,1,-1,1,13,1,7,1,-14,1,6,1,-16,1,-31,1,-47,1,-53,1,-33,1,6,1
410,-16,1,-5,1,11,1,10,1,-14,1,3,1,-15,1,-32,1,-44,1,-51,1,-32,1,5,1
411,-17,1,-6,1,11,1,11,1,-14,1,2,1,-16,1,-33,1,-43,1,-51,1,-31,1,6,1
412,-15,1,-2,1,13,1,8,1,-14,1,5,1,-16,1,-35,1,-41,1,-51,1,-31,1,7,1
413,-16,1,-2,1,14,1,9,1,-15,1,6,1,-14,1,-32,1,-40,1,-50,1,-30,1,9,1
414,-14,1,0,1,14,1,7,1,-14,1,7,1,-14,1,-31,1,-40,1,-50,1,-30,1,11,1
415,-13,1,1,1,14,1,6,1,-13,1,7,1,-14,1,-30,1,-42,1,-51,1,-32,1,10,1
416,-13,1,1,1,14,1,6,1,-13,1,7,1,-15,1,-30,1,-44,1,-51,1,-32,1,9,1
417,-12,1,0,1,12,1,6,1,-12,1,6,1,-15,1,-31,1,-45,1,-52,1,-33,1,8,1
418,-14,1,-2,1,12,1,8,1,-13,1,5,1,-16,1,-32,1,-47,1,-53,1,-33,1,6,1
419,-15,1,-4,1,11,1,9,1,-13,1,3,1,-15,1,-31,1,-44,1,-50,1,-32,1,-10,1
420,-15,1,-4,1,11,1,9,1,-13,1,3,1,-15,1,-33,1,-41,1,-50,1,-31,1,-25,1
421,-16,1,-5,1,11,1,10,1,-14,1,3,1,-13,1,-33,1,-39,1,-49,1,-29,1,-29,1
422,-16,1,-4,1,12,1,10,1,-14,1,4,1,-11,1,-32,1,-38,1,-47,1,-28,1,-30,1
423,-15,1,-2,1,13,1,8,1,-14,1,5,1,-12,1,-33,1,-39,1,-47,1,-28,1,-30,1
424,-13,1,0,1,13,1,6,1,-13,1,6,1,-14,1,-32,1,-41,1,-48,1,-30,1,-32,1
425,-11,1,2,1,13,1,4,1,-12,1,7,1,-16,1,-33,1,-45,1,-51,1,-34,1,-35,1
426,-7,1,4,1,11,1,1,1,-9,1,7,1,-16,1,-33,1,-46,1,-52,1,-35,1,-37,1
427,-7,1,4,1,11,1,1,1,-9,1,7,1,-15,1,-33,1,-46,1,-51,1,-34,1,-37,1
428,-9,1,2,1,11,1,3,1,-10,1,6,1,-15,1,-33,1,-44,1,-50,1,-33,1,-37,1
429,-15,1,-3,1,12,1,9,1,-14,1,4,1,-15,1,-34,1,-42,1,-49,1,-33,1,-39,1
430,-18,1,-7,1,11,1,12,1,-15,1,2,1,-14,1,-35,1,-41,1,-49,1,-32,1,-40,1
431,-17,1,-6,1,11,1,11,1,-14,1,2,1,-13,1,-34,1,-38,1,-47,1,-31,1,-40,1
432,-16,1,-5,1,11,1,10,1,-14,1,3,1,-12,1,-34,1,-38,1,-46,1,-31,1,-38,1
433,-17,1,-5,1,12,1,11,1,-15,1,3,1,-12,1,-34,1,-38,1,-47,1,-32,1,-38,1
434,-13,1,-1,1,12,1,7,1,-13,1,5,1,-13,1,-33,1,-39,1,-47,1,-31,1,-37,1
435,-13,1,1,1,14,1,6,1,-13,1,7,1,-14,1,-34,1,-42,1,-49,1,-34,1,-38,1
436,-15,1,0,1,15,1,7,1,-15,1,7,1,-16,1,-35,1,-45,1,-51,1,-36,1,-40,1
437,-13,1,2,1,15,1,5,1,-14,1,8,1,-17,1,-35,1,-47,1,-52,1,-36,1,-41,1
438,-14,1,1,1,15,1,6,1,-14,1,8,1,-16,1,-36,1,-46,1,-51,1,-35,1,-40,1
439,-13,1,0,1,13,1,6,1,-13,1,6,1,-16,1,-36,1,-43,1,-50,1,-34,1,-40,1
440,-14,1,-2,1,12,1,8,1,-13,1,5,1,-16,1,-37,1,-41,1,-48,1,-33,1,-38,1
441,-16,1,-4,1,12,1,10,1,-14,1,4,1,-13,1,-34,1,-36,1,-45,1,-30,1,-34,1
442,-18,1,-5,1,13,1,11,1,-16,1,4,1,-12,1,-35,1,-35,1,-45,1,-30,1,-34,1
443,-17,1,-5,1,12,1,11,1,-15,1,3,1,-13,1,-35,1,-37,1,-47,1,-32,1,-33,1
444,-13,1,0,1,13,1,6,1,-13,1,6,1,-13,1,-34,1,-40,1,-48,1,-34,1,-34,1
445,-11,1,2,1,13,1,4,1,-12,1,7,1,-14,1,-34,1,-42,1,-49,1,-35,1,-34,1
446,-11,1,4,1,15,1,3,1,-13,1,9,1,-15,1,-34,1,-44,1,-50,1,-37,1,-35,1
447,-11,1,2,1,13,1,4,1,-12,1,7,1,-16,1,-35,1,-44,1,-50,1,-37,1,-35,1
448,-12,1,0,1,12,1,6,1,-12,1,6,1,-16,1,-36,1,-44,1,-50,1,-37,1,-36,1
449,-13,1,-1,1,12,1,7,1,-13,1,5,1,-15,1,-36,1,-41,1,-47,1,-35,1,-37,1
450,-15,1,-4,1,11,1,9,1,-13,1,3,1,-14,1,-36,1,-39,1,-46,1,-35,1,-35,1
451,-16,1,-1,1,15,1,8,1,-16,1,7,1,-13,1,-36,1,-37,1,-44,1,-33,1,-33,1
452,-15,1,-1,1,14,1,8,1,-15,1,6,1,-12,1,-35,1,-36,1,-43,1,-32,1,-33,1
453,-14,1,-1,1,13,1,7,1,-14,1,6,1,-12,1,-34,1,-35,1,-42,1,-31,1,-30,1
454,-14,1,-1,1,13,1,7,1,-14,1,6,1,-13,1,-34,1,-37,1,-42,1,-33,1,-29,1
455,-10,1,3,1,13,1,3,1,-11,1,8,1,-13,1,-34,1,-41,1,-44,1,-35,1,-31,1
456,-8,1,7,1,15,1,0,1,-11,1,11,1,-15,1,-36,1,-45,1,-47,1,-36,1,-32,1
457,-11,1,4,1,15,1,3,1,-13,1,9,1,-16,1,-36,1,-46,1,-47,1,-37,1,-33,1
458,-13,1,0,1,13,1,6,1,-13,1,6,1,-16,1,-36,1,-44,1,-46,1,-37,1,-34,1
459,-14,1,-3,1,11,1,8,1,-13,1,4,1,-15,1,-36,1,-42,1,-45,1,-35,1,-34,1
460,-15,1,-4,1,11,1,9,1,-13,1,3,1,-13,1,-36,1,-40,1,-43,1,-33,1,-33,1
461,-16,1,-6,1,10,1,11,1,-13,1,2,1,-12,1,-36,1,-38,1,-43,1,-33,1,-33,1
462,-14,1,-4,1,10,1,9,1,-12,1,3,1,-12,1,-35,1,-36,1,-42,1,-31,1,-32,1
463,-13,1,-2,1,11,1,7,1,-12,1,4,1,-11,1,-35,1,-36,1,-42,1,-30,1,-29,1
464,-12,1,0,1,12,1,6,1,-12,1,6,1,-11,1,-33,1,-37,1,-42,1,-31,1,-29,1
465,-13,1,0,1,13,1,6,1,-13,1,6,1,-12,1,-32,1,-40,1,-44,1,-33,1,-31,1
466,-11,1,2,1,13,1,4,1,-12,1,7,1,-12,1,-33,1,-42,1,-45,1,-34,1,-32,1
467,-12,1,3,1,15,1,4,1,-13,1,9,1,-12,1,-34,1,-43,1,-46,1,-36,1,-32,1
468,-11,1,4,1,15,1,3,1,-13,1,9,1,-13,1,-34,1,-43,1,-46,1,-35,1,-33,1
469,-10,1,1,1,11,1,4,1,-10,1,6,1,-12,1,-34,1,-39,1,-43,1,-32,1,-32,1
470,-9,1,-2,1,7,1,5,1,-8,1,2,1,-11,1,-32,1,-35,1,-39,1,-30,1,-29,1
471,-13,1,-4,1,9,1,8,1,-11,1,2,1,-12,1,-35,1,-35,1,-40,1,-30,1,-30,1
472,-13,1,-2,1,11,1,7,1,-12,1,4,1,-14,1,-37,1,-36,1,-42,1,-32,1,-30,1
473,-11,1,1,1,12,1,5,1,-11,1,6,1,-12,1,-35,1,-35,1,-40,1,-30,1,-28,1
474,-12,1,1,1,13,1,5,1,-12,1,7,1,-13,1,-35,1,-38,1,-41,1,-32,1,-29,1
475,-10,1,6,1,16,1,2,1,-13,1,11,1,-15,1,-35,1,-42,1,-45,1,-36,1,-31,1
476,-9,1,11,1,20,1,-1,1,-14,1,15,1,-16,1,-36,1,-44,1,-46,1,-37,1,-32,1
477,-9,1,6,1,15,1,1,1,-12,1,10,1,-14,1,-34,1,-43,1,-45,1,-36,1,-32,1
478,-8,1,1,1,9,1,3,1,-8,1,5,1,-12,1,-32,1,-40,1,-42,1,-33,1,-32,1
479,-8,1,0,1,8,1,4,1,-8,1,4,1,-11,1,-31,1,-35,1,-38,1,-30,1,-31,1
480,-7,1,1,1,8,1,3,1,-7,1,4,1,-8,1,-28,1,-30,1,-35,1,-28,1,-27,1
481,-7,1,2,1,9,1,2,1,-8,1,5,1,-6,1,-27,1,-26,1,-33,1,-26,1,-25,1
482,-5,1,5,1,10,1,0,1,-7,1,7,1,-6,1,-25,1,-24,1,-31,1,-25,1,-24,1
483,-3,1,6,1,9,1,-1,1,-6,1,7,1,-8,1,-25,1,-26,1,-32,1,-25,1,-22,1
484,-1,1,7,1,8,1,-3,1,-4,1,7,1,-8,1,-23,1,-26,1,-31,1,-25,1,-21,1
485,2,1,9,1,7,1,-5,1,-2,1,8,1,-9,1,-22,1,-29,1,-33,1,-26,1,-20,1
486,4,1,8,1,4,1,-6,1,0,1,6,1,-11,1,-23,1,-32,1,-35,1,-28,1,-22,1
487,5,1,6,1,1,1,-5,1,2,1,4,1,-11,1,-24,1,-33,1,-34,1,-29,1,-23,1
488,5,1,6,1,1,1,-5,1,2,1,4,1,-11,1,-24,1,-31,1,-32,1,-27,1,-22,1
489,2,1,5,1,3,1,-3,1,0,1,4,1,-13,1,-26,1,-29,1,-31,1,-27,1,-23,1
490,0,1,3,1,3,1,-1,1,-1,1,3,1,-13,1,-28,1,-27,1,-30,1,-25,1,-22,1
491,3,1,9,1,6,1,-6,1,-1,1,8,1,-13,1,-28,1,-24,1,-27,1,-22,1,-19,1
492,-1,1,11,1,12,1,-5,1,-6,1,11,1,-13,1,-30,1,-24,1,-27,1,-22,1,-18,1
493,0,1,11,1,11,1,-5,1,-5,1,11,1,-14,1,-30,1,-27,1,-29,1,-23,1,-18,1
494,2,1,15,1,13,1,-8,1,-5,1,14,1,-16,1,-32,1,-30,1,-32,1,-27,1,-19,1
495,2,1,15,1,13,1,-8,1,-5,1,14,1,-17,1,-33,1,-34,1,-35,1,-29,1,-21,1
496,3,1,14,1,11,1,-8,1,-4,1,13,1,-19,1,-33,1,-37,1,-36,1,-30,1,-22,1
497,2,1,12,1,10,1,-7,1,-4,1,11,1,-19,1,-32,1,-36,1,-35,1,-31,1,-22,1
498,1,1,8,1,7,1,-4,1,-3,1,8,1,-19,1,-32,1,-36,1,-34,1,-30,1,-23,1
499,1,1,7,1,6,1,-4,1,-2,1,7,1,-17,1,-31,1,-33,1,-33,1,-27,1,-22,1
500,3,1,10,1,7,1,-6,1,-2,1,9,1,-18,1,-31,1,-29,1,-30,1,-26,1,-21,1
501,0,1,9,1,9,1,-4,1,-4,1,9,1,-19,1,-32,1,-28,1,-30,1,-25,1,-20,1
502,1,1,7,1,6,1,-4,1,-2,1,7,1,-17,1,-32,1,-27,1,-30,1,-24,1,-17,1
503,6,1,8,1,2,1,-7,1,2,1,5,1,-18,1,-33,1,-29,1,-32,1,-25,1,-18,1
504,7,1,12,1,5,1,-9,1,1,1,9,1,-18,1,-32,1,-32,1,-34,1,-27,1,-18,1
505,8,1,14,1,6,1,-11,1,1,1,10,1,-18,1,-31,1,-34,1,-34,1,-28,1,-18,1
506,7,1,13,1,6,1,-10,1,1,1,10,1,-19,1,-31,1,-36,1,-36,1,-29,1,-19,1
507,7,1,12,1,5,1,-9,1,1,1,9,1,-20,1,-33,1,-39,1,-37,1,-31,1,-20,1
508,1,1,5,1,4,1,-3,1,-1,1,5,1,-22,1,-35,1,-40,1,-38,1,-33,1,-22,1
509,-1,1,1,1,2,1,0,1,-1,1,1,1,-21,1,-35,1,-36,1,-36,1,-30,1,-22,1
510,-2,1,0,1,2,1,1,1,-2,1,1,1,-19,1,-35,1,-33,1,-34,1,-28,1,-21,1
511,-4,1,-2,1,2,1,3,1,-3,1,0,1,-17,1,-34,1,-30,1,-32,1,-26,1,-19,1
512,-5,1,0,1,5,1,2,1,-5,1,2,1,-14,1,-33,1,-29,1,-31,1,-25,1,-18,1
513,-2,1,3,1,5,1,0,1,-3,1,4,1,-14,1,-33,1,-29,1,-31,1,-26,1,-17,1
514,-3,1,4,1,7,1,0,1,-5,1,5,1,-14,1,-32,1,-32,1,-33,1,-28,1,-20,1
515,-4,1,4,1,8,1,0,1,-6,1,6,1,-16,1,-32,1,-35,1,-36,1,-32,1,-22,1
516,-5,1,4,1,9,1,0,1,-7,1,6,1,-15,1,-30,1,-36,1,-37,1,-33,1,-22,1
517,-4,1,7,1,11,1,-1,1,-7,1,9,1,-14,1,-30,1,-36,1,-36,1,-33,1,-22,1
518,-6,1,7,1,13,1,0,1,-9,1,10,1,-14,1,-31,1,-37,1,-36,1,-35,1,-25,1
519,-10,1,3,1,13,1,3,1,-11,1,8,1,-13,1,-32,1,-36,1,-36,1,-34,1,-26,1
520,-14,1,-1,1,13,1,7,1,-14,1,6,1,-13,1,-35,1,-37,1,-37,1,-35,1,-28,1
521,-15,1,-6,1,9,1,10,1,-12,1,1,1,-13,1,-37,1,-36,1,-38,1,-34,1,-28,1
522,-13,1,-4,1,9,1,8,1,-11,1,2,1,-12,1,-37,1,-35,1,-37,1,-32,1,-28,1
523,-16,1,-5,1,11,1,10,1,-14,1,3,1,-13,1,-38,1,-36,1,-38,1,-33,1,-29,1
524,-15,1,-5,1,10,1,10,1,-13,1,2,1,-13,1,-37,1,-37,1,-39,1,-35,1,-30,1
525,-13,1,-3,1,10,1,8,1,-12,1,3,1,-14,1,-38,1,-41,1,-41,1,-38,1,-32,1
526,-13,1,-2,1,11,1,7,1,-12,1,4,1,-16,1,-39,1,-44,1,-43,1,-39,1,-34,1
527,-12,1,-2,1,10,1,7,1,-11,1,4,1,-16,1,-39,1,-45,1,-42,1,-40,1,-36,1
528,-14,1,-5,1,9,1,9,1,-12,1,2,1,-16,1,-39,1,-45,1,-43,1,-40,1,-37,1
529,-17,1,-9,1,8,1,13,1,-13,1,-1,1,-17,1,-40,1,-43,1,-41,1,-39,1,-37,1
530,-15,1,-8,1,7,1,11,1,-11,1,-1,1,-14,1,-39,1,-39,1,-39,1,-36,1,-35,1
531,-15,1,-9,1,6,1,12,1,-11,1,-2,1,-12,1,-39,1,-36,1,-38,1,-34,1,-33,1
532,-15,1,-9,1,6,1,12,1,-11,1,-2,1,-13,1,-39,1,-35,1,-37,1,-34,1,-31,1
533,-15,1,-8,1,7,1,11,1,-11,1,-1,1,-11,1,-36,1,-36,1,-37,1,-33,1,-28,1
534,-13,1,-3,1,10,1,8,1,-12,1,3,1,-13,1,-38,1,-39,1,-39,1,-36,1,-28,1
535,-13,1,1,1,14,1,6,1,-13,1,7,1,-14,1,-37,1,-43,1,-41,1,-40,1,-30,1
536,-12,1,4,1,16,1,4,1,-14,1,10,1,-16,1,-38,1,-44,1,-42,1,-42,1,-30,1
537,-11,1,4,1,15,1,3,1,-13,1,9,1,-15,1,-37,1,-44,1,-42,1,-41,1,-30,1
538,-12,1,2,1,14,1,5,1,-13,1,8,1,-15,1,-37,1,-44,1,-41,1,-41,1,-31,1
539,-13,1,-4,1,9,1,8,1,-11,1,2,1,-13,1,-37,1,-42,1,-39,1,-39,1,-30,1
540,-19,1,-9,1,10,1,14,1,-15,1,0,1,-13,1,-37,1,-39,1,-37,1,-37,1,-28,1
541,-23,1,-14,1,9,1,18,1,-16,1,-3,1,-13,1,-38,1,-37,1,-37,1,-36,1,-29,1
542,-20,1,-8,1,12,1,14,1,-16,1,2,1,-13,1,-39,1,-36,1,-38,1,-37,1,-29,1
543,-19,1,-3,1,16,1,11,1,-18,1,6,1,-10,1,-36,1,-35,1,-38,1,-39,1,-28,1
544,-19,1,0,1,19,1,9,1,-19,1,9,1,-4,1,-30,1,-35,1,-37,1,-40,1,-29,1
545,-21,1,1,1,22,1,10,1,-21,1,11,1,4,1,-20,1,-34,1,-37,1,-40,1,-29,1
546,-21,1,1,1,22,1,10,1,-21,1,11,1,13,1,-11,1,-33,1,-38,1,-42,1,-31,1
547,-21,1,2,1,23,1,9,1,-22,1,12,1,19,1,-2,1,-28,1,-35,1,-39,1,-28,1
548,-18,1,5,1,23,1,6,1,-20,1,14,1,23,1,5,1,-20,1,-27,1,-33,1,-23,1
549,-17,1,2,1,19,1,7,1,-18,1,10,1,27,1,22,1,-5,1,-17,1,-27,1,-19,1
550,-8,1,2,1,10,1,3,1,-9,1,6,1,38,1,51,1,19,1,-1,1,-16,1,-12,1
551,3,1,7,1,4,1,-5,1,0,1,6,1,54,1,83,1,48,1,20,1,-1,1,-1,1
552,10,1,13,1,3,1,-11,1,4,1,8,1,63,1,112,1,78,1,45,1,17,1,12,1
553,27,1,28,1,1,1,-27,1,13,1,15,1,69,1,146,1,119,1,79,1,43,1,30,1
554,46,1,46,1,0,1,-46,1,23,1,23,1,63,1,169,1,157,1,115,1,71,1,50,1
555,68,1,67,1,-1,1,-67,1,35,1,33,1,42,1,180,1,194,1,154,1,102,1,73,1
556,87,1,85,1,-2,1,-86,1,45,1,42,1,9,1,178,1,228,1,192,1,132,1,94,1
557,104,1,107,1,3,1,-105,1,51,1,55,1,-31,1,162,1,256,1,228,1,164,1,119,1
558,120,1,128,1,8,1,-124,1,56,1,68,1,-81,1,119,1,264,1,253,1,193,1,145,1
559,133,1,150,1,17,1,-141,1,58,1,84,1,-127,1,74,1,270,1,274,1,217,1,168,1
560,137,1,157,1,20,1,-147,1,59,1,89,1,-158,1,35,1,270,1,283,1,228,1,179,1
561,130,1,149,1,19,1,-139,1,56,1,84,1,-170,1,7,1,270,1,284,1,229,1,180,1
562,117,1,128,1,11,1,-122,1,53,1,70,1,-167,1,-5,1,262,1,267,1,211,1,167,1
563,104,1,107,1,3,1,-105,1,51,1,55,1,-169,1,-28,1,229,1,231,1,180,1,148,1
564,89,1,94,1,5,1,-91,1,42,1,50,1,-178,1,-66,1,172,1,177,1,142,1,127,1
565,69,1,79,1,10,1,-74,1,30,1,45,1,-180,1,-111,1,101,1,115,1,95,1,99,1
566,48,1,59,1,11,1,-53,1,19,1,35,1,-181,1,-155,1,24,1,52,1,50,1,72,1
567,20,1,37,1,17,1,-28,1,2,1,27,1,-180,1,-220,1,-70,1,-19,1,1,1,42,1
568,-2,1,19,1,21,1,-8,1,-11,1,20,1,-185,1,-278,1,-154,1,-80,1,-39,1,16,1
569,-19,1,2,1,21,1,8,1,-20,1,11,1,-195,1,-312,1,-205,1,-118,1,-66,1,0,1
570,-33,1,-4,1,29,1,18,1,-31,1,12,1,-189,1,-314,1,-219,1,-133,1,-79,1,-11,1
571,-42,1,-12,1,30,1,27,1,-36,1,9,1,-176,1,-296,1,-210,1,-134,1,-85,1,-19,1
572,-47,1,-15,1,32,1,31,1,-40,1,8,1,-165,1,-277,1,-202,1,-135,1,-90,1,-24,1
573,-49,1,-16,1,33,1,32,1,-41,1,8,1,-162,1,-264,1,-197,1,-135,1,-94,1,-29,1
574,-49,1,-17,1,32,1,33,1,-41,1,7,1,-157,1,-245,1,-189,1,-133,1,-96,1,-31,1
575,-48,1,-15,1,33,1,31,1,-41,1,9,1,-149,1,-223,1,-178,1,-129,1,-96,1,-35,1
576,-45,1,-7,1,38,1,26,1,-42,1,15,1,-135,1,-196,1,-160,1,-117,1,-91,1,-34,1
577,-41,1,-2,1,39,1,21,1,-40,1,18,1,-123,1,-175,1,-145,1,-105,1,-84,1,-31,1
578,-42,1,-3,1,39,1,22,1,-41,1,18,1,-109,1,-153,1,-128,1,-92,1,-74,1,-29,1
579,-38,1,-1,1,37,1,19,1,-38,1,18,1,-92,1,-131,1,-108,1,-79,1,-65,1,-27,1
580,-36,1,1,1,37,1,17,1,-36,1,19,1,-74,1,-109,1,-88,1,-65,1,-54,1,-22,1
581,-29,1,9,1,38,1,10,1,-33,1,23,1,-54,1,-84,1,-66,1,-49,1,-42,1,-15,1
582,-23,1,12,1,35,1,5,1,-29,1,23,1,-40,1,-66,1,-51,1,-38,1,-35,1,-9,1
583,-22,1,11,1,33,1,5,1,-27,1,22,1,-30,1,-54,1,-44,1,-34,1,-32,1,-8,1
584,-16,1,19,1,35,1,-1,1,-25,1,27,1,-24,1,-46,1,-40,1,-32,1,-33,1,-8,1
585,-12,1,16,1,28,1,-2,1,-20,1,22,1,-18,1,-37,1,-38,1,-31,1,-34,1,-8,1
586,-10,1,13,1,23,1,-1,1,-16,1,18,1,-14,1,-28,1,-35,1,-30,1,-33,1,-9,1
587,-8,1,8,1,16,1,0,1,-12,1,12,1,-10,1,-22,1,-31,1,-27,1,-32,1,-9,1
588,-5,1,9,1,14,1,-2,1,-9,1,11,1,-7,1,-18,1,-28,1,-25,1,-30,1,-8,1
589,-7,1,5,1,12,1,1,1,-9,1,8,1,-7,1,-19,1,-25,1,-23,1,-29,1,-10,1
590,-13,1,-1,1,12,1,7,1,-13,1,5,1,-7,1,-19,1,-23,1,-22,1,-29,1,-11,1
591,-15,1,-3,1,12,1,9,1,-14,1,4,1,-4,1,-16,1,-21,1,-20,1,-27,1,-10,1
592,-12,1,3,1,15,1,4,1,-13,1,9,1,-1,1,-13,1,-17,1,-19,1,-26,1,-9,1
593,-8,1,7,1,15,1,0,1,-11,1,11,1,0,1,-11,1,-16,1,-18,1,-26,1,-7,1
594,-7,1,5,1,12,1,1,1,-9,1,8,1,1,1,-7,1,-15,1,-16,1,-24,1,-5,1
595,-9,1,8,1,17,1,0,1,-13,1,12,1,-1,1,-8,1,-19,1,-19,1,-27,1,-8,1
596,-8,1,12,1,20,1,-2,1,-14,1,16,1,-2,1,-9,1,-22,1,-21,1,-29,1,-11,1
597,-8,1,11,1,19,1,-1,1,-13,1,15,1,-1,1,-7,1,-21,1,-21,1,-29,1,-11,1
598,-7,1,6,1,13,1,0,1,-10,1,9,1,0,1,-6,1,-19,1,-19,1,-27,1,-10,1
599,-9,1,2,1,11,1,3,1,-10,1,6,1,2,1,-5,1,-16,1,-16,1,-26,1,-10,1
600,-8,1,5,1,13,1,1,1,-10,1,9,1,4,1,-3,1,-11,1,-14,1,-23,1,-8,1
601,-9,1,3,1,12,1,3,1,-10,1,7,1,5,1,-2,1,-8,1,-13,1,-21,1,-7,1
602,-11,1,0,1,11,1,5,1,-11,1,5,1,6,1,-1,1,-8,1,-12,1,-20,1,-5,1
603,-9,1,3,1,12,1,3,1,-10,1,7,1,9,1,1,1,-8,1,-11,1,-20,1,-5,1
604,-7,1,7,1,14,1,0,1,-10,1,10,1,7,1,2,1,-9,1,-13,1,-22,1,-5,1
605,-4,1,13,1,17,1,-4,1,-10,1,15,1,6,1,2,1,-11,1,-14,1,-22,1,-5,1
606,-5,1,14,1,19,1,-4,1,-12,1,16,1,4,1,2,1,-13,1,-15,1,-24,1,-6,1
607,-5,1,11,1,16,1,-3,1,-10,1,13,1,4,1,2,1,-13,1,-13,1,-23,1,-7,1
608,-6,1,6,1,12,1,0,1,-9,1,9,1,7,1,4,1,-11,1,-11,1,-21,1,-7,1
609,-7,1,3,1,10,1,2,1,-8,1,6,1,7,1,5,1,-8,1,-9,1,-18,1,-7,1
610,-8,1,1,1,9,1,3,1,-8,1,5,1,8,1,5,1,-4,1,-7,1,-17,1,-6,1
611,-8,1,1,1,9,1,3,1,-8,1,5,1,9,1,6,1,-2,1,-6,1,-16,1,-5,1
612,-8,1,3,1,11,1,2,1,-9,1,7,1,11,1,7,1,-1,1,-5,1,-15,1,-3,1
613,-6,1,6,1,12,1,0,1,-9,1,9,1,10,1,7,1,-2,1,-5,1,-15,1,-3,1
614,-3,1,10,1,13,1,-3,1,-8,1,11,1,11,1,10,1,-2,1,-5,1,-15,1,-2,1
615,-3,1,11,1,14,1,-4,1,-8,1,12,1,11,1,12,1,-4,1,-5,1,-15,1,-3,1
616,0,1,13,1,13,1,-6,1,-6,1,13,1,11,1,13,1,-4,1,-5,1,-15,1,-4,1
617,3,1,16,1,13,1,-9,1,-5,1,15,1,10,1,13,1,-3,1,-4,1,-16,1,-4,1
618,0,1,12,1,12,1,-6,1,-6,1,12,1,10,1,14,1,-2,1,-3,1,-15,1,-4,1
619,-5,1,5,1,10,1,0,1,-7,1,7,1,10,1,13,1,-1,1,-3,1,-15,1,-5,1
620,-6,1,5,1,11,1,0,1,-8,1,8,1,11,1,13,1,3,1,-1,1,-13,1,-5,1
621,-6,1,2,1,8,1,2,1,-7,1,5,1,13,1,16,1,5,1,0,1,-13,1,-4,1
622,-7,1,2,1,9,1,2,1,-8,1,5,1,15,1,17,1,7,1,1,1,-10,1,-2,1
623,-4,1,8,1,12,1,-2,1,-8,1,10,1,15,1,18,1,8,1,3,1,-9,1,-1,1
624,3,1,13,1,10,1,-8,1,-3,1,12,1,15,1,21,1,8,1,3,1,-10,1,1,1
625,0,1,11,1,11,1,-5,1,-5,1,11,1,14,1,21,1,5,1,1,1,-11,1,0,1
626,1,1,14,1,13,1,-7,1,-6,1,14,1,14,1,21,1,4,1,1,1,-12,1,-3,1
627,1,1,15,1,14,1,-8,1,-6,1,15,1,14,1,23,1,5,1,1,1,-12,1,-3,1
628,0,1,14,1,14,1,-7,1,-7,1,14,1,14,1,23,1,5,1,1,1,-11,1,-5,1
629,-1,1,10,1,11,1,-4,1,-6,1,10,1,14,1,23,1,7,1,3,1,-11,1,-6,1
630,-3,1,8,1,11,1,-2,1,-7,1,9,1,15,1,24,1,11,1,6,1,-8,1,-3,1
631,-3,1,7,1,10,1,-2,1,-6,1,8,1,16,1,26,1,15,1,8,1,-6,1,-1,1
632,0,1,9,1,9,1,-4,1,-4,1,9,1,17,1,27,1,17,1,10,1,-4,1,0,1
633,2,1,14,1,12,1,-8,1,-5,1,13,1,18,1,30,1,19,1,12,1,-2,1,2,1
634,4,1,18,1,14,1,-11,1,-5,1,16,1,18,1,32,1,16,1,12,1,-3,1,2,1
635,7,1,23,1,16,1,-15,1,-4,1,20,1,18,1,33,1,15,1,12,1,-3,1,2,1
636,10,1,25,1,15,1,-17,1,-2,1,20,1,18,1,35,1,14,1,13,1,-3,1,1,1
637,7,1,22,1,15,1,-14,1,-4,1,19,1,16,1,35,1,13,1,11,1,-5,1,-1,1
638,3,1,16,1,13,1,-9,1,-5,1,15,1,16,1,35,1,14,1,11,1,-4,1,-3,1
639,3,1,12,1,9,1,-7,1,-3,1,11,1,16,1,35,1,17,1,14,1,-2,1,-3,1
640,3,1,11,1,8,1,-7,1,-2,1,10,1,18,1,38,1,22,1,17,1,0,1,-3,1
641,2,1,12,1,10,1,-7,1,-4,1,11,1,20,1,40,1,25,1,21,1,2,1,-2,1
642,4,1,15,1,11,1,-9,1,-3,1,13,1,21,1,42,1,28,1,22,1,3,1,-1,1
643,6,1,15,1,9,1,-10,1,-1,1,12,1,22,1,45,1,30,1,23,1,4,1,0,1
644,10,1,19,1,9,1,-14,1,1,1,14,1,22,1,47,1,29,1,22,1,4,1,0,1
645,14,1,24,1,10,1,-19,1,2,1,17,1,22,1,49,1,29,1,22,1,4,1,0,1
646,14,1,26,1,12,1,-20,1,1,1,19,1,23,1,52,1,29,1,23,1,5,1,1,1
647,11,1,22,1,11,1,-16,1,0,1,17,1,23,1,54,1,30,1,24,1,6,1,0,1
648,10,1,18,1,8,1,-14,1,1,1,13,1,23,1,54,1,31,1,25,1,7,1,-1,1
649,10,1,17,1,7,1,-13,1,2,1,12,1,23,1,56,1,35,1,28,1,9,1,-1,1
650,10,1,17,1,7,1,-13,1,2,1,12,1,25,1,58,1,40,1,31,1,11,1,0,1
651,11,1,17,1,6,1,-14,1,3,1,12,1,25,1,60,1,43,1,33,1,14,1,3,1
652,12,1,20,1,8,1,-16,1,2,1,14,1,27,1,63,1,47,1,35,1,15,1,5,1
653,14,1,23,1,9,1,-18,1,3,1,16,1,27,1,66,1,49,1,37,1,16,1,6,1
654,17,1,27,1,10,1,-22,1,4,1,19,1,27,1,69,1,50,1,38,1,16,1,6,1
655,19,1,30,1,11,1,-24,1,4,1,21,1,27,1,72,1,49,1,38,1,17,1,6,1
656,22,1,34,1,12,1,-28,1,5,1,23,1,26,1,74,1,51,1,39,1,17,1,6,1
657,21,1,34,1,13,1,-27,1,4,1,24,1,26,1,76,1,52,1,41,1,17,1,6,1
658,21,1,33,1,12,1,-27,1,5,1,23,1,26,1,78,1,55,1,44,1,19,1,7,1
659,19,1,29,1,10,1,-24,1,5,1,20,1,29,1,80,1,60,1,47,1,22,1,9,1
660,19,1,27,1,8,1,-23,1,6,1,18,1,31,1,83,1,67,1,52,1,27,1,12,1
661,21,1,27,1,6,1,-24,1,8,1,17,1,33,1,88,1,73,1,56,1,30,1,16,1
662,22,1,30,1,8,1,-26,1,7,1,19,1,34,1,91,1,76,1,58,1,31,1,17,1
663,25,1,34,1,9,1,-29,1,8,1,22,1,35,1,94,1,79,1,60,1,32,1,20,1
664,26,1,37,1,11,1,-31,1,8,1,24,1,33,1,96,1,79,1,62,1,33,1,21,1
665,29,1,41,1,12,1,-35,1,9,1,27,1,32,1,98,1,79,1,62,1,33,1,22,1
666,33,1,42,1,9,1,-37,1,12,1,26,1,33,1,102,1,82,1,65,1,35,1,24,1
667,35,1,45,1,10,1,-40,1,13,1,28,1,32,1,104,1,83,1,65,1,35,1,23,1
668,32,1,43,1,11,1,-37,1,11,1,27,1,32,1,105,1,85,1,66,1,35,1,22,1
669,32,1,43,1,11,1,-37,1,11,1,27,1,32,1,105,1,90,1,71,1,39,1,25,1
670,32,1,41,1,9,1,-36,1,12,1,25,1,35,1,107,1,95,1,75,1,42,1,27,1
671,33,1,41,1,8,1,-37,1,13,1,25,1,36,1,111,1,100,1,78,1,46,1,30,1
672,33,1,47,1,14,1,-40,1,10,1,31,1,36,1,112,1,103,1,80,1,47,1,32,1
673,35,1,52,1,17,1,-43,1,9,1,35,1,37,1,115,1,105,1,81,1,48,1,33,1
674,39,1,54,1,15,1,-46,1,12,1,35,1,37,1,118,1,105,1,82,1,49,1,36,1
675,41,1,54,1,13,1,-47,1,14,1,34,1,37,1,119,1,104,1,83,1,49,1,38,1
676,42,1,54,1,12,1,-48,1,15,1,33,1,37,1,120,1,103,1,83,1,49,1,38,1
677,45,1,57,1,12,1,-51,1,17,1,35,1,37,1,122,1,105,1,85,1,51,1,38,1
678,47,1,58,1,11,1,-52,1,18,1,35,1,37,1,121,1,106,1,88,1,53,1,39,1
679,41,1,51,1,10,1,-46,1,16,1,31,1,35,1,119,1,106,1,88,1,53,1,37,1
680,35,1,46,1,11,1,-40,1,12,1,29,1,36,1,119,1,110,1,89,1,55,1,38,1
681,37,1,48,1,11,1,-42,1,13,1,30,1,36,1,119,1,112,1,90,1,56,1,40,1
682,40,1,54,1,14,1,-47,1,13,1,34,1,39,1,122,1,115,1,93,1,59,1,43,1
683,45,1,59,1,14,1,-52,1,16,1,37,1,38,1,123,1,115,1,94,1,59,1,44,1
684,41,1,57,1,16,1,-49,1,13,1,37,1,34,1,121,1,111,1,92,1,58,1,42,1
685,40,1,56,1,16,1,-48,1,12,1,36,1,31,1,118,1,107,1,89,1,54,1,41,1
686,45,1,61,1,16,1,-53,1,15,1,39,1,31,1,118,1,106,1,89,1,55,1,41,1
687,47,1,64,1,17,1,-55,1,15,1,41,1,29,1,117,1,106,1,89,1,54,1,39,1
688,45,1,61,1,16,1,-53,1,15,1,39,1,29,1,115,1,106,1,88,1,54,1,39,1
689,44,1,59,1,15,1,-51,1,15,1,37,1,30,1,115,1,108,1,90,1,58,1,39,1
690,39,1,57,1,18,1,-48,1,11,1,38,1,31,1,114,1,109,1,92,1,59,1,40,1
691,39,1,57,1,18,1,-48,1,11,1,38,1,31,1,112,1,111,1,93,1,61,1,42,1
692,41,1,59,1,18,1,-50,1,12,1,39,1,30,1,109,1,109,1,91,1,60,1,40,1
693,41,1,60,1,19,1,-50,1,11,1,40,1,30,1,108,1,106,1,90,1,59,1,40,1
694,42,1,62,1,20,1,-52,1,11,1,41,1,29,1,106,1,103,1,88,1,56,1,40,1
695,43,1,64,1,21,1,-53,1,11,1,43,1,28,1,102,1,97,1,84,1,54,1,39,1
696,43,1,64,1,21,1,-53,1,11,1,43,1,27,1,101,1,94,1,83,1,52,1,38,1
697,40,1,60,1,20,1,-50,1,10,1,40,1,25,1,96,1,90,1,80,1,50,1,36,1
698,39,1,60,1,21,1,-49,1,9,1,41,1,24,1,91,1,86,1,76,1,47,1,32,1
699,37,1,55,1,18,1,-46,1,10,1,37,1,23,1,88,1,85,1,75,1,47,1,32,1
700,33,1,51,1,18,1,-42,1,8,1,35,1,23,1,83,1,83,1,73,1,46,1,31,1
701,30,1,50,1,20,1,-40,1,5,1,35,1,23,1,78,1,81,1,71,1,44,1,31,1
702,29,1,50,1,21,1,-39,1,4,1,36,1,23,1,74,1,77,1,68,1,41,1,30,1
703,28,1,47,1,19,1,-37,1,5,1,33,1,23,1,71,1,73,1,65,1,39,1,31,1
704,28,1,48,1,20,1,-38,1,4,1,34,1,22,1,67,1,66,1,60,1,36,1,30,1
705,26,1,50,1,24,1,-38,1,1,1,37,1,20,1,61,1,59,1,54,1,30,1,25,1
706,24,1,48,1,24,1,-36,1,0,1,36,1,17,1,57,1,51,1,48,1,25,1,22,1
707,22,1,46,1,24,1,-34,1,-1,1,35,1,16,1,52,1,46,1,45,1,23,1,19,1
708,19,1,43,1,24,1,-31,1,-2,1,34,1,16,1,48,1,43,1,43,1,21,1,17,1
709,18,1,41,1,23,1,-29,1,-2,1,32,1,15,1,42,1,40,1,40,1,18,1,15,1
710,13,1,37,1,24,1,-25,1,-5,1,31,1,15,1,36,1,37,1,36,1,16,1,12,1
711,11,1,34,1,23,1,-22,1,-6,1,29,1,14,1,32,1,35,1,33,1,14,1,11,1
712,12,1,33,1,21,1,-22,1,-4,1,27,1,16,1,30,1,33,1,31,1,13,1,11,1
713,10,1,30,1,20,1,-20,1,-5,1,25,1,14,1,26,1,27,1,27,1,9,1,9,1
714,8,1,30,1,22,1,-19,1,-7,1,26,1,12,1,23,1,22,1,22,1,5,1,8,1
715,8,1,33,1,25,1,-20,1,-8,1,29,1,10,1,18,1,15,1,17,1,0,1,3,1
716,8,1,31,1,23,1,-19,1,-7,1,27,1,9,1,15,1,10,1,14,1,-3,1,0,1
717,4,1,26,1,22,1,-15,1,-9,1,24,1,8,1,11,1,5,1,10,1,-4,1,-1,1
718,2,1,24,1,22,1,-13,1,-10,1,23,1,7,1,7,1,1,1,6,1,-5,1,-5,1
719,0,1,21,1,21,1,-10,1,-10,1,21,1,7,1,5,1,1,1,6,1,-7,1,-7,1
720,0,1,19,1,19,1,-9,1,-9,1,19,1,6,1,2,1,3,1,6,1,-6,1,-9,1
721,-2,1,19,1,21,1,-8,1,-11,1,20,1,5,1,-2,1,0,1,3,1,-9,1,-11,1
722,-4,1,16,1,20,1,-6,1,-12,1,18,1,5,1,-4,1,-2,1,0,1,-10,1,-12,1
723,-4,1,17,1,21,1,-6,1,-12,1,19,1,6,1,-6,1,-5,1,-2,1,-12,1,-12,1
724,-4,1,19,1,23,1,-7,1,-13,1,21,1,5,1,-7,1,-9,1,-5,1,-15,1,-13,1
725,-4,1,21,1,25,1,-8,1,-14,1,23,1,2,1,-9,1,-15,1,-8,1,-19,1,-16,1
726,-3,1,19,1,22,1,-8,1,-12,1,20,1,1,1,-10,1,-19,1,-11,1,-21,1,-18,1
727,-3,1,15,1,18,1,-6,1,-10,1,16,1,0,1,-13,1,-22,1,-12,1,-23,1,-20,1
728,-5,1,13,1,18,1,-4,1,-11,1,15,1,0,1,-15,1,-21,1,-12,1,-22,1,-20,1
729,-9,1,8,1,17,1,0,1,-13,1,12,1,2,1,-16,1,-19,1,-12,1,-21,1,-20,1
730,-8,1,7,1,15,1,0,1,-11,1,11,1,2,1,-18,1,-19,1,-12,1,-22,1,-23,1
731,-9,1,5,1,14,1,2,1,-11,1,9,1,2,1,-18,1,-17,1,-12,1,-21,1,-22,1
732,-9,1,7,1,16,1,1,1,-12,1,11,1,0,1,-20,1,-18,1,-13,1,-22,1,-22,1
733,-7,1,13,1,20,1,-3,1,-13,1,16,1,0,1,-20,1,-20,1,-15,1,-24,1,-22,1
734,-6,1,15,1,21,1,-4,1,-13,1,18,1,0,1,-21,1,-23,1,-16,1,-26,1,-22,1
735,-6,1,14,1,20,1,-4,1,-13,1,17,1,-2,1,-22,1,-26,1,-19,1,-29,1,-24,1
736,-4,1,16,1,20,1,-6,1,-12,1,18,1,-1,1,-20,1,-27,1,-19,1,-29,1,-24,1
737,-6,1,10,1,16,1,-2,1,-11,1,13,1,-3,1,-22,1,-29,1,-20,1,-31,1,-26,1
738,-9,1,6,1,15,1,1,1,-12,1,10,1,-3,1,-23,1,-28,1,-19,1,-30,1,-27,1
739,-12,1,0,1,12,1,6,1,-12,1,6,1,-5,1,-26,1,-29,1,-21,1,-31,1,-30,1
740,-13,1,0,1,13,1,6,1,-13,1,6,1,-3,1,-25,1,-27,1,-19,1,-28,1,-28,1
741,-12,1,2,1,14,1,5,1,-13,1,8,1,-1,1,-24,1,-24,1,-18,1,-27,1,-26,1
742,-11,1,5,1,16,1,3,1,-13,1,10,1,0,1,-24,1,-24,1,-17,1,-26,1,-26,1
743,-7,1,9,1,16,1,-1,1,-11,1,12,1,-1,1,-24,1,-25,1,-19,1,-26,1,-25,1
744,-7,1,13,1,20,1,-3,1,-13,1,16,1,0,1,-22,1,-26,1,-21,1,-27,1,-25,1
745,-9,1,9,1,18,1,0,1,-13,1,13,1,-2,1,-24,1,-30,1,-24,1,-32,1,-27,1
746,-9,1,7,1,16,1,1,1,-12,1,11,1,-3,1,-22,1,-31,1,-23,1,-33,1,-28,1
747,-10,1,5,1,15,1,2,1,-12,1,10,1,-2,1,-22,1,-31,1,-22,1,-31,1,-27,1
748,-11,1,2,1,13,1,4,1,-12,1,7,1,-2,1,-24,1,-31,1,-22,1,-30,1,-28,1
749,-11,1,1,1,12,1,5,1,-11,1,6,1,-1,1,-24,1,-28,1,-21,1,-27,1,-27,1
750,-10,1,1,1,11,1,4,1,-10,1,6,1,-1,1,-23,1,-25,1,-19,1,-26,1,-25,1
751,-11,1,0,1,11,1,5,1,-11,1,5,1,-1,1,-23,1,-23,1,-17,1,-24,1,-24,1
752,-12,1,0,1,12,1,6,1,-12,1,6,1,0,1,-22,1,-23,1,-17,1,-25,1,-24,1
753,-10,1,1,1,11,1,4,1,-10,1,6,1,2,1,-21,1,-23,1,-17,1,-25,1,-23,1
754,-10,1,2,1,12,1,4,1,-11,1,7,1,1,1,-20,1,-24,1,-18,1,-26,1,-21,1
755,-8,1,4,1,12,1,2,1,-10,1,8,1,0,1,-20,1,-27,1,-20,1,-27,1,-21,1
756,-7,1,5,1,12,1,1,1,-9,1,8,1,-1,1,-21,1,-30,1,-21,1,-30,1,-22,1
757,-7,1,8,1,15,1,0,1,-11,1,11,1,-3,1,-22,1,-32,1,-22,1,-31,1,-23,1
758,-8,1,7,1,15,1,0,1,-11,1,11,1,-3,1,-23,1,-31,1,-22,1,-30,1,-23,1
759,-11,1,1,1,12,1,5,1,-11,1,6,1,-2,1,-23,1,-27,1,-20,1,-28,1,-23,1
760,-10,1,0,1,10,1,5,1,-10,1,5,1,0,1,-22,1,-24,1,-18,1,-27,1,-21,1
761,-10,1,2,1,12,1,4,1,-11,1,7,1,1,1,-21,1,-23,1,-18,1,-26,1,-20,1
762,-10,1,4,1,14,1,3,1,-12,1,9,1,1,1,-20,1,-22,1,-18,1,-27,1,-18,1
763,-11,1,3,1,14,1,4,1,-12,1,8,1,2,1,-18,1,-23,1,-19,1,-28,1,-18,1
764,-9,1,7,1,16,1,1,1,-12,1,11,1,2,1,-19,1,-25,1,-20,1,-28,1,-19,1
765,-7,1,9,1,16,1,-1,1,-11,1,12,1,0,1,-19,1,-27,1,-21,1,-30,1,-22,1
766,-7,1,9,1,16,1,-1,1,-11,1,12,1,0,1,-19,1,-29,1,-23,1,-31,1,-24,1
767,-7,1,9,1,16,1,-1,1,-11,1,12,1,-1,1,-19,1,-30,1,-23,1,-32,1,-25,1
768,-8,1,6,1,14,1,1,1,-11,1,10,1,0,1,-19,1,-30,1,-22,1,-31,1,-26,1
769,-10,1,2,1,12,1,4,1,-11,1,7,1,0,1,-19,1,-26,1,-20,1,-29,1,-26,1
770,-12,1,0,1,12,1,6,1,-12,1,6,1,0,1,-19,1,-23,1,-17,1,-27,1,-25,1
771,-12,1,-2,1,10,1,7,1,-11,1,4,1,1,1,-19,1,-22,1,-18,1,-26,1,-25,1
772,-13,1,-1,1,12,1,7,1,-13,1,5,1,2,1,-18,1,-22,1,-18,1,-26,1,-25,1
773,-11,1,4,1,15,1,3,1,-13,1,9,1,2,1,-17,1,-22,1,-20,1,-28,1,-27,1
774,-8,1,8,1,16,1,0,1,-12,1,12,1,2,1,-16,1,-23,1,-20,1,-28,1,-27,1
775,-7,1,10,1,17,1,-1,1,-12,1,13,1,0,1,-16,1,-25,1,-20,1,-28,1,-28,1
776,-8,1,10,1,18,1,-1,1,-13,1,14,1,-1,1,-16,1,-26,1,-21,1,-29,1,-29,1
777,-9,1,6,1,15,1,1,1,-12,1,10,1,-2,1,-18,1,-28,1,-22,1,-30,1,-32,1
778,-10,1,4,1,14,1,3,1,-12,1,9,1,-2,1,-18,1,-28,1,-21,1,-30,1,-32,1
779,-8,1,7,1,15,1,0,1,-11,1,11,1,1,1,-17,1,-24,1,-18,1,-27,1,-32,1
780,-12,1,3,1,15,1,4,1,-13,1,9,1,0,1,-20,1,-23,1,-19,1,-29,1,-33,1
781,-10,1,5,1,15,1,2,1,-12,1,10,1,0,1,-20,1,-22,1,-19,1,-29,1,-33,1
782,-11,1,3,1,14,1,4,1,-12,1,8,1,1,1,-19,1,-21,1,-19,1,-27,1,-33,1
783,-16,1,-1,1,15,1,8,1,-16,1,7,1,-1,1,-20,1,-24,1,-22,1,-30,1,-34,1
784,-13,1,4,1,17,1,4,1,-15,1,10,1,-2,1,-19,1,-26,1,-22,1,-30,1,-34,1
785,-10,1,6,1,16,1,2,1,-13,1,11,1,-1,1,-18,1,-28,1,-23,1,-32,1,-35,1
786,-8,1,8,1,16,1,0,1,-12,1,12,1,-1,1,-18,1,-30,1,-23,1,-32,1,-34,1
787,-9,1,7,1,16,1,1,1,-12,1,11,1,-1,1,-18,1,-29,1,-23,1,-32,1,-35,1
788,-10,1,4,1,14,1,3,1,-12,1,9,1,-2,1,-17,1,-27,1,-22,1,-31,1,-36,1
789,-11,1,0,1,11,1,5,1,-11,1,5,1,-2,1,-18,1,-27,1,-21,1,-30,1,-36,1
790,-12,1,0,1,12,1,6,1,-12,1,6,1,-1,1,-19,1,-26,1,-21,1,-30,1,-36,1
791,-11,1,0,1,11,1,5,1,-11,1,5,1,-1,1,-20,1,-25,1,-21,1,-28,1,-35,1
792,-11,1,1,1,12,1,5,1,-11,1,6,1,0,1,-20,1,-25,1,-21,1,-28,1,-35,1
793,-10,1,2,1,12,1,4,1,-11,1,7,1,0,1,-19,1,-25,1,-21,1,-29,1,-35,1
794,-10,1,5,1,15,1,2,1,-12,1,10,1,-1,1,-19,1,-28,1,-23,1,-30,1,-35,1
795,-8,1,6,1,14,1,1,1,-11,1,10,1,-2,1,-19,1,-31,1,-25,1,-31,1,-36,1
796,-8,1,8,1,16,1,0,1,-12,1,12,1,-4,1,-21,1,-34,1,-26,1,-32,1,-37,1
797,-8,1,9,1,17,1,0,1,-12,1,13,1,-5,1,-21,1,-34,1,-25,1,-33,1,-38,1
798,-10,1,6,1,16,1,2,1,-13,1,11,1,-4,1,-21,1,-32,1,-23,1,-31,1,-37,1
799,-11,1,0,1,11,1,5,1,-11,1,5,1,-3,1,-21,1,-30,1,-23,1,-31,1,-38,1
800,-12,1,-1,1,11,1,6,1,-12,1,5,1,-1,1,-20,1,-27,1,-20,1,-28,1,-35,1
801,-13,1,0,1,13,1,6,1,-13,1,6,1,-3,1,-21,1,-26,1,-20,1,-27,1,-35,1
802,-12,1,0,1,12,1,6,1,-12,1,6,1,-2,1,-21,1,-26,1,-20,1,-27,1,-33,1
803,-10,1,1,1,11,1,4,1,-10,1,6,1,-2,1,-23,1,-28,1,-21,1,-28,1,-33,1
804,-7,1,4,1,11,1,1,1,-9,1,7,1,-2,1,-23,1,-30,1,-23,1,-30,1,-32,1
805,-7,1,4,1,11,1,1,1,-9,1,7,1,-4,1,-23,1,-33,1,-25,1,-31,1,-33,1
806,-8,1,5,1,13,1,1,1,-10,1,9,1,-5,1,-23,1,-35,1,-26,1,-33,1,-35,1
807,-9,1,4,1,13,1,2,1,-11,1,8,1,-6,1,-24,1,-37,1,-26,1,-35,1,-36,1
808,-9,1,2,1,11,1,3,1,-10,1,6,1,-6,1,-25,1,-36,1,-24,1,-33,1,-36,1
809,-11,1,-1,1,10,1,6,1,-11,1,4,1,-4,1,-25,1,-32,1,-22,1,-32,1,-36,1
810,-14,1,-7,1,7,1,10,1,-11,1,0,1,-3,1,-26,1,-30,1,-21,1,-30,1,-35,1
811,-16,1,-7,1,9,1,11,1,-13,1,1,1,-2,1,-27,1,-29,1,-20,1,-28,1,-33,1
812,-14,1,-5,1,9,1,9,1,-12,1,2,1,-2,1,-27,1,-29,1,-21,1,-28,1,-32,1
813,-12,1,-3,1,9,1,7,1,-11,1,3,1,-3,1,-27,1,-31,1,-23,1,-30,1,-31,1
814,-11,1,-1,1,10,1,6,1,-11,1,4,1,-4,1,-27,1,-33,1,-24,1,-31,1,-31,1
815,-10,1,0,1,10,1,5,1,-10,1,5,1,-4,1,-27,1,-36,1,-26,1,-32,1,-31,1
816,-6,1,4,1,10,1,1,1,-8,1,7,1,-4,1,-26,1,-36,1,-25,1,-33,1,-31,1
817,-7,1,3,1,10,1,2,1,-8,1,6,1,-4,1,-26,1,-37,1,-25,1,-33,1,-31,1
818,-8,1,1,1,9,1,3,1,-8,1,5,1,-4,1,-27,1,-35,1,-25,1,-33,1,-32,1
819,-13,1,-4,1,9,1,8,1,-11,1,2,1,-6,1,-29,1,-35,1,-25,1,-32,1,-32,1
820,-17,1,-5,1,12,1,11,1,-15,1,3,1,-8,1,-32,1,-35,1,-26,1,-33,1,-34,1
821,-19,1,-6,1,13,1,12,1,-16,1,3,1,-6,1,-32,1,-34,1,-25,1,-31,1,-32,1
822,-17,1,-6,1,11,1,11,1,-14,1,2,1,-4,1,-30,1,-32,1,-24,1,-30,1,-30,1
823,-15,1,-4,1,11,1,9,1,-13,1,3,1,-4,1,-30,1,-33,1,-25,1,-32,1,-29,1
824,-11,1,2,1,13,1,4,1,-12,1,7,1,-4,1,-29,1,-34,1,-25,1,-32,1,-29,1
825,-11,1,4,1,15,1,3,1,-13,1,9,1,-7,1,-29,1,-38,1,-27,1,-35,1,-30,1
826,-11,1,1,1,12,1,5,1,-11,1,6,1,-9,1,-31,1,-42,1,-28,1,-37,1,-31,1
827,-10,1,0,1,10,1,5,1,-10,1,5,1,-8,1,-30,1,-41,1,-28,1,-36,1,-31,1
828,-10,1,1,1,11,1,4,1,-10,1,6,1,-7,1,-31,1,-40,1,-27,1,-35,1,-31,1
829,-11,1,-1,1,10,1,6,1,-11,1,4,1,-7,1,-33,1,-39,1,-26,1,-34,1,-30,1
830,-16,1,-6,1,10,1,11,1,-13,1,2,1,-7,1,-33,1,-38,1,-26,1,-34,1,-30,1
831,-18,1,-8,1,10,1,13,1,-14,1,1,1,-7,1,-33,1,-36,1,-26,1,-34,1,-30,1
832,-16,1,-5,1,11,1,10,1,-14,1,3,1,-7,1,-34,1,-36,1,-26,1,-33,1,-29,1
833,-14,1,-1,1,13,1,7,1,-14,1,6,1,-7,1,-34,1,-37,1,-27,1,-33,1,-28,1
834,-12,1,1,1,13,1,5,1,-12,1,7,1,-7,1,-33,1,-38,1,-27,1,-35,1,-28,1
835,-11,1,4,1,15,1,3,1,-13,1,9,1,-8,1,-33,1,-41,1,-28,1,-36,1,-28,1
836,-10,1,4,1,14,1,3,1,-12,1,9,1,-9,1,-33,1,-43,1,-30,1,-38,1,-28,1
837,-9,1,2,1,11,1,3,1,-10,1,6,1,-9,1,-31,1,-42,1,-28,1,-35,1,-26,1
838,-11,1,-3,1,8,1,7,1,-10,1,2,1,-9,1,-31,1,-40,1,-28,1,-35,1,-26,1
839,-13,1,-9,1,4,1,11,1,-9,1,-3,1,-8,1,-33,1,-38,1,-26,1,-34,1,-27,1
840,-14,1,-9,1,5,1,11,1,-10,1,-2,1,-7,1,-34,1,-36,1,-25,1,-33,1,-28,1
841,-16,1,-8,1,8,1,12,1,-12,1,0,1,-7,1,-33,1,-34,1,-25,1,-33,1,-27,1
842,-14,1,-6,1,8,1,10,1,-11,1,1,1,-5,1,-32,1,-33,1,-23,1,-31,1,-24,1
843,-13,1,-4,1,9,1,8,1,-11,1,2,1,-6,1,-32,1,-33,1,-23,1,-31,1,-24,1
844,-14,1,-4,1,10,1,9,1,-12,1,3,1,-6,1,-32,1,-36,1,-24,1,-33,1,-23,1
845,-12,1,-1,1,11,1,6,1,-12,1,5,1,-9,1,-31,1,-38,1,-27,1,-35,1,-25,1
846,-11,1,0,1,11,1,5,1,-11,1,5,1,-10,1,-31,1,-41,1,-29,1,-37,1,-27,1
847,-12,1,0,1,12,1,6,1,-12,1,6,1,-10,1,-32,1,-42,1,-29,1,-36,1,-28,1
848,-14,1,-3,1,11,1,8,1,-13,1,4,1,-9,1,-32,1,-40,1,-26,1,-35,1,-27,1
849,-14,1,-6,1,8,1,10,1,-11,1,1,1,-9,1,-32,1,-38,1,-25,1,-33,1,-27,1
850,-17,1,-7,1,10,1,12,1,-14,1,1,1,-9,1,-33,1,-37,1,-25,1,-34,1,-27,1
851,-15,1,-6,1,9,1,10,1,-12,1,1,1,-8,1,-32,1,-35,1,-25,1,-33,1,-25,1
852,-11,1,-3,1,8,1,7,1,-10,1,2,1,-7,1,-31,1,-32,1,-22,1,-30,1,-21,1
853,-15,1,-4,1,11,1,9,1,-13,1,3,1,-7,1,-32,1,-33,1,-24,1,-31,1,-21,1
854,-16,1,-5,1,11,1,10,1,-14,1,3,1,-10,1,-34,1,-38,1,-27,1,-33,1,-24,1
855,-16,1,-4,1,12,1,10,1,-14,1,4,1,-11,1,-31,1,-39,1,-28,1,-33,1,-23,1
856,-13,1,-3,1,10,1,8,1,-12,1,3,1,-12,1,-32,1,-42,1,-29,1,-35,1,-24,1
857,-12,1,-4,1,8,1,8,1,-10,1,2,1,-12,1,-32,1,-42,1,-28,1,-34,1,-24,1
858,-15,1,-5,1,10,1,10,1,-13,1,2,1,-12,1,-33,1,-43,1,-28,1,-34,1,-25,1
859,-16,1,-7,1,9,1,11,1,-13,1,1,1,-10,1,-33,1,-40,1,-26,1,-32,1,-23,1
860,-16,1,-7,1,9,1,11,1,-13,1,1,1,-11,1,-34,1,-37,1,-25,1,-31,1,-23,1
861,-17,1,-8,1,9,1,12,1,-13,1,0,1,-9,1,-33,1,-36,1,-24,1,-31,1,-24,1
862,-17,1,-8,1,9,1,12,1,-13,1,0,1,-8,1,-33,1,-36,1,-24,1,-29,1,-22,1
863,-16,1,-8,1,8,1,12,1,-12,1,0,1,-8,1,-32,1,-36,1,-24,1,-29,1,-21,1
864,-13,1,-2,1,11,1,7,1,-12,1,4,1,-8,1,-31,1,-38,1,-26,1,-30,1,-21,1
865,-11,1,2,1,13,1,4,1,-12,1,7,1,-9,1,-33,1,-41,1,-28,1,-32,1,-22,1
866,-14,1,-1,1,13,1,7,1,-14,1,6,1,-13,1,-34,1,-44,1,-30,1,-34,1,-24,1
867,-14,1,-4,1,10,1,9,1,-12,1,3,1,-13,1,-33,1,-43,1,-29,1,-34,1,-25,1
868,-13,1,-7,1,6,1,10,1,-10,1,-1,1,-11,1,-33,1,-42,1,-27,1,-34,1,-25,1
869,-17,1,-10,1,7,1,13,1,-12,1,-2,1,-11,1,-34,1,-40,1,-27,1,-33,1,-25,1
870,-16,1,-10,1,6,1,13,1,-11,1,-2,1,-9,1,-34,1,-36,1,-24,1,-31,1,-24,1
871,-18,1,-10,1,8,1,14,1,-13,1,-1,1,-9,1,-34,1,-35,1,-24,1,-30,1,-23,1
872,-17,1,-8,1,9,1,12,1,-13,1,0,1,-9,1,-33,1,-34,1,-24,1,-29,1,-22,1
873,-15,1,-3,1,12,1,9,1,-14,1,4,1,-9,1,-33,1,-36,1,-26,1,-31,1,-22,1
874,-13,1,0,1,13,1,6,1,-13,1,6,1,-11,1,-34,1,-39,1,-27,1,-33,1,-22,1
875,-13,1,-1,1,12,1,7,1,-13,1,5,1,-12,1,-33,1,-41,1,-28,1,-34,1,-22,1
876,-11,1,-1,1,10,1,6,1,-11,1,4,1,-11,1,-32,1,-42,1,-28,1,-34,1,-23,1
877,-14,1,-3,1,11,1,8,1,-13,1,4,1,-11,1,-33,1,-43,1,-28,1,-35,1,-24,1
878,-14,1,-3,1,11,1,8,1,-13,1,4,1,-13,1,-35,1,-43,1,-30,1,-37,1,-26,1
879,-15,1,-4,1,11,1,9,1,-13,1,3,1,-14,1,-37,1,-42,1,-29,1,-36,1,-27,1
880,-14,1,-6,1,8,1,10,1,-11,1,1,1,-13,1,-36,1,-37,1,-25,1,-32,1,-24,1
881,-15,1,-7,1,8,1,11,1,-12,1,0,1,-10,1,-34,1,-34,1,-24,1,-31,1,-23,1
882,-14,1,-6,1,8,1,10,1,-11,1,1,1,-9,1,-34,1,-34,1,-25,1,-31,1,-21,1
883,-13,1,-3,1,10,1,8,1,-12,1,3,1,-10,1,-34,1,-36,1,-27,1,-32,1,-19,1
884,-9,1,2,1,11,1,3,1,-10,1,6,1,-10,1,-33,1,-37,1,-26,1,-32,1,-18,1
885,-7,1,4,1,11,1,1,1,-9,1,7,1,-11,1,-33,1,-40,1,-28,1,-34,1,-18,1
886,-13,1,-1,1,12,1,7,1,-13,1,5,1,-14,1,-35,1,-43,1,-32,1,-38,1,-21,1
887,-18,1,-5,1,13,1,11,1,-16,1,4,1,-17,1,-37,1,-45,1,-34,1,-40,1,-23,1
888,-16,1,-6,1,10,1,11,1,-13,1,2,1,-15,1,-38,1,-43,1,-32,1,-38,1,-23,1
889,-16,1,-7,1,9,1,11,1,-13,1,1,1,-13,1,-37,1,-40,1,-30,1,-36,1,-22,1
890,-17,1,-7,1,10,1,12,1,-14,1,1,1,-13,1,-38,1,-38,1,-28,1,-34,1,-21,1
891,-16,1,-8,1,8,1,12,1,-12,1,0,1,-12,1,-36,1,-35,1,-25,1,-32,1,-18,1
892,-17,1,-8,1,9,1,12,1,-13,1,0,1,-11,1,-35,1,-33,1,-24,1,-31,1,-15,1
893,-16,1,-3,1,13,1,9,1,-15,1,5,1,-12,1,-36,1,-36,1,-25,1,-32,1,-15,1
894,-13,1,3,1,16,1,5,1,-14,1,9,1,-12,1,-35,1,-38,1,-27,1,-34,1,-16,1
895,-11,1,3,1,14,1,4,1,-12,1,8,1,-12,1,-34,1,-40,1,-28,1,-36,1,-16,1
896,-12,1,-1,1,11,1,6,1,-12,1,5,1,-11,1,-34,1,-40,1,-29,1,-37,1,-16,1
897,-11,1,0,1,11,1,5,1,-11,1,5,1,-11,1,-34,1,-41,1,-29,1,-37,1,-17,1
898,-13,1,-1,1,12,1,7,1,-13,1,5,1,-12,1,-34,1,-40,1,-29,1,-37,1,-18,1
899,-14,1,-2,1,12,1,8,1,-13,1,5,1,-10,1,-35,1,-38,1,-26,1,-34,1,-17,1
900,-15,1,-7,1,8,1,11,1,-12,1,0,1,-8,1,-35,1,-35,1,-25,1,-33,1,-15,1
901,-15,1,-8,1,7,1,11,1,-11,1,-1,1,-6,1,-32,1,-30,1,-23,1,-30,1,-13,1
902,-11,1,-3,1,8,1,7,1,-10,1,2,1,-5,1,-30,1,-28,1,-22,1,-28,1,-11,1
903,-14,1,-7,1,7,1,10,1,-11,1,0,1,-9,1,-33,1,-33,1,-25,1,-32,1,-12,1
904,-14,1,-4,1,10,1,9,1,-12,1,3,1,-11,1,-35,1,-37,1,-27,1,-35,1,-13,1
905,-13,1,-1,1,12,1,7,1,-13,1,5,1,-12,1,-34,1,-40,1,-30,1,-36,1,-14,1
906,-9,1,2,1,11,1,3,1,-10,1,6,1,-12,1,-34,1,-41,1,-30,1,-36,1,-14,1
907,-11,1,-2,1,9,1,6,1,-10,1,3,1,-11,1,-33,1,-41,1,-28,1,-35,1,-15,1
908,-12,1,-5,1,7,1,8,1,-10,1,1,1,-9,1,-33,1,-40,1,-27,1,-33,1,-15,1
909,-13,1,-8,1,5,1,10,1,-9,1,-2,1,-8,1,-32,1,-35,1,-24,1,-31,1,-13,1
910,-14,1,-9,1,5,1,11,1,-10,1,-2,1,-7,1,-32,1,-32,1,-23,1,-31,1,-12,1
911,-15,1,-9,1,6,1,12,1,-11,1,-2,1,-7,1,-30,1,-30,1,-23,1,-29,1,-11,1
912,-12,1,-7,1,5,1,9,1,-9,1,-1,1,-4,1,-29,1,-28,1,-22,1,-28,1,-9,1
913,-10,1,-2,1,8,1,6,1,-9,1,3,1,-4,1,-27,1,-28,1,-21,1,-28,1,-7,1
914,-6,1,4,1,10,1,1,1,-8,1,7,1,-4,1,-27,1,-30,1,-22,1,-29,1,-6,1
915,-4,1,6,1,10,1,-1,1,-7,1,8,1,-6,1,-26,1,-30,1,-21,1,-29,1,-5,1
916,-1,1,6,1,7,1,-2,1,-4,1,6,1,-7,1,-24,1,-31,1,-21,1,-28,1,-5,1
917,1,1,6,1,5,1,-3,1,-2,1,6,1,-8,1,-24,1,-31,1,-20,1,-28,1,-5,1
918,0,1,3,1,3,1,-1,1,-1,1,3,1,-8,1,-24,1,-30,1,-19,1,-28,1,-5,1
919,-2,1,-2,1,0,1,2,1,-1,1,-1,1,-8,1,-24,1,-28,1,-18,1,-27,1,-5,1
920,-4,1,-6,1,-2,1,5,1,-1,1,-4,1,-7,1,-26,1,-27,1,-18,1,-26,1,-5,1
921,-2,1,-6,1,-4,1,4,1,1,1,-5,1,-7,1,-25,1,-25,1,-17,1,-26,1,-3,1
922,-2,1,-3,1,-1,1,2,1,-1,1,-2,1,-9,1,-26,1,-25,1,-17,1,-26,1,-3,1
923,0,1,3,1,3,1,-1,1,-1,1,3,1,-10,1,-25,1,-24,1,-15,1,-24,1,0,1
924,1,1,8,1,7,1,-4,1,-3,1,8,1,-12,1,-27,1,-27,1,-17,1,-24,1,1,1
925,3,1,13,1,10,1,-8,1,-3,1,12,1,-14,1,-27,1,-28,1,-17,1,-23,1,2,1
926,3,1,14,1,11,1,-8,1,-4,1,13,1,-15,1,-28,1,-31,1,-18,1,-25,1,1,1
927,3,1,12,1,9,1,-7,1,-3,1,11,1,-16,1,-29,1,-34,1,-20,1,-27,1,0,1
928,2,1,8,1,6,1,-5,1,-2,1,7,1,-16,1,-32,1,-36,1,-22,1,-30,1,-3,1
929,0,1,3,1,3,1,-1,1,-1,1,3,1,-19,1,-34,1,-34,1,-21,1,-29,1,-2,1
930,-2,1,0,1,2,1,1,1,-2,1,1,1,-16,1,-34,1,-31,1,-20,1,-28,1,0,1
931,-4,1,-1,1,3,1,2,1,-4,1,1,1,-15,1,-33,1,-29,1,-18,1,-27,1,0,1
932,-4,1,0,1,4,1,2,1,-4,1,2,1,-14,1,-30,1,-28,1,-18,1,-27,1,1,1
933,-1,1,5,1,6,1,-2,1,-3,1,5,1,-14,1,-30,1,-28,1,-19,1,-26,1,2,1
934,2,1,8,1,6,1,-5,1,-2,1,7,1,-15,1,-29,1,-31,1,-20,1,-27,1,3,1
935,4,1,11,1,7,1,-7,1,-1,1,9,1,-17,1,-29,1,-33,1,-21,1,-29,1,3,1
936,5,1,12,1,7,1,-8,1,-1,1,10,1,-18,1,-30,1,-35,1,-22,1,-29,1,2,1
937,6,1,10,1,4,1,-8,1,1,1,7,1,-18,1,-30,1,-37,1,-23,1,-30,1,1,1
938,3,1,4,1,1,1,-3,1,1,1,3,1,-19,1,-32,1,-36,1,-24,1,-31,1,-1,1
939,1,1,0,1,-1,1,0,1,1,1,0,1,-18,1,-34,1,-35,1,-23,1,-30,1,-2,1
940,0,1,-4,1,-4,1,2,1,2,1,-4,1,-18,1,-34,1,-33,1,-21,1,-28,1,-1,1
941,-3,1,-8,1,-5,1,5,1,1,1,-7,1,-17,1,-35,1,-32,1,-21,1,-28,1,0,1
942,-3,1,-7,1,-4,1,5,1,0,1,-6,1,-17,1,-35,1,-33,1,-22,1,-28,1,0,1
943,-1,1,-2,1,-1,1,1,1,0,1,-2,1,-18,1,-35,1,-34,1,-24,1,-29,1,0,1
944,0,1,0,1,0,1,0,1,0,1,0,1,-17,1,-33,1,-36,1,-23,1,-28,1,0,1
945,0,1,2,1,2,1,-1,1,-1,1,2,1,-17,1,-32,1,-38,1,-23,1,-30,1,0,1
946,0,1,3,1,3,1,-1,1,-1,1,3,1,-17,1,-32,1,-38,1,-24,1,-31,1,-2,1
947,-2,1,0,1,2,1,1,1,-2,1,1,1,-17,1,-32,1,-39,1,-26,1,-33,1,-5,1
948,-6,1,-4,1,2,1,5,1,-4,1,-1,1,-17,1,-36,1,-41,1,-27,1,-34,1,-8,1
949,-7,1,-5,1,2,1,6,1,-5,1,-2,1,-15,1,-34,1,-38,1,-25,1,-32,1,-9,1
950,-10,1,-6,1,4,1,8,1,-7,1,-1,1,-12,1,-32,1,-33,1,-21,1,-29,1,-8,1
951,-12,1,-6,1,6,1,9,1,-9,1,0,1,-11,1,-32,1,-32,1,-21,1,-28,1,-8,1
952,-14,1,-5,1,9,1,9,1,-12,1,2,1,-10,1,-30,1,-30,1,-21,1,-28,1,-8,1
953,-12,1,-5,1,7,1,8,1,-10,1,1,1,-7,1,-28,1,-31,1,-22,1,-28,1,-6,1
954,-16,1,-6,1,10,1,11,1,-13,1,2,1,-9,1,-32,1,-36,1,-27,1,-33,1,-8,1
955,-17,1,-7,1,10,1,12,1,-14,1,1,1,-14,1,-37,1,-43,1,-32,1,-39,1,-14,1
956,-16,1,-6,1,10,1,11,1,-13,1,2,1,-15,1,-38,1,-45,1,-34,1,-40,1,-15,1
957,-16,1,-7,1,9,1,11,1,-13,1,1,1,-16,1,-37,1,-47,1,-35,1,-40,1,-15,1
958,-17,1,-8,1,9,1,12,1,-13,1,0,1,-17,1,-38,1,-46,1,-36,1,-40,1,-16,1
959,-18,1,-13,1,5,1,15,1,-12,1,-4,1,-15,1,-38,1,-44,1,-34,1,-38,1,-15,1
960,-19,1,-14,1,5,1,16,1,-12,1,-5,1,-14,1,-39,1,-40,1,-31,1,-36,1,-14,1
961,-20,1,-13,1,7,1,16,1,-14,1,-3,1,-13,1,-38,1,-38,1,-29,1,-34,1,-13,1
962,-20,1,-10,1,10,1,15,1,-15,1,0,1,-13,1,-38,1,-38,1,-29,1,-34,1,-13,1
963,-19,1,-5,1,14,1,12,1,-17,1,4,1,-13,1,-36,1,-39,1,-31,1,-35,1,-12,1
964,-16,1,-1,1,15,1,8,1,-16,1,7,1,-14,1,-36,1,-41,1,-31,1,-37,1,-12,1
965,-15,1,0,1,15,1,7,1,-15,1,7,1,-15,1,-37,1,-45,1,-34,1,-39,1,-12,1
966,-17,1,-1,1,16,1,9,1,-17,1,7,1,-17,1,-39,1,-48,1,-35,1,-40,1,-12,1
967,-17,1,-1,1,16,1,9,1,-17,1,7,1,-17,1,-39,1,-48,1,-36,1,-42,1,-12,1
968,-18,1,-4,1,14,1,11,1,-16,1,5,1,-16,1,-39,1,-47,1,-34,1,-39,1,-11,1
969,-19,1,-8,1,11,1,13,1,-15,1,1,1,-15,1,-38,1,-44,1,-32,1,-37,1,-10,1
970,-21,1,-15,1,6,1,18,1,-14,1,-5,1,-13,1,-37,1,-39,1,-29,1,-34,1,-6,1
971,-22,1,-16,1,6,1,19,1,-14,1,-5,1,-11,1,-37,1,-38,1,-29,1,-33,1,-4,1
972,-22,1,-14,1,8,1,18,1,-15,1,-3,1,-11,1,-37,1,-37,1,-29,1,-33,1,-4,1
973,-18,1,-8,1,10,1,13,1,-14,1,1,1,-11,1,-35,1,-39,1,-29,1,-33,1,-2,1
974,-16,1,-5,1,11,1,10,1,-14,1,3,1,-11,1,-35,1,-40,1,-30,1,-34,1,-2,1
975,-18,1,-6,1,12,1,12,1,-15,1,3,1,-13,1,-36,1,-44,1,-32,1,-38,1,-3,1
976,-18,1,-5,1,13,1,11,1,-16,1,4,1,-13,1,-36,1,-45,1,-33,1,-39,1,-4,1
977,-21,1,-6,1,15,1,13,1,-18,1,4,1,-9,1,-32,1,-44,1,-32,1,-39,1,-3,1
978,-24,1,-7,1,17,1,15,1,-21,1,5,1,-1,1,-26,1,-39,1,-30,1,-36,1,-4,1
979,-29,1,-9,1,20,1,19,1,-25,1,5,1,7,1,-20,1,-34,1,-30,1,-36,1,-5,1
980,-31,1,-9,1,22,1,20,1,-27,1,6,1,17,1,-11,1,-28,1,-28,1,-34,1,-3,1
981,-30,1,-5,1,25,1,17,1,-28,1,10,1,23,1,-2,1,-20,1,-23,1,-30,1,0,1
982,-25,1,0,1,25,1,12,1,-25,1,12,1,27,1,10,1,-11,1,-16,1,-24,1,3,1
983,-16,1,2,1,18,1,7,1,-17,1,10,1,34,1,32,1,3,1,-5,1,-17,1,10,1
984,-4,1,6,1,10,1,-1,1,-7,1,8,1,47,1,66,1,24,1,9,1,-9,1,15,1
985,9,1,12,1,3,1,-10,1,3,1,8,1,57,1,93,1,45,1,26,1,3,1,22,1
986,23,1,24,1,1,1,-23,1,11,1,13,1,63,1,123,1,76,1,52,1,22,1,36,1
987,37,1,35,1,-2,1,-36,1,20,1,17,1,66,1,154,1,116,1,86,1,46,1,51,1
988,50,1,44,1,-6,1,-47,1,28,1,19,1,56,1,174,1,155,1,122,1,74,1,69,1
989,65,1,55,1,-10,1,-60,1,38,1,23,1,35,1,181,1,195,1,161,1,104,1,88,1
990,87,1,78,1,-9,1,-82,1,48,1,35,1,1,1,177,1,237,1,203,1,139,1,112,1
991,107,1,104,1,-3,1,-105,1,55,1,51,1,-43,1,154,1,263,1,237,1,172,1,138,1
992,124,1,130,1,6,1,-127,1,59,1,68,1,-94,1,110,1,270,1,260,1,198,1,163,1
993,138,1,149,1,11,1,-143,1,64,1,80,1,-138,1,73,1,275,1,276,1,219,1,185,1
994,144,1,156,1,12,1,-150,1,66,1,84,1,-165,1,37,1,271,1,277,1,226,1,194,1
995,138,1,148,1,10,1,-143,1,64,1,79,1,-177,1,12,1,268,1,274,1,221,1,190,1
996,122,1,121,1,-1,1,-121,1,62,1,60,1,-176,1,-2,1,251,1,248,1,195,1,169,1
997,106,1,100,1,-6,1,-103,1,56,1,47,1,-186,1,-36,1,210,1,207,1,162,1,148,1
998,85,1,84,1,-1,1,-84,1,43,1,42,1,-191,1,-80,1,152,1,154,1,125,1,126,1
999,60,1,65,1,5,1,-62,1,28,1,35,1,-189,1,-121,1,89,1,98,1,86,1,103,1
1000,38,1,41,1,3,1,-39,1,18,1,22,1,-188,1,-168,1,17,1,39,1,45,1,77,1
1001,16,1,22,1,6,1,-19,1,5,1,14,1,-191,1,-233,1,-70,1,-24,1,2,1,51,1
1002,-4,1,7,1,11,1,-1,1,-7,1,9,1,-199,1,-289,1,-151,1,-82,1,-35,1,29,1
1003,-18,1,1,1,19,1,8,1,-18,1,10,1,-204,1,-323,1,-204,1,-121,1,-62,1,12,1
1004,-32,1,-6,1,26,1,19,1,-29,1,10,1,-196,1,-317,1,-217,1,-135,1,-77,1,0,1
1005,-39,1,-14,1,25,1,26,1,-32,1,5,1,-187,1,-297,1,-213,1,-138,1,-86,1,-9,1
1006,-47,1,-15,1,32,1,31,1,-40,1,8,1,-178,1,-282,1,-208,1,-140,1,-93,1,-17,1
1007,-50,1,-21,1,29,1,35,1,-40,1,4,1,-175,1,-268,1,-202,1,-142,1,-96,1,-23,1
1008,-55,1,-27,1,28,1,41,1,-42,1,0,1,-169,1,-250,1,-193,1,-139,1,-99,1,-29,1
1009,-54,1,-24,1,30,1,39,1,-42,1,3,1,-154,1,-224,1,-172,1,-126,1,-93,1,-29,1
1010,-52,1,-19,1,33,1,35,1,-43,1,7,1,-136,1,-196,1,-149,1,-112,1,-83,1,-22,1
1011,-52,1,-16,1,36,1,34,1,-44,1,10,1,-121,1,-172,1,-130,1,-98,1,-74,1,-16,1
1012,-47,1,-11,1,36,1,29,1,-42,1,12,1,-103,1,-146,1,-110,1,-84,1,-64,1,-10,1
1013,-40,1,-2,1,38,1,21,1,-39,1,18,1,-84,1,-121,1,-92,1,-72,1,-56,1,-5,1
1014,-34,1,5,1,39,1,14,1,-36,1,22,1,-65,1,-97,1,-77,1,-61,1,-48,1,1,1
1015,-28,1,9,1,37,1,9,1,-32,1,23,1,-50,1,-75,1,-62,1,-50,1,-41,1,4,1
1016,-22,1,12,1,34,1,5,1,-28,1,23,1,-38,1,-61,1,-53,1,-43,1,-36,1,7,1
1017,-18,1,12,1,30,1,3,1,-24,1,21,1,-30,1,-49,1,-46,1,-39,1,-34,1,9,1
1018,-19,1,7,1,26,1,6,1,-22,1,16,1,-23,1,-40,1,-40,1,-35,1,-31,1,9,1
1019,-19,1,2,1,21,1,8,1,-20,1,11,1,-17,1,-33,1,-33,1,-32,1,-28,1,8,1
1020,-18,1,-2,1,16,1,10,1,-17,1,7,1,-9,1,-25,1,-26,1,-27,1,-26,1,11,1
1021,-13,1,-2,1,11,1,7,1,-12,1,4,1,-4,1,-21,1,-21,1,-23,1,-23,1,13,1
1022,-14,1,-2,1,12,1,8,1,-13,1,5,1,-3,1,-18,1,-20,1,-23,1,-23,1,12,1
1023,-14,1,0,1,14,1,7,1,-14,1,7,1,-3,1,-17,1,-22,1,-24,1,-24,1,12,1
1024,-13,1,2,1,15,1,5,1,-14,1,8,1,-3,1,-14,1,-22,1,-25,1,-24,1,13,1
1025,-14,1,3,1,17,1,5,1,-15,1,10,1,-4,1,-13,1,-24,1,-25,1,-25,1,12,1
1026,-14,1,3,1,17,1,5,1,-15,1,10,1,-3,1,-11,1,-24,1,-25,1,-26,1,12,1
1027,-12,1,3,1,15,1,4,1,-13,1,9,1,-1,1,-9,1,-22,1,-23,1,-25,1,13,1
1028,-12,1,-1,1,11,1,6,1,-12,1,5,1,0,1,-10,1,-21,1,-23,1,-25,1,10,1
1029,-16,1,-7,1,9,1,11,1,-13,1,1,1,0,1,-10,1,-18,1,-22,1,-25,1,8,1
1030,-15,1,-5,1,10,1,10,1,-13,1,2,1,2,1,-7,1,-14,1,-19,1,-23,1,9,1
1031,-13,1,-4,1,9,1,8,1,-11,1,2,1,3,1,-6,1,-12,1,-17,1,-21,1,9,1
1032,-12,1,-5,1,7,1,8,1,-10,1,1,1,4,1,-3,1,-11,1,-17,1,-20,1,12,1
1033,-9,1,-1,1,8,1,5,1,-9,1,3,1,6,1,-2,1,-11,1,-17,1,-20,1,13,1
1034,-9,1,2,1,11,1,3,1,-10,1,6,1,6,1,0,1,-13,1,-16,1,-21,1,13,1
1035,-7,1,4,1,11,1,1,1,-9,1,7,1,5,1,2,1,-12,1,-16,1,-21,1,12,1
1036,-7,1,3,1,10,1,2,1,-8,1,6,1,3,1,2,1,-13,1,-17,1,-23,1,11,1
1037,-8,1,2,1,10,1,3,1,-9,1,6,1,3,1,1,1,-14,1,-18,1,-24,1,10,1
1038,-9,1,0,1,9,1,4,1,-9,1,4,1,3,1,1,1,-13,1,-17,1,-23,1,10,1
1039,-11,1,-2,1,9,1,6,1,-10,1,3,1,5,1,2,1,-9,1,-15,1,-21,1,11,1
1040,-10,1,-1,1,9,1,5,1,-10,1,4,1,6,1,2,1,-5,1,-13,1,-19,1,12,1
1041,-11,1,-2,1,9,1,6,1,-10,1,3,1,9,1,5,1,-3,1,-11,1,-16,1,13,1
1042,-11,1,-1,1,10,1,6,1,-11,1,4,1,10,1,6,1,-3,1,-11,1,-16,1,15,1
1043,-10,1,1,1,11,1,4,1,-10,1,6,1,9,1,8,1,-3,1,-11,1,-17,1,15,1
1044,-4,1,5,1,9,1,0,1,-6,1,7,1,9,1,10,1,-5,1,-11,1,-18,1,16,1
1045,-4,1,7,1,11,1,-1,1,-7,1,9,1,8,1,9,1,-7,1,-12,1,-19,1,14,1
1046,-5,1,8,1,13,1,-1,1,-9,1,10,1,7,1,9,1,-9,1,-13,1,-20,1,13,1
1047,-4,1,10,1,14,1,-3,1,-9,1,12,1,7,1,9,1,-10,1,-15,1,-22,1,9,1
1048,-6,1,8,1,14,1,-1,1,-10,1,11,1,6,1,9,1,-8,1,-13,1,-20,1,9,1
1049,-7,1,5,1,12,1,1,1,-9,1,8,1,6,1,8,1,-6,1,-11,1,-20,1,9,1
1050,-9,1,1,1,10,1,4,1,-9,1,5,1,8,1,10,1,0,1,-8,1,-16,1,12,1
1051,-13,1,-2,1,11,1,7,1,-12,1,4,1,11,1,12,1,3,1,-4,1,-12,1,15,1
1052,-8,1,-1,1,7,1,4,1,-8,1,3,1,14,1,14,1,5,1,-3,1,-11,1,17,1
1053,-5,1,0,1,5,1,2,1,-5,1,2,1,12,1,15,1,5,1,-3,1,-11,1,17,1
1054,-3,1,5,1,8,1,-1,1,-5,1,6,1,12,1,16,1,3,1,-3,1,-12,1,18,1
1055,-2,1,9,1,11,1,-3,1,-6,1,10,1,11,1,16,1,1,1,-4,1,-14,1,17,1
1056,-1,1,9,1,10,1,-4,1,-5,1,9,1,10,1,16,1,0,1,-5,1,-16,1,15,1
1057,0,1,9,1,9,1,-4,1,-4,1,9,1,11,1,17,1,1,1,-4,1,-14,1,15,1
1058,-2,1,5,1,7,1,-1,1,-4,1,6,1,12,1,18,1,3,1,-2,1,-13,1,16,1
1059,-3,1,5,1,8,1,-1,1,-5,1,6,1,13,1,18,1,6,1,0,1,-12,1,14,1
1060,-6,1,5,1,11,1,0,1,-8,1,8,1,12,1,17,1,7,1,1,1,-12,1,15,1
1061,-7,1,2,1,9,1,2,1,-8,1,5,1,13,1,18,1,9,1,2,1,-11,1,16,1
1062,-5,1,4,1,9,1,0,1,-7,1,6,1,15,1,20,1,13,1,4,1,-8,1,19,1
1063,-2,1,6,1,8,1,-2,1,-5,1,7,1,14,1,21,1,12,1,3,1,-8,1,19,1
1064,0,1,8,1,8,1,-4,1,-4,1,8,1,13,1,23,1,11,1,3,1,-10,1,20,1
1065,0,1,10,1,10,1,-5,1,-5,1,10,1,15,1,26,1,10,1,3,1,-9,1,20,1
1066,0,1,9,1,9,1,-4,1,-4,1,9,1,14,1,26,1,9,1,2,1,-11,1,18,1
1067,1,1,10,1,9,1,-5,1,-4,1,10,1,13,1,25,1,9,1,2,1,-11,1,16,1
1068,0,1,8,1,8,1,-4,1,-4,1,8,1,13,1,26,1,12,1,3,1,-10,1,16,1
1069,0,1,9,1,9,1,-4,1,-4,1,9,1,14,1,27,1,17,1,7,1,-7,1,17,1
1070,1,1,9,1,8,1,-5,1,-3,1,9,1,15,1,29,1,20,1,9,1,-5,1,18,1
1071,0,1,9,1,9,1,-4,1,-4,1,9,1,17,1,31,1,23,1,11,1,-4,1,20,1
1072,2,1,12,1,10,1,-7,1,-4,1,11,1,19,1,34,1,26,1,13,1,-2,1,22,1
1073,4,1,13,1,9,1,-8,1,-2,1,11,1,20,1,36,1,26,1,12,1,-3,1,23,1
1074,4,1,15,1,11,1,-9,1,-3,1,13,1,18,1,37,1,24,1,12,1,-4,1,23,1
1075,4,1,17,1,13,1,-10,1,-4,1,15,1,18,1,39,1,23,1,12,1,-4,1,25,1
1076,7,1,17,1,10,1,-12,1,-1,1,14,1,19,1,41,1,25,1,15,1,-2,1,26,1
1077,10,1,18,1,8,1,-14,1,1,1,13,1,18,1,42,1,25,1,15,1,-3,1,25,1
1078,8,1,15,1,7,1,-11,1,1,1,11,1,18,1,43,1,27,1,16,1,-2,1,25,1
1079,8,1,14,1,6,1,-11,1,1,1,10,1,20,1,45,1,31,1,19,1,1,1,28,1
1080,5,1,13,1,8,1,-9,1,-1,1,11,1,21,1,46,1,35,1,22,1,3,1,29,1
1081,3,1,12,1,9,1,-7,1,-3,1,11,1,22,1,48,1,39,1,25,1,5,1,32,1
1082,5,1,13,1,8,1,-9,1,-1,1,11,1,23,1,51,1,41,1,26,1,7,1,35,1
1083,10,1,17,1,7,1,-13,1,2,1,12,1,24,1,55,1,44,1,27,1,8,1,38,1
1084,13,1,21,1,8,1,-17,1,3,1,15,1,25,1,59,1,44,1,28,1,8,1,40,1
1085,15,1,23,1,8,1,-19,1,4,1,16,1,25,1,62,1,44,1,28,1,8,1,40,1
1086,16,1,24,1,8,1,-20,1,4,1,16,1,25,1,63,1,44,1,29,1,7,1,39,1
1087,19,1,29,1,10,1,-24,1,5,1,20,1,24,1,64,1,45,1,31,1,8,1,40,1
1088,14,1,24,1,10,1,-19,1,2,1,17,1,22,1,64,1,47,1,32,1,8,1,39,1
1089,15,1,23,1,8,1,-19,1,4,1,16,1,24,1,67,1,52,1,35,1,12,1,40,1
1090,15,1,21,1,6,1,-18,1,5,1,14,1,26,1,69,1,58,1,40,1,16,1,42,1
1091,17,1,22,1,5,1,-19,1,6,1,14,1,27,1,73,1,64,1,45,1,20,1,46,1
1092,20,1,25,1,5,1,-22,1,8,1,15,1,30,1,78,1,68,1,48,1,23,1,51,1
1093,20,1,26,1,6,1,-23,1,7,1,16,1,30,1,80,1,69,1,48,1,22,1,51,1
1094,21,1,31,1,10,1,-26,1,6,1,21,1,29,1,83,1,68,1,48,1,22,1,51,1
1095,23,1,35,1,12,1,-29,1,6,1,24,1,29,1,85,1,67,1,49,1,22,1,52,1
1096,23,1,33,1,10,1,-28,1,7,1,22,1,28,1,88,1,68,1,51,1,22,1,51,1
1097,25,1,33,1,8,1,-29,1,9,1,21,1,28,1,91,1,71,1,54,1,24,1,51,1
1098,26,1,32,1,6,1,-29,1,10,1,19,1,29,1,92,1,75,1,57,1,26,1,53,1
1099,25,1,31,1,6,1,-28,1,10,1,19,1,31,1,96,1,81,1,62,1,30,1,56,1
1100,26,1,32,1,6,1,-29,1,10,1,19,1,33,1,98,1,87,1,65,1,32,1,57,1
1101,28,1,33,1,5,1,-30,1,12,1,19,1,33,1,101,1,91,1,66,1,34,1,60,1
1102,31,1,37,1,6,1,-34,1,13,1,22,1,33,1,103,1,93,1,68,1,35,1,61,1
1103,34,1,41,1,7,1,-37,1,14,1,24,1,34,1,105,1,95,1,70,1,37,1,62,1
1104,34,1,43,1,9,1,-38,1,13,1,26,1,34,1,108,1,95,1,71,1,37,1,64,1
1105,36,1,47,1,11,1,-41,1,13,1,29,1,33,1,111,1,95,1,73,1,39,1,65,1
1106,37,1,47,1,10,1,-42,1,14,1,29,1,33,1,112,1,95,1,73,1,39,1,64,1
1107,38,1,46,1,8,1,-42,1,15,1,27,1,33,1,114,1,97,1,76,1,41,1,64,1
1108,38,1,46,1,8,1,-42,1,15,1,27,1,33,1,114,1,100,1,78,1,42,1,64,1
1109,34,1,44,1,10,1,-39,1,12,1,27,1,34,1,116,1,106,1,83,1,46,1,65,1
1110,35,1,42,1,7,1,-38,1,14,1,25,1,35,1,118,1,110,1,87,1,50,1,67,1
1111,36,1,41,1,5,1,-38,1,16,1,23,1,35,1,118,1,114,1,89,1,52,1,68,1
1112,39,1,45,1,6,1,-42,1,17,1,26,1,36,1,119,1,116,1,90,1,54,1,71,1
1113,42,1,50,1,8,1,-46,1,17,1,29,1,34,1,119,1,115,1,89,1,53,1,72,1
1114,41,1,52,1,11,1,-46,1,15,1,32,1,34,1,119,1,113,1,88,1,52,1,72,1
1115,42,1,54,1,12,1,-48,1,15,1,33,1,33,1,120,1,111,1,88,1,52,1,71,1
1116,43,1,57,1,14,1,-50,1,15,1,36,1,31,1,118,1,109,1,87,1,52,1,70,1
1117,43,1,57,1,14,1,-50,1,15,1,36,1,30,1,118,1,110,1,88,1,53,1,69,1
1118,42,1,54,1,12,1,-48,1,15,1,33,1,29,1,117,1,110,1,89,1,53,1,67,1
1119,40,1,51,1,11,1,-45,1,15,1,31,1,30,1,116,1,112,1,91,1,56,1,68,1
1120,38,1,48,1,10,1,-43,1,14,1,29,1,30,1,114,1,114,1,91,1,57,1,70,1
1121,36,1,49,1,13,1,-42,1,12,1,31,1,30,1,112,1,114,1,92,1,57,1,71,1
1122,39,1,56,1,17,1,-47,1,11,1,37,1,30,1,111,1,113,1,91,1,57,1,71,1
1123,43,1,60,1,17,1,-51,1,13,1,39,1,31,1,113,1,113,1,91,1,57,1,74,1
1124,45,1,59,1,14,1,-52,1,16,1,37,1,31,1,114,1,111,1,92,1,59,1,76,1
1125,46,1,61,1,15,1,-53,1,16,1,38,1,28,1,111,1,108,1,90,1,56,1,74,1
1126,42,1,62,1,20,1,-52,1,11,1,41,1,23,1,104,1,101,1,84,1,52,1,70,1
1127,41,1,60,1,19,1,-50,1,11,1,40,1,21,1,102,1,98,1,82,1,49,1,69,1
1128,40,1,57,1,17,1,-48,1,12,1,37,1,23,1,100,1,99,1,83,1,50,1,69,1
1129,40,1,56,1,16,1,-48,1,12,1,36,1,23,1,97,1,99,1,82,1,50,1,68,1
1130,36,1,51,1,15,1,-43,1,11,1,33,1,23,1,93,1,99,1,81,1,51,1,68,1
1131,33,1,48,1,15,1,-40,1,9,1,32,1,24,1,90,1,99,1,81,1,51,1,69,1
1132,31,1,51,1,20,1,-41,1,6,1,36,1,24,1,86,1,95,1,79,1,50,1,69,1
1133,31,1,52,1,21,1,-41,1,5,1,37,1,22,1,82,1,91,1,75,1,48,1,68,1
1134,32,1,52,1,20,1,-42,1,6,1,36,1,20,1,79,1,85,1,70,1,44,1,67,1
1135,34,1,55,1,21,1,-44,1,7,1,38,1,19,1,74,1,77,1,65,1,40,1,65,1
1136,31,1,54,1,23,1,-42,1,4,1,39,1,18,1,70,1,72,1,61,1,35,1,59,1
1137,29,1,51,1,22,1,-40,1,4,1,37,1,17,1,66,1,68,1,58,1,33,1,57,1
1138,26,1,46,1,20,1,-36,1,3,1,33,1,18,1,60,1,65,1,56,1,32,1,56,1
1139,23,1,41,1,18,1,-32,1,3,1,30,1,18,1,56,1,63,1,55,1,31,1,55,1
1140,20,1,37,1,17,1,-28,1,2,1,27,1,18,1,50,1,60,1,52,1,29,1,52,1
1141,17,1,37,1,20,1,-27,1,-1,1,29,1,16,1,45,1,58,1,49,1,27,1,51,1
1142,16,1,40,1,24,1,-28,1,-4,1,32,1,16,1,41,1,52,1,44,1,23,1,49,1
1143,14,1,38,1,24,1,-26,1,-5,1,31,1,15,1,35,1,44,1,38,1,19,1,47,1
1144,15,1,38,1,23,1,-26,1,-4,1,31,1,15,1,32,1,38,1,35,1,17,1,46,1
1145,13,1,35,1,22,1,-24,1,-4,1,29,1,12,1,29,1,33,1,31,1,13,1,44,1
1146,12,1,37,1,25,1,-24,1,-6,1,31,1,8,1,22,1,26,1,26,1,8,1,40,1
1147,9,1,34,1,25,1,-21,1,-8,1,30,1,7,1,18,1,22,1,22,1,5,1,37,1
1148,6,1,27,1,21,1,-16,1,-7,1,24,1,8,1,15,1,20,1,20,1,4,1,35,1
1149,1,1,18,1,17,1,-9,1,-8,1,18,1,8,1,11,1,18,1,18,1,2,1,34,1
1150,-2,1,16,1,18,1,-7,1,-10,1,17,1,8,1,6,1,16,1,16,1,1,1,32,1
1151,2,1,19,1,17,1,-10,1,-7,1,18,1,8,1,4,1,15,1,15,1,0,1,33,1
1152,1,1,18,1,17,1,-9,1,-8,1,18,1,6,1,0,1,11,1,11,1,-2,1,30,1
1153,1,1,20,1,19,1,-10,1,-9,1,20,1,4,1,-3,1,5,1,6,1,-6,1,28,1
1154,0,1,22,1,22,1,-11,1,-11,1,22,1,2,1,-6,1,0,1,2,1,-10,1,25,1
1155,-1,1,22,1,23,1,-10,1,-12,1,22,1,2,1,-8,1,-5,1,-1,1,-12,1,24,1
1156,-3,1,19,1,22,1,-8,1,-12,1,20,1,1,1,-10,1,-7,1,-3,1,-14,1,22,1
1157,-3,1,18,1,21,1,-7,1,-12,1,19,1,0,1,-13,1,-9,1,-4,1,-16,1,20,1
1158,-6,1,12,1,18,1,-3,1,-12,1,15,1,0,1,-15,1,-10,1,-6,1,-17,1,19,1
1159,-8,1,7,1,15,1,0,1,-11,1,11,1,0,1,-17,1,-10,1,-6,1,-17,1,17,1
1160,-10,1,3,1,13,1,3,1,-11,1,8,1,0,1,-21,1,-11,1,-7,1,-19,1,14,1
1161,-8,1,6,1,14,1,1,1,-11,1,10,1,1,1,-22,1,-11,1,-8,1,-19,1,15,1
1162,-7,1,6,1,13,1,0,1,-10,1,9,1,0,1,-23,1,-12,1,-9,1,-19,1,15,1
1163,-10,1,5,1,15,1,2,1,-12,1,10,1,0,1,-24,1,-15,1,-11,1,-21,1,14,1
1164,-8,1,9,1,17,1,0,1,-12,1,13,1,-1,1,-23,1,-17,1,-11,1,-22,1,13,1
1165,-9,1,9,1,18,1,0,1,-13,1,13,1,-3,1,-24,1,-20,1,-14,1,-23,1,12,1
1166,-7,1,8,1,15,1,0,1,-11,1,11,1,-6,1,-27,1,-24,1,-17,1,-25,1,8,1
1167,-6,1,9,1,15,1,-1,1,-10,1,12,1,-6,1,-28,1,-26,1,-19,1,-26,1,6,1
1168,-7,1,7,1,14,1,0,1,-10,1,10,1,-5,1,-29,1,-25,1,-17,1,-24,1,6,1
1169,-12,1,3,1,15,1,4,1,-13,1,9,1,-5,1,-29,1,-24,1,-16,1,-23,1,7,1
1170,-15,1,-2,1,13,1,8,1,-14,1,5,1,-3,1,-31,1,-23,1,-15,1,-22,1,6,1
1171,-12,1,0,1,12,1,6,1,-12,1,6,1,-2,1,-31,1,-21,1,-14,1,-20,1,8,1
1172,-12,1,2,1,14,1,5,1,-13,1,8,1,-2,1,-31,1,-21,1,-14,1,-20,1,9,1
1173,-14,1,2,1,16,1,6,1,-15,1,9,1,-3,1,-31,1,-22,1,-17,1,-22,1,7,1
1174,-12,1,6,1,18,1,3,1,-15,1,12,1,-3,1,-31,1,-25,1,-17,1,-22,1,7,1
1175,-10,1,8,1,18,1,1,1,-14,1,13,1,-5,1,-31,1,-28,1,-19,1,-24,1,4,1
1176,-9,1,7,1,16,1,1,1,-12,1,11,1,-6,1,-31,1,-28,1,-19,1,-25,1,3,1
1177,-12,1,2,1,14,1,5,1,-13,1,8,1,-6,1,-32,1,-29,1,-20,1,-25,1,1,1
1178,-12,1,1,1,13,1,5,1,-12,1,7,1,-7,1,-32,1,-28,1,-20,1,-25,1,1,1
1179,-13,1,0,1,13,1,6,1,-13,1,6,1,-7,1,-33,1,-27,1,-19,1,-25,1,0,1
1180,-15,1,-1,1,14,1,8,1,-15,1,6,1,-5,1,-33,1,-26,1,-19,1,-24,1,0,1
1181,-15,1,0,1,15,1,7,1,-15,1,7,1,-4,1,-33,1,-23,1,-18,1,-23,1,1,1
1182,-13,1,2,1,15,1,5,1,-14,1,8,1,-4,1,-33,1,-23,1,-18,1,-23,1,1,1
1183,-13,1,3,1,16,1,5,1,-14,1,9,1,-4,1,-32,1,-23,1,-18,1,-23,1,1,1
1184,-12,1,5,1,17,1,3,1,-14,1,11,1,-5,1,-31,1,-25,1,-20,1,-24,1,1,1
1185,-10,1,5,1,15,1,2,1,-12,1,10,1,-6,1,-30,1,-28,1,-21,1,-26,1,0,1
1186,-10,1,5,1,15,1,2,1,-12,1,10,1,-5,1,-30,1,-30,1,-23,1,-27,1,-1,1
1187,-11,1,7,1,18,1,2,1,-14,1,12,1,-6,1,-32,1,-31,1,-24,1,-29,1,-4,1
1188,-13,1,6,1,19,1,3,1,-16,1,12,1,-7,1,-34,1,-30,1,-23,1,-28,1,-6,1
1189,-15,1,-1,1,14,1,8,1,-15,1,6,1,-5,1,-31,1,-24,1,-18,1,-26,1,-4,1
1190,-14,1,-1,1,13,1,7,1,-14,1,6,1,-4,1,-31,1,-23,1,-18,1,-23,1,-3,1
1191,-15,1,0,1,15,1,7,1,-15,1,7,1,-5,1,-32,1,-22,1,-19,1,-22,1,-3,1
1192,-14,1,1,1,15,1,6,1,-14,1,8,1,-3,1,-31,1,-21,1,-18,1,-21,1,-2,1
1193,-10,1,5,1,15,1,2,1,-12,1,10,1,-2,1,-28,1,-21,1,-17,1,-20,1,0,1
1194,-10,1,7,1,17,1,1,1,-13,1,12,1,-3,1,-29,1,-24,1,-18,1,-21,1,0,1
1195,-8,1,9,1,17,1,0,1,-12,1,13,1,-4,1,-28,1,-27,1,-20,1,-23,1,0,1
1196,-7,1,9,1,16,1,-1,1,-11,1,12,1,-7,1,-29,1,-29,1,-22,1,-26,1,-3,1
1197,-5,1,10,1,15,1,-2,1,-10,1,12,1,-7,1,-29,1,-28,1,-22,1,-25,1,-2,1
1198,-7,1,5,1,12,1,1,1,-9,1,8,1,-7,1,-30,1,-27,1,-22,1,-25,1,-3,1
1199,-12,1,0,1,12,1,6,1,-12,1,6,1,-5,1,-30,1,-25,1,-19,1,-24,1,-5,1
1200,-10,1,-1,1,9,1,5,1,-10,1,4,1,-3,1,-28,1,-20,1,-17,1,-21,1,-2,1
1201,-8,1,2,1,10,1,3,1,-9,1,6,1,-2,1,-26,1,-17,1,-16,1,-19,1,-1,1
1202,-3,1,11,1,14,1,-4,1,-8,1,12,1,0,1,-25,1,-16,1,-16,1,-19,1,1,1
1203,-3,1,13,1,16,1,-5,1,-9,1,14,1,0,1,-25,1,-17,1,-17,1,-19,1,2,1
1204,-1,1,16,1,17,1,-7,1,-9,1,16,1,0,1,-24,1,-20,1,-19,1,-21,1,1,1
1205,-4,1,15,1,19,1,-5,1,-11,1,17,1,-1,1,-24,1,-23,1,-21,1,-24,1,-1,1
1206,-12,1,5,1,17,1,3,1,-14,1,11,1,-6,1,-28,1,-29,1,-26,1,-29,1,-8,1
1207,-8,1,6,1,14,1,1,1,-11,1,10,1,-6,1,-28,1,-28,1,-25,1,-28,1,-8,1
1208,-7,1,5,1,12,1,1,1,-9,1,8,1,-5,1,-28,1,-25,1,-22,1,-25,1,-8,1
1209,-13,1,0,1,13,1,6,1,-13,1,6,1,-3,1,-27,1,-22,1,-21,1,-24,1,-9,1
1210,-16,1,-3,1,13,1,9,1,-15,1,5,1,-3,1,-27,1,-21,1,-20,1,-23,1,-9,1
1211,-18,1,-6,1,12,1,12,1,-15,1,3,1,-2,1,-27,1,-19,1,-21,1,-22,1,-9,1
1212,-16,1,-3,1,13,1,9,1,-15,1,5,1,-2,1,-25,1,-20,1,-20,1,-22,1,-8,1
1213,-14,1,-1,1,13,1,7,1,-14,1,6,1,-1,1,-24,1,-20,1,-19,1,-22,1,-8,1
1214,-15,1,2,1,17,1,6,1,-16,1,9,1,-3,1,-26,1,-23,1,-21,1,-24,1,-9,1
1215,-10,1,7,1,17,1,1,1,-13,1,12,1,-4,1,-25,1,-26,1,-22,1,-26,1,-11,1
1216,-10,1,6,1,16,1,2,1,-13,1,11,1,-4,1,-25,1,-27,1,-23,1,-27,1,-12,1
1217,-11,1,6,1,17,1,2,1,-14,1,11,1,-3,1,-25,1,-28,1,-23,1,-27,1,-13,1
1218,-12,1,4,1,16,1,4,1,-14,1,10,1,-2,1,-26,1,-26,1,-21,1,-26,1,-14,1
1219,-13,1,2,1,15,1,5,1,-14,1,8,1,-2,1,-26,1,-23,1,-18,1,-23,1,-12,1
1220,-13,1,1,1,14,1,6,1,-13,1,7,1,-1,1,-26,1,-20,1,-17,1,-22,1,-10,1
1221,-16,1,-1,1,15,1,8,1,-16,1,7,1,-1,1,-25,1,-19,1,-19,1,-23,1,-13,1
1222,-13,1,1,1,14,1,6,1,-13,1,7,1,-1,1,-24,1,-20,1,-20,1,-24,1,-12,1
1223,-7,1,7,1,14,1,0,1,-10,1,10,1,-1,1,-24,1,-20,1,-19,1,-24,1,-11,1
1224,-10,1,7,1,17,1,1,1,-13,1,12,1,-2,1,-26,1,-25,1,-22,1,-27,1,-13,1
1225,-11,1,7,1,18,1,2,1,-14,1,12,1,-5,1,-27,1,-28,1,-24,1,-29,1,-14,1
1226,-11,1,7,1,18,1,2,1,-14,1,12,1,-6,1,-27,1,-29,1,-25,1,-28,1,-14,1
1227,-12,1,5,1,17,1,3,1,-14,1,11,1,-7,1,-27,1,-30,1,-25,1,-28,1,-14,1
1228,-11,1,2,1,13,1,4,1,-12,1,7,1,-7,1,-29,1,-30,1,-25,1,-29,1,-16,1
1229,-12,1,2,1,14,1,5,1,-13,1,8,1,-6,1,-30,1,-27,1,-24,1,-27,1,-16,1
1230,-14,1,1,1,15,1,6,1,-14,1,8,1,-5,1,-30,1,-25,1,-23,1,-27,1,-15,1
1231,-15,1,0,1,15,1,7,1,-15,1,7,1,-4,1,-28,1,-24,1,-23,1,-27,1,-15,1
1232,-15,1,0,1,15,1,7,1,-15,1,7,1,-2,1,-27,1,-23,1,-22,1,-26,1,-13,1
1233,-12,1,2,1,14,1,5,1,-13,1,8,1,-2,1,-26,1,-23,1,-22,1,-26,1,-12,1
1234,-10,1,1,1,11,1,4,1,-10,1,6,1,-3,1,-26,1,-26,1,-23,1,-27,1,-14,1
1235,-8,1,4,1,12,1,2,1,-10,1,8,1,-5,1,-28,1,-30,1,-26,1,-30,1,-17,1
1236,-7,1,5,1,12,1,1,1,-9,1,8,1,-6,1,-29,1,-32,1,-29,1,-30,1,-19,1
1237,-9,1,1,1,10,1,4,1,-9,1,5,1,-6,1,-29,1,-32,1,-28,1,-30,1,-21,1
1238,-11,1,0,1,11,1,5,1,-11,1,5,1,-7,1,-31,1,-32,1,-27,1,-30,1,-21,1
1239,-12,1,-3,1,9,1,7,1,-11,1,3,1,-7,1,-32,1,-30,1,-26,1,-28,1,-22,1
1240,-12,1,-4,1,8,1,8,1,-10,1,2,1,-6,1,-32,1,-28,1,-25,1,-27,1,-22,1
1241,-15,1,-5,1,10,1,10,1,-13,1,2,1,-6,1,-32,1,-26,1,-24,1,-25,1,-20,1
1242,-15,1,-4,1,11,1,9,1,-13,1,3,1,-5,1,-31,1,-26,1,-23,1,-25,1,-19,1
1243,-14,1,-1,1,13,1,7,1,-14,1,6,1,-5,1,-31,1,-28,1,-26,1,-26,1,-19,1
1244,-12,1,1,1,13,1,5,1,-12,1,7,1,-8,1,-31,1,-31,1,-28,1,-28,1,-22,1
1245,-8,1,6,1,14,1,1,1,-11,1,10,1,-7,1,-30,1,-32,1,-29,1,-29,1,-22,1
1246,-11,1,1,1,12,1,5,1,-11,1,6,1,-10,1,-32,1,-36,1,-32,1,-32,1,-27,1
1247,-11,1,1,1,12,1,5,1,-11,1,6,1,-11,1,-33,1,-36,1,-31,1,-32,1,-28,1
1248,-11,1,3,1,14,1,4,1,-12,1,8,1,-12,1,-35,1,-36,1,-31,1,-32,1,-29,1
1249,-16,1,0,1,16,1,8,1,-16,1,8,1,-11,1,-36,1,-34,1,-30,1,-32,1,-29,1
1250,-17,1,-3,1,14,1,10,1,-16,1,5,1,-9,1,-36,1,-32,1,-30,1,-31,1,-29,1
1251,-17,1,-5,1,12,1,11,1,-15,1,3,1,-8,1,-35,1,-29,1,-28,1,-27,1,-27,1
1252,-14,1,-3,1,11,1,8,1,-13,1,4,1,-7,1,-34,1,-28,1,-26,1,-26,1,-25,1
1253,-13,1,0,1,13,1,6,1,-13,1,6,1,-9,1,-35,1,-31,1,-29,1,-27,1,-26,1
1254,-11,1,2,1,13,1,4,1,-12,1,7,1,-11,1,-35,1,-33,1,-30,1,-28,1,-25,1
1255,-12,1,0,1,12,1,6,1,-12,1,6,1,-9,1,-34,1,-37,1,-31,1,-29,1,-26,1
1256,-12,1,1,1,13,1,5,1,-12,1,7,1,-11,1,-35,1,-39,1,-32,1,-30,1,-27,1
1257,-12,1,1,1,13,1,5,1,-12,1,7,1,-11,1,-35,1,-39,1,-32,1,-31,1,-28,1
1258,-13,1,-1,1,12,1,7,1,-13,1,5,1,-11,1,-36,1,-37,1,-30,1,-30,1,-28,1
1259,-14,1,-4,1,10,1,9,1,-12,1,3,1,-11,1,-37,1,-35,1,-28,1,-28,1,-29,1
1260,-18,1,-9,1,9,1,13,1,-14,1,0,1,-10,1,-37,1,-32,1,-28,1,-28,1,-27,1
1261,-18,1,-8,1,10,1,13,1,-14,1,1,1,-9,1,-36,1,-32,1,-27,1,-27,1,-26,1
1262,-14,1,-3,1,11,1,8,1,-13,1,4,1,-7,1,-35,1,-31,1,-27,1,-26,1,-24,1
1263,-14,1,-1,1,13,1,7,1,-14,1,6,1,-8,1,-36,1,-34,1,-29,1,-28,1,-24,1
1264,-11,1,0,1,11,1,5,1,-11,1,5,1,-9,1,-35,1,-36,1,-31,1,-29,1,-24,1
1265,-10,1,1,1,11,1,4,1,-10,1,6,1,-9,1,-36,1,-38,1,-33,1,-31,1,-24,1
1266,-14,1,-1,1,13,1,7,1,-14,1,6,1,-11,1,-37,1,-41,1,-34,1,-33,1,-27,1
1267,-15,1,-1,1,14,1,8,1,-15,1,6,1,-10,1,-38,1,-42,1,-34,1,-34,1,-28,1
1268,-15,1,-4,1,11,1,9,1,-13,1,3,1,-10,1,-39,1,-41,1,-35,1,-34,1,-30,1
1269,-18,1,-6,1,12,1,12,1,-15,1,3,1,-8,1,-39,1,-37,1,-32,1,-31,1,-27,1
1270,-19,1,-7,1,12,1,13,1,-16,1,2,1,-7,1,-38,1,-33,1,-29,1,-29,1,-25,1
1271,-18,1,-7,1,11,1,12,1,-15,1,2,1,-8,1,-38,1,-34,1,-30,1,-29,1,-25,1
1272,-15,1,-7,1,8,1,11,1,-12,1,0,1,-6,1,-37,1,-33,1,-29,1,-29,1,-24,1
1273,-11,1,-5,1,6,1,8,1,-9,1,0,1,-6,1,-36,1,-34,1,-29,1,-29,1,-21,1
1274,-11,1,-1,1,10,1,6,1,-11,1,4,1,-8,1,-37,1,-37,1,-32,1,-31,1,-22,1
1275,-9,1,3,1,12,1,3,1,-10,1,7,1,-10,1,-38,1,-39,1,-33,1,-33,1,-26,1
1276,-12,1,2,1,14,1,5,1,-13,1,8,1,-11,1,-38,1,-41,1,-34,1,-34,1,-29,1
1277,-13,1,0,1,13,1,6,1,-13,1,6,1,-12,1,-39,1,-41,1,-34,1,-35,1,-31,1
1278,-13,1,-2,1,11,1,7,1,-12,1,4,1,-12,1,-40,1,-41,1,-33,1,-34,1,-32,1
1279,-15,1,-5,1,10,1,10,1,-13,1,2,1,-10,1,-40,1,-37,1,-30,1,-31,1,-30,1
1280,-16,1,-5,1,11,1,10,1,-14,1,3,1,-8,1,-40,1,-34,1,-29,1,-30,1,-30,1
1281,-16,1,-2,1,14,1,9,1,-15,1,6,1,-9,1,-39,1,-34,1,-29,1,-29,1,-28,1
1282,-12,1,4,1,16,1,4,1,-14,1,10,1,-8,1,-38,1,-32,1,-28,1,-28,1,-27,1
1283,-11,1,5,1,16,1,3,1,-13,1,10,1,-9,1,-40,1,-35,1,-30,1,-30,1,-28,1
1284,-16,1,0,1,16,1,8,1,-16,1,8,1,-12,1,-43,1,-40,1,-35,1,-34,1,-31,1
1285,-11,1,3,1,14,1,4,1,-12,1,8,1,-10,1,-41,1,-41,1,-34,1,-33,1,-29,1
1286,-11,1,0,1,11,1,5,1,-11,1,5,1,-12,1,-40,1,-41,1,-34,1,-33,1,-29,1
1287,-13,1,-4,1,9,1,8,1,-11,1,2,1,-10,1,-39,1,-40,1,-33,1,-32,1,-29,1
1288,-14,1,-6,1,8,1,10,1,-11,1,1,1,-11,1,-40,1,-40,1,-33,1,-32,1,-30,1
1289,-17,1,-9,1,8,1,13,1,-13,1,-1,1,-11,1,-42,1,-39,1,-32,1,-32,1,-31,1
1290,-17,1,-10,1,7,1,13,1,-12,1,-2,1,-8,1,-42,1,-36,1,-31,1,-31,1,-31,1
1291,-19,1,-11,1,8,1,15,1,-14,1,-2,1,-6,1,-40,1,-32,1,-29,1,-30,1,-29,1
1292,-18,1,-10,1,8,1,14,1,-13,1,-1,1,-6,1,-39,1,-31,1,-29,1,-30,1,-27,1
1293,-15,1,-5,1,10,1,10,1,-13,1,2,1,-7,1,-39,1,-33,1,-30,1,-30,1,-26,1
1294,-12,1,0,1,12,1,6,1,-12,1,6,1,-8,1,-38,1,-35,1,-31,1,-31,1,-26,1
1295,-14,1,-1,1,13,1,7,1,-14,1,6,1,-10,1,-38,1,-38,1,-33,1,-33,1,-27,1
1296,-13,1,-2,1,11,1,7,1,-12,1,4,1,-12,1,-40,1,-40,1,-35,1,-36,1,-29,1
1297,-12,1,-3,1,9,1,7,1,-11,1,3,1,-11,1,-39,1,-40,1,-35,1,-36,1,-30,1
1298,-15,1,-8,1,7,1,11,1,-11,1,-1,1,-11,1,-41,1,-39,1,-34,1,-36,1,-30,1
1299,-14,1,-12,1,2,1,13,1,-8,1,-5,1,-11,1,-41,1,-36,1,-33,1,-35,1,-29,1
1300,-19,1,-12,1,7,1,15,1,-13,1,-3,1,-9,1,-39,1,-33,1,-31,1,-31,1,-25,1
1301,-18,1,-8,1,10,1,13,1,-14,1,1,1,-11,1,-40,1,-33,1,-32,1,-33,1,-23,1
1302,-16,1,-4,1,12,1,10,1,-14,1,4,1,-11,1,-41,1,-35,1,-33,1,-33,1,-23,1
1303,-16,1,-1,1,15,1,8,1,-16,1,7,1,-11,1,-41,1,-37,1,-35,1,-33,1,-23,1
1304,-14,1,3,1,17,1,5,1,-15,1,10,1,-12,1,-40,1,-38,1,-35,1,-34,1,-21,1
1305,-11,1,2,1,13,1,4,1,-12,1,7,1,-12,1,-39,1,-39,1,-35,1,-34,1,-23,1
1306,-10,1,2,1,12,1,4,1,-11,1,7,1,-13,1,-38,1,-40,1,-35,1,-34,1,-23,1
1307,-13,1,-3,1,10,1,8,1,-12,1,3,1,-14,1,-38,1,-40,1,-35,1,-35,1,-23,1
1308,-15,1,-6,1,9,1,10,1,-12,1,1,1,-14,1,-40,1,-39,1,-32,1,-34,1,-24,1
1309,-16,1,-7,1,9,1,11,1,-13,1,1,1,-12,1,-41,1,-36,1,-32,1,-34,1,-24,1
1310,-16,1,-9,1,7,1,12,1,-12,1,-1,1,-10,1,-40,1,-34,1,-30,1,-33,1,-22,1
1311,-16,1,-8,1,8,1,12,1,-12,1,0,1,-10,1,-40,1,-33,1,-30,1,-32,1,-21,1
1312,-16,1,-6,1,10,1,11,1,-13,1,2,1,-9,1,-38,1,-31,1,-29,1,-31,1,-21,1
1313,-14,1,-4,1,10,1,9,1,-12,1,3,1,-10,1,-38,1,-32,1,-31,1,-32,1,-22,1
1314,-13,1,0,1,13,1,6,1,-13,1,6,1,-9,1,-37,1,-35,1,-32,1,-34,1,-21,1
1315,-13,1,0,1,13,1,6,1,-13,1,6,1,-12,1,-37,1,-39,1,-35,1,-37,1,-25,1
1316,-12,1,2,1,14,1,5,1,-13,1,8,1,-12,1,-38,1,-41,1,-37,1,-38,1,-27,1
1317,-14,1,0,1,14,1,7,1,-14,1,7,1,-13,1,-40,1,-42,1,-37,1,-39,1,-27,1
1318,-15,1,-4,1,11,1,9,1,-13,1,3,1,-12,1,-42,1,-41,1,-36,1,-38,1,-28,1
1319,-15,1,-5,1,10,1,10,1,-13,1,2,1,-11,1,-41,1,-38,1,-33,1,-35,1,-26,1
1320,-18,1,-8,1,10,1,13,1,-14,1,1,1,-10,1,-40,1,-34,1,-32,1,-33,1,-25,1
1321,-19,1,-9,1,10,1,14,1,-15,1,0,1,-10,1,-40,1,-33,1,-32,1,-33,1,-25,1
1322,-17,1,-6,1,11,1,11,1,-14,1,2,1,-9,1,-38,1,-32,1,-31,1,-34,1,-24,1
1323,-15,1,-4,1,11,1,9,1,-13,1,3,1,-10,1,-38,1,-33,1,-33,1,-35,1,-22,1
1324,-15,1,-5,1,10,1,10,1,-13,1,2,1,-10,1,-37,1,-36,1,-34,1,-36,1,-22,1
1325,-14,1,-3,1,11,1,8,1,-13,1,4,1,-12,1,-38,1,-39,1,-36,1,-38,1,-24,1
1326,-12,1,-1,1,11,1,6,1,-12,1,5,1,-12,1,-37,1,-40,1,-36,1,-38,1,-24,1
1327,-12,1,-2,1,10,1,7,1,-11,1,4,1,-14,1,-39,1,-40,1,-36,1,-38,1,-25,1
1328,-13,1,-4,1,9,1,8,1,-11,1,2,1,-14,1,-40,1,-38,1,-35,1,-37,1,-25,1
1329,-14,1,-6,1,8,1,10,1,-11,1,1,1,-13,1,-40,1,-35,1,-34,1,-35,1,-24,1
1330,-16,1,-8,1,8,1,12,1,-12,1,0,1,-12,1,-40,1,-33,1,-33,1,-34,1,-23,1
1331,-17,1,-9,1,8,1,13,1,-13,1,-1,1,-11,1,-39,1,-31,1,-32,1,-33,1,-22,1
1332,-16,1,-7,1,9,1,11,1,-13,1,1,1,-11,1,-39,1,-32,1,-32,1,-33,1,-20,1
1333,-14,1,-4,1,10,1,9,1,-12,1,3,1,-10,1,-38,1,-33,1,-34,1,-35,1,-21,1
1334,-10,1,-1,1,9,1,5,1,-10,1,4,1,-11,1,-38,1,-36,1,-35,1,-36,1,-21,1
1335,-9,1,1,1,10,1,4,1,-9,1,5,1,-12,1,-36,1,-38,1,-36,1,-36,1,-22,1
1336,-9,1,2,1,11,1,3,1,-10,1,6,1,-11,1,-36,1,-38,1,-34,1,-36,1,-23,1
1337,-8,1,2,1,10,1,3,1,-9,1,6,1,-9,1,-34,1,-36,1,-33,1,-35,1,-24,1
1338,-5,1,5,1,10,1,0,1,-7,1,7,1,-9,1,-33,1,-32,1,-30,1,-34,1,-23,1
1339,-13,1,-5,1,8,1,9,1,-11,1,1,1,-9,1,-36,1,-31,1,-31,1,-35,1,-24,1
1340,-12,1,-4,1,8,1,8,1,-10,1,2,1,-7,1,-35,1,-28,1,-29,1,-32,1,-23,1
1341,-18,1,-8,1,10,1,13,1,-14,1,1,1,-9,1,-38,1,-30,1,-31,1,-34,1,-25,1
1342,-20,1,-9,1,11,1,14,1,-16,1,1,1,-13,1,-40,1,-32,1,-33,1,-35,1,-24,1
1343,-15,1,-5,1,10,1,10,1,-13,1,2,1,-12,1,-37,1,-31,1,-32,1,-34,1,-22,1
1344,-12,1,-2,1,10,1,7,1,-11,1,4,1,-11,1,-36,1,-32,1,-31,1,-33,1,-19,1
1345,-10,1,1,1,11,1,4,1,-10,1,6,1,-11,1,-34,1,-33,1,-31,1,-33,1,-19,1
1346,-9,1,1,1,10,1,4,1,-9,1,5,1,-11,1,-36,1,-36,1,-32,1,-35,1,-20,1
1347,-9,1,-1,1,8,1,5,1,-9,1,3,1,-9,1,-34,1,-35,1,-32,1,-35,1,-20,1
1348,-13,1,-8,1,5,1,10,1,-9,1,-2,1,-7,1,-33,1,-33,1,-32,1,-35,1,-21,1
1349,-10,1,-8,1,2,1,9,1,-6,1,-3,1,-8,1,-33,1,-30,1,-30,1,-33,1,-19,1
1350,-9,1,-5,1,4,1,7,1,-7,1,-1,1,-7,1,-31,1,-27,1,-28,1,-30,1,-16,1
1351,-9,1,-4,1,5,1,6,1,-7,1,0,1,-5,1,-31,1,-24,1,-25,1,-28,1,-13,1
1352,-8,1,-2,1,6,1,5,1,-7,1,2,1,-4,1,-28,1,-21,1,-24,1,-25,1,-9,1
1353,-4,1,1,1,5,1,1,1,-4,1,3,1,-5,1,-27,1,-21,1,-23,1,-25,1,-6,1
1354,0,1,4,1,4,1,-2,1,-2,1,4,1,-7,1,-26,1,-23,1,-24,1,-25,1,-5,1
1355,2,1,5,1,3,1,-3,1,0,1,4,1,-9,1,-26,1,-28,1,-26,1,-29,1,-6,1
1356,1,1,8,1,7,1,-4,1,-3,1,8,1,-13,1,-29,1,-31,1,-29,1,-32,1,-7,1
1357,1,1,8,1,7,1,-4,1,-3,1,8,1,-14,1,-29,1,-31,1,-29,1,-32,1,-9,1
1358,0,1,1,1,1,1,0,1,0,1,1,1,-12,1,-28,1,-28,1,-26,1,-30,1,-6,1
1359,-1,1,-1,1,0,1,1,1,-1,1,-1,1,-12,1,-27,1,-24,1,-23,1,-27,1,-5,1
1360,0,1,2,1,2,1,-1,1,-1,1,2,1,-12,1,-29,1,-21,1,-21,1,-23,1,-3,1
1361,1,1,7,1,6,1,-4,1,-2,1,7,1,-12,1,-28,1,-18,1,-19,1,-21,1,0,1
1362,3,1,11,1,8,1,-7,1,-2,1,10,1,-13,1,-28,1,-18,1,-19,1,-21,1,3,1
1363,5,1,11,1,6,1,-8,1,0,1,9,1,-11,1,-26,1,-18,1,-19,1,-22,1,4,1
1364,3,1,9,1,6,1,-6,1,-1,1,8,1,-13,1,-29,1,-22,1,-23,1,-26,1,2,1
1365,1,1,8,1,7,1,-4,1,-3,1,8,1,-17,1,-32,1,-29,1,-27,1,-29,1,0,1
1366,2,1,9,1,7,1,-5,1,-2,1,8,1,-19,1,-33,1,-31,1,-28,1,-30,1,-1,1
1367,2,1,4,1,2,1,-3,1,0,1,3,1,-20,1,-34,1,-31,1,-29,1,-32,1,-3,1
1368,1,1,1,1,0,1,-1,1,1,1,1,1,-20,1,-35,1,-30,1,-28,1,-31,1,-4,1
1369,0,1,0,1,0,1,0,1,0,1,0,1,-18,1,-34,1,-26,1,-26,1,-28,1,-2,1
1370,-1,1,0,1,1,1,0,1,-1,1,0,1,-17,1,-34,1,-24,1,-23,1,-26,1,0,1
1371,-2,1,1,1,3,1,0,1,-2,1,2,1,-17,1,-33,1,-22,1,-23,1,-25,1,1,1
1372,0,1,3,1,3,1,-1,1,-1,1,3,1,-16,1,-30,1,-21,1,-22,1,-24,1,5,1
1373,3,1,8,1,5,1,-5,1,-1,1,7,1,-16,1,-31,1,-23,1,-23,1,-24,1,7,1
1374,5,1,9,1,4,1,-7,1,1,1,7,1,-20,1,-33,1,-28,1,-25,1,-26,1,4,1
1375,4,1,8,1,4,1,-6,1,0,1,6,1,-21,1,-34,1,-32,1,-28,1,-30,1,3,1
1376,6,1,9,1,3,1,-7,1,2,1,6,1,-22,1,-34,1,-33,1,-29,1,-30,1,1,1
1377,6,1,7,1,1,1,-6,1,3,1,4,1,-22,1,-34,1,-32,1,-28,1,-29,1,1,1
1378,1,1,0,1,-1,1,0,1,1,1,0,1,-23,1,-37,1,-33,1,-29,1,-31,1,-1,1
1379,1,1,-3,1,-4,1,1,1,2,1,-3,1,-23,1,-38,1,-31,1,-28,1,-30,1,-1,1
1380,-3,1,-5,1,-2,1,4,1,-1,1,-4,1,-20,1,-37,1,-28,1,-27,1,-28,1,0,1
1381,-4,1,-4,1,0,1,4,1,-2,1,-2,1,-17,1,-34,1,-26,1,-25,1,-26,1,2,1
1382,-3,1,-1,1,2,1,2,1,-3,1,0,1,-16,1,-34,1,-25,1,-25,1,-27,1,2,1
1383,-2,1,1,1,3,1,0,1,-2,1,2,1,-17,1,-33,1,-25,1,-24,1,-27,1,3,1
1384,-2,1,1,1,3,1,0,1,-2,1,2,1,-18,1,-32,1,-27,1,-25,1,-28,1,3,1
1385,-2,1,1,1,3,1,0,1,-2,1,2,1,-19,1,-34,1,-31,1,-28,1,-30,1,1,1
1386,-5,1,1,1,6,1,2,1,-5,1,3,1,-18,1,-33,1,-33,1,-30,1,-32,1,-1,1
1387,-8,1,-1,1,7,1,4,1,-8,1,3,1,-17,1,-33,1,-32,1,-29,1,-32,1,-2,1
1388,-9,1,-4,1,5,1,6,1,-7,1,0,1,-15,1,-31,1,-30,1,-28,1,-31,1,-3,1
1389,-11,1,-6,1,5,1,8,1,-8,1,-1,1,-10,1,-29,1,-25,1,-25,1,-30,1,-2,1
1390,-15,1,-10,1,5,1,12,1,-10,1,-3,1,-11,1,-30,1,-26,1,-25,1,-30,1,-4,1
1391,-16,1,-12,1,4,1,14,1,-10,1,-4,1,-11,1,-33,1,-27,1,-28,1,-32,1,-5,1
1392,-17,1,-12,1,5,1,14,1,-11,1,-4,1,-14,1,-36,1,-31,1,-31,1,-34,1,-6,1
1393,-16,1,-8,1,8,1,12,1,-12,1,0,1,-14,1,-37,1,-33,1,-34,1,-35,1,-5,1
1394,-13,1,-7,1,6,1,10,1,-10,1,-1,1,-16,1,-38,1,-36,1,-34,1,-35,1,-4,1
1395,-13,1,-5,1,8,1,9,1,-11,1,1,1,-16,1,-37,1,-38,1,-35,1,-36,1,-4,1
1396,-14,1,-4,1,10,1,9,1,-12,1,3,1,-16,1,-37,1,-40,1,-37,1,-38,1,-7,1
1397,-16,1,-8,1,8,1,12,1,-12,1,0,1,-17,1,-39,1,-40,1,-36,1,-37,1,-7,1
1398,-16,1,-8,1,8,1,12,1,-12,1,0,1,-15,1,-39,1,-38,1,-36,1,-37,1,-8,1
1399,-16,1,-10,1,6,1,13,1,-11,1,-2,1,-13,1,-39,1,-34,1,-34,1,-36,1,-6,1
1400,-20,1,-17,1,3,1,18,1,-12,1,-7,1,-13,1,-37,1,-32,1,-32,1,-35,1,-5,1
1401,-19,1,-17,1,2,1,18,1,-11,1,-8,1,-12,1,-37,1,-30,1,-32,1,-33,1,-4,1
1402,-17,1,-14,1,3,1,15,1,-10,1,-6,1,-13,1,-37,1,-31,1,-33,1,-34,1,-1,1
1403,-14,1,-9,1,5,1,11,1,-10,1,-2,1,-14,1,-36,1,-34,1,-34,1,-34,1,-1,1
1404,-15,1,-8,1,7,1,11,1,-11,1,-1,1,-16,1,-38,1,-37,1,-34,1,-36,1,-3,1
1405,-13,1,-2,1,11,1,7,1,-12,1,4,1,-15,1,-37,1,-39,1,-37,1,-40,1,-6,1
1406,-11,1,-3,1,8,1,7,1,-10,1,2,1,-15,1,-36,1,-40,1,-38,1,-41,1,-5,1
1407,-14,1,-9,1,5,1,11,1,-10,1,-2,1,-15,1,-35,1,-39,1,-39,1,-41,1,-6,1
1408,-15,1,-11,1,4,1,13,1,-10,1,-4,1,-14,1,-36,1,-37,1,-37,1,-42,1,-7,1
1409,-16,1,-12,1,4,1,14,1,-10,1,-4,1,-13,1,-37,1,-35,1,-36,1,-38,1,-7,1
1410,-21,1,-16,1,5,1,18,1,-13,1,-6,1,-12,1,-37,1,-33,1,-36,1,-37,1,-7,1
1411,-21,1,-16,1,5,1,18,1,-13,1,-6,1,-11,1,-36,1,-31,1,-32,1,-34,1,-5,1
1412,-22,1,-15,1,7,1,18,1,-15,1,-4,1,-10,1,-34,1,-30,1,-32,1,-33,1,-1,1
1413,-18,1,-8,1,10,1,13,1,-14,1,1,1,-10,1,-33,1,-31,1,-31,1,-34,1,0,1
1414,-18,1,-1,1,17,1,9,1,-18,1,8,1,-9,1,-32,1,-34,1,-34,1,-37,1,-5,1
1415,-22,1,0,1,22,1,11,1,-22,1,11,1,-5,1,-28,1,-34,1,-36,1,-40,1,-7,1
1416,-24,1,-3,1,21,1,13,1,-23,1,9,1,2,1,-19,1,-32,1,-37,1,-41,1,-8,1
1417,-23,1,-3,1,20,1,13,1,-22,1,8,1,14,1,-9,1,-27,1,-33,1,-37,1,-6,1
1418,-24,1,-3,1,21,1,13,1,-23,1,9,1,19,1,0,1,-19,1,-27,1,-34,1,-5,1
1419,-24,1,-3,1,21,1,13,1,-23,1,9,1,21,1,8,1,-10,1,-21,1,-28,1,-3,1
1420,-16,1,-3,1,13,1,9,1,-15,1,5,1,28,1,25,1,6,1,-10,1,-22,1,3,1
1421,-8,1,-5,1,3,1,6,1,-6,1,-1,1,38,1,55,1,29,1,5,1,-11,1,9,1
1422,3,1,1,1,-2,1,-2,1,3,1,0,1,52,1,87,1,53,1,24,1,3,1,19,1
1423,18,1,18,1,0,1,-18,1,9,1,9,1,62,1,119,1,86,1,53,1,23,1,33,1
1424,33,1,33,1,0,1,-33,1,17,1,17,1,68,1,153,1,125,1,86,1,47,1,49,1
1425,49,1,48,1,-1,1,-48,1,25,1,24,1,59,1,175,1,163,1,120,1,73,1,66,1
1426,71,1,64,1,-7,1,-67,1,39,1,29,1,37,1,188,1,204,1,161,1,105,1,87,1
1427,89,1,79,1,-10,1,-84,1,50,1,35,1,8,1,187,1,241,1,199,1,136,1,108,1
1428,108,1,101,1,-7,1,-104,1,58,1,47,1,-32,1,171,1,271,1,238,1,170,1,135,1
1429,128,1,125,1,-3,1,-126,1,66,1,61,1,-84,1,125,1,281,1,263,1,200,1,161,1
1430,140,1,144,1,4,1,-142,1,68,1,74,1,-130,1,81,1,288,1,283,1,223,1,182,1
1431,143,1,150,1,7,1,-146,1,68,1,79,1,-161,1,45,1,287,1,290,1,233,1,191,1
1432,138,1,142,1,4,1,-140,1,67,1,73,1,-173,1,19,1,284,1,287,1,228,1,189,1
1433,125,1,117,1,-8,1,-121,1,67,1,55,1,-170,1,3,1,267,1,261,1,202,1,170,1
1434,109,1,98,1,-11,1,-103,1,60,1,44,1,-172,1,-26,1,225,1,219,1,168,1,149,1
1435,91,1,83,1,-8,1,-87,1,50,1,38,1,-181,1,-68,1,164,1,164,1,128,1,127,1
1436,69,1,68,1,-1,1,-68,1,35,1,34,1,-183,1,-114,1,94,1,104,1,84,1,99,1
1437,43,1,45,1,2,1,-44,1,21,1,24,1,-185,1,-165,1,17,1,41,1,40,1,72,1
1438,16,1,22,1,6,1,-19,1,5,1,14,1,-185,1,-232,1,-76,1,-26,1,-5,1,43,1
1439,-7,1,5,1,12,1,1,1,-9,1,8,1,-184,1,-286,1,-152,1,-82,1,-40,1,19,1
1440,-22,1,-6,1,16,1,14,1,-19,1,5,1,-192,1,-314,1,-197,1,-118,1,-63,1,4,1
1441,-33,1,-8,1,25,1,20,1,-29,1,8,1,-187,1,-312,1,-207,1,-129,1,-74,1,-4,1
1442,-39,1,-9,1,30,1,24,1,-35,1,10,1,-176,1,-292,1,-200,1,-132,1,-81,1,-10,1
1443,-46,1,-9,1,37,1,27,1,-42,1,14,1,-167,1,-275,1,-196,1,-137,1,-91,1,-18,1
1444,-48,1,-11,1,37,1,29,1,-43,1,13,1,-164,1,-262,1,-191,1,-137,1,-95,1,-22,1
1445,-52,1,-20,1,32,1,36,1,-42,1,6,1,-160,1,-245,1,-185,1,-136,1,-99,1,-26,1
1446,-54,1,-23,1,31,1,38,1,-43,1,4,1,-151,1,-222,1,-172,1,-131,1,-99,1,-31,1
1447,-52,1,-21,1,31,1,36,1,-42,1,5,1,-135,1,-196,1,-154,1,-119,1,-95,1,-29,1
1448,-50,1,-19,1,31,1,34,1,-41,1,6,1,-124,1,-174,1,-134,1,-105,1,-84,1,-26,1
1449,-45,1,-15,1,30,1,30,1,-38,1,7,1,-109,1,-151,1,-112,1,-90,1,-73,1,-20,1
1450,-43,1,-11,1,32,1,27,1,-38,1,10,1,-90,1,-129,1,-93,1,-76,1,-63,1,-14,1
1451,-39,1,-5,1,34,1,22,1,-37,1,14,1,-72,1,-106,1,-72,1,-61,1,-52,1,-7,1
1452,-30,1,2,1,32,1,14,1,-31,1,17,1,-55,1,-81,1,-54,1,-48,1,-42,1,-1,1
1453,-23,1,9,1,32,1,7,1,-27,1,20,1,-42,1,-63,1,-44,1,-38,1,-37,1,3,1
1454,-19,1,12,1,31,1,3,1,-25,1,21,1,-34,1,-53,1,-38,1,-35,1,-35,1,5,1
1455,-15,1,12,1,27,1,1,1,-21,1,19,1,-27,1,-43,1,-34,1,-32,1,-35,1,5,1
1456,-9,1,11,1,20,1,-1,1,-14,1,15,1,-23,1,-34,1,-30,1,-30,1,-34,1,4,1
1457,-9,1,3,1,12,1,3,1,-10,1,7,1,-17,1,-27,1,-25,1,-26,1,-32,1,3,1
1458,-12,1,-4,1,8,1,8,1,-10,1,2,1,-12,1,-19,1,-20,1,-22,1,-31,1,4,1
1459,-15,1,-7,1,8,1,11,1,-12,1,0,1,-10,1,-19,1,-17,1,-21,1,-29,1,2,1
1460,-19,1,-8,1,11,1,13,1,-15,1,1,1,-7,1,-17,1,-13,1,-18,1,-26,1,5,1
1461,-14,1,-4,1,10,1,9,1,-12,1,3,1,-4,1,-15,1,-11,1,-17,1,-25,1,8,1
1462,-12,1,-1,1,11,1,6,1,-12,1,5,1,-3,1,-13,1,-9,1,-16,1,-25,1,9,1
1463,-11,1,-1,1,10,1,6,1,-11,1,4,1,-2,1,-9,1,-10,1,-16,1,-26,1,9,1
1464,-9,1,1,1,10,1,4,1,-9,1,5,1,-3,1,-8,1,-11,1,-18,1,-26,1,10,1
1465,-7,1,4,1,11,1,1,1,-9,1,7,1,-3,1,-7,1,-11,1,-18,1,-27,1,9,1
1466,-8,1,3,1,11,1,2,1,-9,1,7,1,-4,1,-6,1,-13,1,-19,1,-29,1,8,1
1467,-8,1,0,1,8,1,4,1,-8,1,4,1,-3,1,-5,1,-12,1,-19,1,-29,1,8,1
1468,-8,1,-1,1,7,1,4,1,-8,1,3,1,-1,1,-3,1,-9,1,-16,1,-27,1,8,1
1469,-7,1,-2,1,5,1,4,1,-6,1,1,1,0,1,-2,1,-5,1,-13,1,-24,1,8,1
1470,-9,1,-3,1,6,1,6,1,-8,1,1,1,1,1,-1,1,-1,1,-12,1,-22,1,10,1
1471,-11,1,-4,1,7,1,7,1,-9,1,1,1,2,1,0,1,0,1,-11,1,-21,1,11,1
1472,-11,1,-3,1,8,1,7,1,-10,1,2,1,4,1,2,1,1,1,-10,1,-21,1,13,1
1473,-9,1,1,1,10,1,4,1,-9,1,5,1,4,1,1,1,0,1,-11,1,-22,1,13,1
1474,-6,1,7,1,13,1,0,1,-9,1,10,1,2,1,1,1,-3,1,-13,1,-25,1,11,1
1475,-4,1,8,1,12,1,-2,1,-8,1,10,1,2,1,3,1,-4,1,-13,1,-24,1,12,1
1476,-2,1,7,1,9,1,-2,1,-5,1,8,1,3,1,6,1,-4,1,-12,1,-23,1,11,1
1477,-7,1,1,1,8,1,3,1,-7,1,4,1,1,1,5,1,-5,1,-13,1,-25,1,8,1
1478,-7,1,-1,1,6,1,4,1,-7,1,2,1,2,1,4,1,-2,1,-11,1,-23,1,8,1
1479,-7,1,-2,1,5,1,4,1,-6,1,1,1,4,1,6,1,2,1,-7,1,-20,1,10,1
1480,-8,1,-4,1,4,1,6,1,-6,1,0,1,7,1,8,1,5,1,-4,1,-17,1,11,1
1481,-7,1,-1,1,6,1,4,1,-7,1,2,1,5,1,8,1,6,1,-4,1,-17,1,12,1
1482,-9,1,0,1,9,1,4,1,-9,1,4,1,5,1,9,1,6,1,-4,1,-18,1,14,1
1483,-8,1,5,1,13,1,1,1,-10,1,9,1,4,1,9,1,4,1,-4,1,-20,1,14,1
1484,-4,1,9,1,13,1,-2,1,-8,1,11,1,2,1,9,1,3,1,-5,1,-20,1,14,1
1485,-1,1,10,1,11,1,-4,1,-6,1,10,1,1,1,10,1,0,1,-7,1,-21,1,14,1
1486,-1,1,11,1,12,1,-5,1,-6,1,11,1,2,1,12,1,0,1,-6,1,-21,1,13,1
1487,-2,1,13,1,15,1,-5,1,-8,1,14,1,2,1,11,1,0,1,-6,1,-21,1,11,1
1488,0,1,12,1,12,1,-6,1,-6,1,12,1,2,1,11,1,1,1,-5,1,-20,1,10,1
1489,-1,1,6,1,7,1,-2,1,-4,1,6,1,4,1,12,1,6,1,-1,1,-17,1,11,1
1490,-8,1,0,1,8,1,4,1,-8,1,4,1,6,1,13,1,9,1,0,1,-16,1,12,1
1491,-7,1,0,1,7,1,3,1,-7,1,3,1,8,1,15,1,11,1,1,1,-16,1,13,1
1492,-2,1,2,1,4,1,0,1,-3,1,3,1,8,1,18,1,14,1,2,1,-15,1,14,1
1493,-3,1,4,1,7,1,0,1,-5,1,5,1,9,1,20,1,14,1,3,1,-13,1,17,1
1494,-1,1,5,1,6,1,-2,1,-3,1,5,1,7,1,20,1,12,1,1,1,-16,1,15,1
1495,2,1,10,1,8,1,-6,1,-3,1,9,1,6,1,21,1,10,1,1,1,-17,1,14,1
1496,2,1,13,1,11,1,-7,1,-4,1,12,1,7,1,22,1,10,1,1,1,-16,1,15,1
1497,1,1,11,1,10,1,-6,1,-4,1,11,1,7,1,23,1,11,1,2,1,-15,1,14,1
1498,-1,1,7,1,8,1,-3,1,-4,1,7,1,8,1,24,1,14,1,4,1,-14,1,11,1
1499,0,1,6,1,6,1,-3,1,-3,1,6,1,9,1,25,1,17,1,7,1,-12,1,11,1
1500,1,1,7,1,6,1,-4,1,-2,1,7,1,13,1,27,1,22,1,11,1,-7,1,14,1
1501,-5,1,3,1,8,1,1,1,-6,1,5,1,11,1,27,1,23,1,11,1,-8,1,12,1
1502,-4,1,5,1,9,1,0,1,-6,1,7,1,11,1,28,1,24,1,10,1,-8,1,13,1
1503,0,1,8,1,8,1,-4,1,-4,1,8,1,12,1,31,1,24,1,9,1,-8,1,13,1
1504,2,1,11,1,9,1,-6,1,-3,1,10,1,12,1,33,1,21,1,9,1,-9,1,13,1
1505,3,1,13,1,10,1,-8,1,-3,1,12,1,11,1,34,1,21,1,11,1,-10,1,12,1
1506,4,1,14,1,10,1,-9,1,-3,1,12,1,12,1,35,1,21,1,12,1,-9,1,13,1
1507,4,1,14,1,10,1,-9,1,-3,1,12,1,11,1,36,1,22,1,12,1,-8,1,12,1
1508,4,1,12,1,8,1,-8,1,-2,1,10,1,10,1,35,1,24,1,13,1,-8,1,10,1
1509,4,1,10,1,6,1,-7,1,-1,1,8,1,11,1,36,1,27,1,15,1,-6,1,11,1
1510,2,1,8,1,6,1,-5,1,-2,1,7,1,13,1,40,1,32,1,19,1,-3,1,14,1
1511,2,1,8,1,6,1,-5,1,-2,1,7,1,15,1,42,1,35,1,21,1,0,1,17,1
1512,4,1,9,1,5,1,-6,1,0,1,7,1,15,1,45,1,37,1,21,1,0,1,19,1
1513,9,1,14,1,5,1,-11,1,2,1,10,1,14,1,47,1,38,1,23,1,1,1,21,1
1514,11,1,18,1,7,1,-14,1,2,1,13,1,15,1,48,1,36,1,22,1,0,1,21,1
1515,13,1,22,1,9,1,-17,1,2,1,16,1,14,1,50,1,36,1,22,1,0,1,20,1
1516,14,1,22,1,8,1,-18,1,3,1,15,1,14,1,52,1,36,1,24,1,0,1,19,1
1517,15,1,19,1,4,1,-17,1,6,1,12,1,14,1,54,1,37,1,25,1,0,1,17,1
1518,11,1,14,1,3,1,-12,1,4,1,9,1,15,1,56,1,41,1,28,1,3,1,18,1
1519,7,1,11,1,4,1,-9,1,2,1,8,1,16,1,57,1,45,1,30,1,5,1,18,1
1520,7,1,13,1,6,1,-10,1,1,1,10,1,19,1,60,1,50,1,34,1,8,1,20,1
1521,8,1,16,1,8,1,-12,1,0,1,12,1,21,1,63,1,54,1,36,1,11,1,23,1
1522,11,1,17,1,6,1,-14,1,3,1,12,1,22,1,66,1,56,1,38,1,13,1,26,1
1523,14,1,20,1,6,1,-17,1,4,1,13,1,22,1,68,1,56,1,39,1,13,1,28,1
1524,17,1,23,1,6,1,-20,1,6,1,15,1,22,1,71,1,56,1,39,1,14,1,28,1
1525,19,1,25,1,6,1,-22,1,7,1,16,1,21,1,74,1,57,1,41,1,13,1,27,1
1526,20,1,29,1,9,1,-24,1,6,1,19,1,20,1,75,1,57,1,41,1,12,1,24,1
1527,21,1,28,1,7,1,-24,1,7,1,18,1,22,1,77,1,60,1,45,1,14,1,23,1
1528,21,1,24,1,3,1,-22,1,9,1,14,1,21,1,79,1,64,1,47,1,17,1,22,1
1529,21,1,24,1,3,1,-22,1,9,1,14,1,22,1,82,1,69,1,52,1,20,1,24,1
1530,22,1,24,1,2,1,-23,1,10,1,13,1,24,1,86,1,75,1,55,1,24,1,27,1
1531,20,1,24,1,4,1,-22,1,8,1,14,1,25,1,88,1,79,1,57,1,27,1,28,1
1532,21,1,27,1,6,1,-24,1,8,1,17,1,25,1,90,1,81,1,59,1,27,1,28,1
1533,26,1,37,1,11,1,-31,1,8,1,24,1,25,1,93,1,82,1,60,1,29,1,30,1
1534,29,1,39,1,10,1,-34,1,10,1,25,1,26,1,97,1,83,1,61,1,29,1,30,1
1535,30,1,40,1,10,1,-35,1,10,1,25,1,25,1,100,1,83,1,62,1,30,1,30,1
1536,33,1,44,1,11,1,-38,1,11,1,28,1,25,1,102,1,85,1,64,1,30,1,31,1
1537,30,1,40,1,10,1,-35,1,10,1,25,1,25,1,103,1,87,1,66,1,31,1,31,1
1538,28,1,37,1,9,1,-32,1,10,1,23,1,25,1,104,1,91,1,68,1,33,1,32,1
1539,27,1,36,1,9,1,-31,1,9,1,23,1,28,1,108,1,98,1,73,1,37,1,36,1
1540,30,1,37,1,7,1,-33,1,12,1,22,1,29,1,111,1,102,1,78,1,41,1,39,1
1541,31,1,38,1,7,1,-34,1,12,1,23,1,31,1,113,1,107,1,80,1,43,1,42,1
1542,33,1,42,1,9,1,-37,1,12,1,26,1,31,1,116,1,109,1,82,1,44,1,45,1
1543,35,1,45,1,10,1,-40,1,13,1,28,1,31,1,118,1,110,1,84,1,47,1,48,1
1544,41,1,51,1,10,1,-46,1,16,1,31,1,29,1,119,1,110,1,84,1,46,1,49,1
1545,42,1,50,1,8,1,-46,1,17,1,29,1,29,1,121,1,110,1,85,1,47,1,50,1
1546,38,1,48,1,10,1,-43,1,14,1,29,1,29,1,122,1,110,1,86,1,47,1,49,1
1547,40,1,50,1,10,1,-45,1,15,1,30,1,29,1,123,1,112,1,87,1,48,1,49,1
1548,39,1,47,1,8,1,-43,1,16,1,28,1,29,1,123,1,115,1,90,1,50,1,50,1
1549,38,1,45,1,7,1,-41,1,16,1,26,1,29,1,123,1,118,1,92,1,53,1,52,1
1550,40,1,47,1,7,1,-43,1,17,1,27,1,31,1,125,1,123,1,96,1,56,1,55,1
1551,40,1,50,1,10,1,-45,1,15,1,30,1,30,1,124,1,125,1,97,1,58,1,57,1
1552,40,1,53,1,13,1,-46,1,14,1,33,1,30,1,125,1,124,1,97,1,58,1,59,1
1553,42,1,55,1,13,1,-48,1,15,1,34,1,29,1,124,1,122,1,95,1,56,1,58,1
1554,43,1,56,1,13,1,-49,1,15,1,35,1,27,1,125,1,120,1,94,1,55,1,58,1
1555,45,1,58,1,13,1,-51,1,16,1,36,1,27,1,124,1,117,1,93,1,54,1,58,1
1556,46,1,59,1,13,1,-52,1,17,1,36,1,25,1,122,1,116,1,93,1,54,1,58,1
1557,46,1,59,1,13,1,-52,1,17,1,36,1,26,1,123,1,117,1,95,1,56,1,58,1
1558,44,1,55,1,11,1,-49,1,17,1,33,1,24,1,120,1,118,1,95,1,57,1,56,1
1559,40,1,52,1,12,1,-46,1,14,1,32,1,23,1,118,1,118,1,95,1,57,1,55,1
1560,39,1,53,1,14,1,-46,1,13,1,34,1,24,1,117,1,121,1,96,1,59,1,57,1
1561,39,1,55,1,16,1,-47,1,12,1,36,1,23,1,114,1,119,1,95,1,59,1,57,1
1562,39,1,56,1,17,1,-47,1,11,1,37,1,22,1,113,1,119,1,95,1,60,1,58,1
1563,41,1,56,1,15,1,-48,1,13,1,36,1,23,1,112,1,117,1,94,1,59,1,60,1
1564,41,1,58,1,17,1,-49,1,12,1,38,1,22,1,110,1,113,1,92,1,59,1,60,1
1565,42,1,60,1,18,1,-51,1,12,1,39,1,20,1,108,1,108,1,90,1,57,1,60,1
1566,42,1,60,1,18,1,-51,1,12,1,39,1,19,1,104,1,104,1,87,1,55,1,58,1
1567,42,1,58,1,16,1,-50,1,13,1,37,1,17,1,99,1,101,1,86,1,53,1,56,1
1568,40,1,56,1,16,1,-48,1,12,1,36,1,15,1,95,1,98,1,83,1,51,1,54,1
1569,36,1,53,1,17,1,-44,1,10,1,35,1,15,1,92,1,98,1,82,1,51,1,53,1
1570,33,1,55,1,22,1,-44,1,6,1,39,1,16,1,87,1,97,1,80,1,50,1,52,1
1571,30,1,53,1,23,1,-41,1,4,1,38,1,16,1,83,1,95,1,77,1,48,1,50,1
1572,29,1,52,1,23,1,-40,1,3,1,38,1,15,1,79,1,90,1,73,1,45,1,50,1
1573,29,1,52,1,23,1,-40,1,3,1,38,1,13,1,76,1,83,1,70,1,43,1,48,1
1574,30,1,52,1,22,1,-41,1,4,1,37,1,12,1,72,1,78,1,66,1,40,1,47,1
1575,28,1,52,1,24,1,-40,1,2,1,38,1,11,1,68,1,71,1,63,1,37,1,44,1
1576,23,1,50,1,27,1,-36,1,-2,1,39,1,10,1,63,1,64,1,57,1,32,1,41,1
1577,22,1,47,1,25,1,-34,1,-1,1,36,1,10,1,58,1,60,1,53,1,28,1,38,1
1578,19,1,43,1,24,1,-31,1,-2,1,34,1,8,1,52,1,56,1,50,1,27,1,34,1
1579,14,1,39,1,25,1,-26,1,-5,1,32,1,8,1,46,1,53,1,48,1,24,1,33,1
1580,12,1,35,1,23,1,-23,1,-5,1,29,1,6,1,41,1,50,1,44,1,22,1,32,1
1581,11,1,33,1,22,1,-22,1,-5,1,28,1,7,1,38,1,47,1,41,1,21,1,32,1
1582,9,1,33,1,24,1,-21,1,-7,1,29,1,8,1,35,1,43,1,37,1,20,1,30,1
1583,11,1,34,1,23,1,-22,1,-6,1,29,1,7,1,31,1,37,1,32,1,17,1,28,1
1584,10,1,35,1,25,1,-22,1,-7,1,30,1,4,1,25,1,28,1,25,1,10,1,23,1
1585,9,1,37,1,28,1,-23,1,-9,1,33,1,3,1,22,1,24,1,22,1,7,1,21,1
1586,8,1,32,1,24,1,-20,1,-8,1,28,1,0,1,18,1,19,1,19,1,4,1,18,1
1587,6,1,27,1,21,1,-16,1,-7,1,24,1,1,1,14,1,16,1,17,1,1,1,15,1
1588,4,1,24,1,20,1,-14,1,-8,1,22,1,1,1,10,1,13,1,13,1,-1,1,13,1
1589,2,1,21,1,19,1,-11,1,-8,1,20,1,1,1,8,1,13,1,13,1,-1,1,14,1
1590,3,1,21,1,18,1,-12,1,-7,1,20,1,2,1,7,1,14,1,13,1,0,1,16,1
1591,-1,1,19,1,20,1,-9,1,-10,1,19,1,1,1,2,1,11,1,10,1,-2,1,15,1
1592,-3,1,16,1,19,1,-6,1,-11,1,17,1,-1,1,-2,1,6,1,6,1,-4,1,14,1
1593,-5,1,15,1,20,1,-5,1,-12,1,17,1,-3,1,-4,1,1,1,2,1,-8,1,12,1
1594,-7,1,12,1,19,1,-2,1,-13,1,15,1,-4,1,-7,1,-5,1,-2,1,-13,1,9,1
1595,-4,1,14,1,18,1,-5,1,-11,1,16,1,-4,1,-8,1,-8,1,-4,1,-15,1,6,1
1596,-4,1,12,1,16,1,-4,1,-10,1,14,1,-4,1,-8,1,-11,1,-6,1,-16,1,5,1
1597,-5,1,11,1,16,1,-3,1,-10,1,13,1,-5,1,-11,1,-13,1,-7,1,-17,1,3,1
1598,-7,1,8,1,15,1,0,1,-11,1,11,1,-5,1,-13,1,-13,1,-8,1,-18,1,1,1
1599,-8,1,5,1,13,1,1,1,-10,1,9,1,-4,1,-15,1,-12,1,-8,1,-17,1,2,1
1600,-7,1,4,1,11,1,1,1,-9,1,7,1,-2,1,-15,1,-9,1,-8,1,-15,1,4,1
1601,-9,1,3,1,12,1,3,1,-10,1,7,1,-3,1,-16,1,-9,1,-8,1,-15,1,3,1
1602,-9,1,5,1,14,1,2,1,-11,1,9,1,-2,1,-17,1,-10,1,-9,1,-16,1,4,1
1603,-8,1,8,1,16,1,0,1,-12,1,12,1,-3,1,-18,1,-12,1,-11,1,-18,1,3,1
1604,-9,1,6,1,15,1,1,1,-12,1,10,1,-5,1,-19,1,-15,1,-14,1,-21,1,0,1
1605,-7,1,11,1,18,1,-2,1,-12,1,14,1,-8,1,-21,1,-21,1,-18,1,-25,1,-2,1
1606,-7,1,14,1,21,1,-3,1,-14,1,17,1,-9,1,-22,1,-24,1,-21,1,-28,1,-4,1
1607,-11,1,7,1,18,1,2,1,-14,1,12,1,-9,1,-24,1,-23,1,-20,1,-28,1,-5,1
1608,-12,1,2,1,14,1,5,1,-13,1,8,1,-8,1,-25,1,-21,1,-18,1,-26,1,-6,1
1609,-12,1,2,1,14,1,5,1,-13,1,8,1,-8,1,-25,1,-19,1,-17,1,-24,1,-5,1
1610,-13,1,0,1,13,1,6,1,-13,1,6,1,-8,1,-25,1,-17,1,-16,1,-23,1,-4,1
1611,-14,1,-1,1,13,1,7,1,-14,1,6,1,-6,1,-24,1,-16,1,-15,1,-23,1,-4,1
1612,-12,1,1,1,13,1,5,1,-12,1,7,1,-5,1,-22,1,-15,1,-14,1,-22,1,-1,1
1613,-10,1,5,1,15,1,2,1,-12,1,10,1,-5,1,-22,1,-16,1,-14,1,-23,1,0,1
1614,-10,1,6,1,16,1,2,1,-13,1,11,1,-7,1,-24,1,-22,1,-19,1,-27,1,-1,1
1615,-9,1,8,1,17,1,0,1,-13,1,12,1,-8,1,-24,1,-25,1,-21,1,-29,1,-3,1
1616,-8,1,8,1,16,1,0,1,-12,1,12,1,-9,1,-24,1,-26,1,-22,1,-29,1,-4,1
1617,-9,1,7,1,16,1,1,1,-12,1,11,1,-10,1,-26,1,-27,1,-22,1,-29,1,-6,1
1618,-12,1,5,1,17,1,3,1,-14,1,11,1,-10,1,-26,1,-24,1,-20,1,-27,1,-6,1
1619,-14,1,0,1,14,1,7,1,-14,1,7,1,-8,1,-25,1,-21,1,-18,1,-26,1,-4,1
1620,-14,1,-3,1,11,1,8,1,-13,1,4,1,-6,1,-26,1,-18,1,-17,1,-25,1,-2,1
1621,-14,1,-2,1,12,1,8,1,-13,1,5,1,-5,1,-25,1,-17,1,-16,1,-24,1,-2,1
1622,-13,1,0,1,13,1,6,1,-13,1,6,1,-5,1,-24,1,-17,1,-15,1,-24,1,-1,1
1623,-12,1,1,1,13,1,5,1,-12,1,7,1,-5,1,-24,1,-19,1,-17,1,-25,1,0,1
1624,-10,1,7,1,17,1,1,1,-13,1,12,1,-7,1,-24,1,-22,1,-17,1,-27,1,-1,1
1625,-9,1,12,1,21,1,-1,1,-15,1,16,1,-9,1,-25,1,-25,1,-20,1,-28,1,-4,1
1626,-8,1,10,1,18,1,-1,1,-13,1,14,1,-10,1,-26,1,-27,1,-21,1,-29,1,-4,1
1627,-9,1,6,1,15,1,1,1,-12,1,10,1,-8,1,-25,1,-26,1,-18,1,-28,1,-3,1
1628,-9,1,4,1,13,1,2,1,-11,1,8,1,-8,1,-25,1,-24,1,-18,1,-28,1,-3,1
1629,-10,1,2,1,12,1,4,1,-11,1,7,1,-7,1,-26,1,-21,1,-17,1,-26,1,-2,1
1630,-12,1,0,1,12,1,6,1,-12,1,6,1,-4,1,-24,1,-18,1,-15,1,-24,1,1,1
1631,-12,1,-2,1,10,1,7,1,-11,1,4,1,-3,1,-22,1,-15,1,-13,1,-21,1,3,1
1632,-10,1,0,1,10,1,5,1,-10,1,5,1,-4,1,-23,1,-17,1,-14,1,-23,1,3,1
1633,-8,1,6,1,14,1,1,1,-11,1,10,1,-5,1,-23,1,-18,1,-15,1,-24,1,4,1
1634,-7,1,8,1,15,1,0,1,-11,1,11,1,-5,1,-22,1,-20,1,-15,1,-24,1,5,1
1635,-6,1,10,1,16,1,-2,1,-11,1,13,1,-5,1,-20,1,-21,1,-14,1,-24,1,5,1
1636,-9,1,9,1,18,1,0,1,-13,1,13,1,-6,1,-21,1,-23,1,-15,1,-26,1,3,1
1637,-6,1,8,1,14,1,-1,1,-10,1,11,1,-5,1,-21,1,-22,1,-15,1,-24,1,4,1
1638,-9,1,3,1,12,1,3,1,-10,1,7,1,-5,1,-21,1,-20,1,-13,1,-23,1,4,1
1639,-15,1,-4,1,11,1,9,1,-13,1,3,1,-5,1,-23,1,-19,1,-14,1,-24,1,3,1
1640,-13,1,-2,1,11,1,7,1,-12,1,4,1,-3,1,-21,1,-16,1,-11,1,-21,1,3,1
1641,-11,1,2,1,13,1,4,1,-12,1,7,1,-3,1,-22,1,-16,1,-12,1,-21,1,4,1
1642,-13,1,3,1,16,1,5,1,-14,1,9,1,-4,1,-22,1,-17,1,-13,1,-23,1,2,1
1643,-12,1,3,1,15,1,4,1,-13,1,9,1,-3,1,-20,1,-19,1,-13,1,-23,1,3,1
1644,-8,1,8,1,16,1,0,1,-12,1,12,1,-3,1,-20,1,-21,1,-14,1,-24,1,3,1
1645,-7,1,10,1,17,1,-1,1,-12,1,13,1,-5,1,-21,1,-24,1,-16,1,-25,1,2,1
1646,-7,1,9,1,16,1,-1,1,-11,1,12,1,-4,1,-20,1,-23,1,-15,1,-27,1,-1,1
1647,-7,1,8,1,15,1,0,1,-11,1,11,1,-5,1,-20,1,-23,1,-15,1,-28,1,-3,1
1648,-11,1,3,1,14,1,4,1,-12,1,8,1,-5,1,-22,1,-22,1,-15,1,-28,1,-4,1
1649,-9,1,4,1,13,1,2,1,-11,1,8,1,-3,1,-21,1,-18,1,-12,1,-25,1,-1,1
1650,-12,1,2,1,14,1,5,1,-13,1,8,1,-2,1,-22,1,-16,1,-13,1,-23,1,0,1
1651,-14,1,1,1,15,1,6,1,-14,1,8,1,-2,1,-22,1,-16,1,-13,1,-23,1,1,1
1652,-13,1,1,1,14,1,6,1,-13,1,7,1,-3,1,-21,1,-17,1,-13,1,-24,1,2,1
1653,-10,1,6,1,16,1,2,1,-13,1,11,1,-3,1,-20,1,-18,1,-13,1,-25,1,3,1
1654,-8,1,10,1,18,1,-1,1,-13,1,14,1,-4,1,-20,1,-21,1,-16,1,-28,1,2,1
1655,-6,1,11,1,17,1,-2,1,-11,1,14,1,-3,1,-20,1,-23,1,-16,1,-27,1,3,1
1656,-6,1,10,1,16,1,-2,1,-11,1,13,1,-4,1,-20,1,-25,1,-17,1,-28,1,2,1
1657,-9,1,7,1,16,1,1,1,-12,1,11,1,-6,1,-21,1,-26,1,-18,1,-29,1,0,1
1658,-10,1,4,1,14,1,3,1,-12,1,9,1,-6,1,-23,1,-25,1,-17,1,-28,1,-1,1
1659,-10,1,3,1,13,1,3,1,-11,1,8,1,-4,1,-23,1,-22,1,-15,1,-25,1,0,1
1660,-14,1,0,1,14,1,7,1,-14,1,7,1,-4,1,-23,1,-20,1,-15,1,-25,1,1,1
1661,-14,1,0,1,14,1,7,1,-14,1,7,1,-4,1,-24,1,-19,1,-14,1,-24,1,1,1
1662,-11,1,3,1,14,1,4,1,-12,1,8,1,-3,1,-22,1,-18,1,-13,1,-24,1,3,1
1663,-9,1,5,1,14,1,2,1,-11,1,9,1,-4,1,-21,1,-19,1,-14,1,-24,1,4,1
1664,-7,1,9,1,16,1,-1,1,-11,1,12,1,-5,1,-20,1,-23,1,-16,1,-28,1,2,1
1665,-5,1,12,1,17,1,-3,1,-11,1,14,1,-5,1,-20,1,-24,1,-17,1,-28,1,2,1
1666,-7,1,8,1,15,1,0,1,-11,1,11,1,-5,1,-21,1,-26,1,-18,1,-28,1,1,1
1667,-6,1,7,1,13,1,0,1,-9,1,10,1,-6,1,-23,1,-27,1,-18,1,-28,1,0,1
1668,-12,1,1,1,13,1,5,1,-12,1,7,1,-8,1,-24,1,-27,1,-18,1,-30,1,-1,1
1669,-13,1,-2,1,11,1,7,1,-12,1,4,1,-6,1,-25,1,-24,1,-16,1,-28,1,0,1
1670,-12,1,-3,1,9,1,7,1,-11,1,3,1,-6,1,-26,1,-22,1,-16,1,-27,1,1,1
1671,-11,1,-3,1,8,1,7,1,-10,1,2,1,-7,1,-27,1,-22,1,-16,1,-27,1,0,1
1672,-8,1,0,1,8,1,4,1,-8,1,4,1,-8,1,-26,1,-24,1,-18,1,-28,1,0,1
1673,-6,1,3,1,9,1,1,1,-7,1,6,1,-6,1,-24,1,-25,1,-17,1,-28,1,1,1
1674,-6,1,6,1,12,1,0,1,-9,1,9,1,-6,1,-24,1,-27,1,-18,1,-27,1,2,1
1675,-7,1,10,1,17,1,-1,1,-12,1,13,1,-6,1,-24,1,-28,1,-18,1,-29,1,1,1
1676,-10,1,7,1,17,1,1,1,-13,1,12,1,-8,1,-25,1,-31,1,-20,1,-31,1,-1,1
1677,-11,1,4,1,15,1,3,1,-13,1,9,1,-9,1,-27,1,-31,1,-20,1,-31,1,-1,1
1678,-12,1,3,1,15,1,4,1,-13,1,9,1,-8,1,-29,1,-30,1,-19,1,-31,1,-3,1
1679,-11,1,3,1,14,1,4,1,-12,1,8,1,-7,1,-27,1,-26,1,-16,1,-29,1,-1,1
1680,-12,1,0,1,12,1,6,1,-12,1,6,1,-5,1,-27,1,-24,1,-15,1,-29,1,0,1
1681,-12,1,0,1,12,1,6,1,-12,1,6,1,-5,1,-27,1,-24,1,-15,1,-27,1,0,1
1682,-15,1,0,1,15,1,7,1,-15,1,7,1,-6,1,-29,1,-26,1,-17,1,-27,1,1,1
1683,-12,1,2,1,14,1,5,1,-13,1,8,1,-6,1,-28,1,-27,1,-18,1,-28,1,1,1
1684,-9,1,4,1,13,1,2,1,-11,1,8,1,-6,1,-27,1,-30,1,-18,1,-30,1,2,1
1685,-8,1,6,1,14,1,1,1,-11,1,10,1,-8,1,-29,1,-33,1,-21,1,-33,1,0,1
1686,-6,1,7,1,13,1,0,1,-9,1,10,1,-9,1,-31,1,-35,1,-23,1,-36,1,-1,1
1687,-8,1,3,1,11,1,2,1,-9,1,7,1,-8,1,-30,1,-34,1,-24,1,-35,1,-2,1
1688,-10,1,-1,1,9,1,5,1,-10,1,4,1,-7,1,-30,1,-32,1,-22,1,-34,1,-2,1
1689,-8,1,0,1,8,1,4,1,-8,1,4,1,-5,1,-30,1,-28,1,-19,1,-31,1,0,1
1690,-17,1,-7,1,10,1,12,1,-14,1,1,1,-5,1,-32,1,-29,1,-19,1,-32,1,-1,1
1691,-18,1,-8,1,10,1,13,1,-14,1,1,1,-6,1,-32,1,-28,1,-20,1,-33,1,-1,1
1692,-16,1,-4,1,12,1,10,1,-14,1,4,1,-5,1,-32,1,-28,1,-20,1,-33,1,0,1
1693,-12,1,1,1,13,1,5,1,-12,1,7,1,-5,1,-31,1,-30,1,-21,1,-33,1,0,1
1694,-12,1,1,1,13,1,5,1,-12,1,7,1,-8,1,-32,1,-35,1,-24,1,-38,1,-1,1
1695,-11,1,5,1,16,1,3,1,-13,1,10,1,-9,1,-33,1,-37,1,-24,1,-39,1,-1,1
1696,-11,1,4,1,15,1,3,1,-13,1,9,1,-8,1,-33,1,-37,1,-24,1,-39,1,-4,1
1697,-10,1,4,1,14,1,3,1,-12,1,9,1,-10,1,-35,1,-39,1,-27,1,-40,1,-7,1
1698,-11,1,1,1,12,1,5,1,-11,1,6,1,-10,1,-35,1,-37,1,-26,1,-39,1,-7,1
1699,-16,1,-1,1,15,1,8,1,-16,1,7,1,-9,1,-35,1,-35,1,-24,1,-37,1,-6,1
1700,-17,1,0,1,17,1,8,1,-17,1,8,1,-9,1,-36,1,-34,1,-25,1,-38,1,-6,1
1701,-15,1,1,1,16,1,7,1,-15,1,8,1,-8,1,-37,1,-34,1,-25,1,-38,1,-5,1
1702,-14,1,1,1,15,1,6,1,-14,1,8,1,-6,1,-35,1,-32,1,-25,1,-37,1,-2,1
1703,-13,1,2,1,15,1,5,1,-14,1,8,1,-6,1,-33,1,-34,1,-26,1,-38,1,-2,1
1704,-13,1,4,1,17,1,4,1,-15,1,10,1,-9,1,-35,1,-39,1,-30,1,-40,1,-4,1
1705,-12,1,4,1,16,1,4,1,-14,1,10,1,-9,1,-35,1,-43,1,-31,1,-40,1,-5,1
1706,-11,1,2,1,13,1,4,1,-12,1,7,1,-11,1,-36,1,-44,1,-31,1,-41,1,-5,1
1707,-9,1,3,1,12,1,3,1,-10,1,7,1,-10,1,-35,1,-41,1,-29,1,-40,1,-5,1
1708,-4,1,6,1,10,1,-1,1,-7,1,8,1,-7,1,-33,1,-37,1,-26,1,-36,1,-3,1
1709,-13,1,-4,1,9,1,8,1,-11,1,2,1,-9,1,-35,1,-36,1,-28,1,-37,1,-4,1
1710,-22,1,-14,1,8,1,18,1,-15,1,-3,1,-10,1,-38,1,-36,1,-28,1,-38,1,-6,1
1711,-21,1,-12,1,9,1,16,1,-15,1,-2,1,-9,1,-37,1,-34,1,-28,1,-37,1,-4,1
1712,-20,1,-7,1,13,1,13,1,-17,1,3,1,-8,1,-36,1,-34,1,-28,1,-36,1,-3,1
1713,-16,1,-1,1,15,1,8,1,-16,1,7,1,-8,1,-34,1,-36,1,-28,1,-37,1,-2,1
1714,-10,1,2,1,12,1,4,1,-11,1,7,1,-9,1,-34,1,-37,1,-29,1,-38,1,-1,1
1715,-10,1,3,1,13,1,3,1,-11,1,8,1,-10,1,-34,1,-40,1,-32,1,-41,1,-4,1
1716,-10,1,2,1,12,1,4,1,-11,1,7,1,-12,1,-36,1,-42,1,-32,1,-42,1,-5,1
1717,-11,1,0,1,11,1,5,1,-11,1,5,1,-12,1,-37,1,-42,1,-32,1,-42,1,-6,1
1718,-14,1,-3,1,11,1,8,1,-13,1,4,1,-11,1,-37,1,-39,1,-30,1,-40,1,-5,1
1719,-15,1,-8,1,7,1,11,1,-11,1,-1,1,-10,1,-36,1,-36,1,-28,1,-38,1,-3,1
1720,-16,1,-10,1,6,1,13,1,-11,1,-2,1,-9,1,-36,1,-34,1,-27,1,-37,1,-2,1
1721,-16,1,-7,1,9,1,11,1,-13,1,1,1,-8,1,-36,1,-33,1,-28,1,-37,1,-2,1
1722,-14,1,-3,1,11,1,8,1,-13,1,4,1,-7,1,-36,1,-32,1,-28,1,-37,1,-1,1
1723,-14,1,-1,1,13,1,7,1,-14,1,6,1,-7,1,-36,1,-35,1,-30,1,-39,1,-1,1
1724,-13,1,0,1,13,1,6,1,-13,1,6,1,-8,1,-34,1,-37,1,-30,1,-39,1,-1,1
1725,-12,1,1,1,13,1,5,1,-12,1,7,1,-9,1,-34,1,-39,1,-31,1,-40,1,-1,1
1726,-12,1,2,1,14,1,5,1,-13,1,8,1,-11,1,-36,1,-42,1,-32,1,-41,1,-3,1
1727,-12,1,2,1,14,1,5,1,-13,1,8,1,-12,1,-38,1,-43,1,-33,1,-42,1,-5,1
1728,-13,1,-2,1,11,1,7,1,-12,1,4,1,-10,1,-37,1,-40,1,-31,1,-39,1,-4,1
1729,-16,1,-5,1,11,1,10,1,-14,1,3,1,-9,1,-37,1,-38,1,-29,1,-37,1,-4,1
1730,-17,1,-5,1,12,1,11,1,-15,1,3,1,-8,1,-37,1,-33,1,-27,1,-35,1,-2,1
1731,-16,1,-3,1,13,1,9,1,-15,1,5,1,-9,1,-38,1,-33,1,-28,1,-37,1,-2,1
1732,-14,1,0,1,14,1,7,1,-14,1,7,1,-8,1,-37,1,-34,1,-29,1,-36,1,0,1
1733,-11,1,3,1,14,1,4,1,-12,1,8,1,-8,1,-36,1,-36,1,-29,1,-37,1,0,1
1734,-10,1,4,1,14,1,3,1,-12,1,9,1,-9,1,-36,1,-39,1,-30,1,-38,1,-2,1
1735,-10,1,5,1,15,1,2,1,-12,1,10,1,-10,1,-36,1,-43,1,-32,1,-40,1,-3,1
1736,-13,1,0,1,13,1,6,1,-13,1,6,1,-12,1,-38,1,-45,1,-34,1,-42,1,-6,1
1737,-14,1,-3,1,11,1,8,1,-13,1,4,1,-13,1,-39,1,-44,1,-34,1,-42,1,-6,1
1738,-14,1,-3,1,11,1,8,1,-13,1,4,1,-12,1,-39,1,-42,1,-33,1,-40,1,-8,1
1739,-13,1,-4,1,9,1,8,1,-11,1,2,1,-10,1,-37,1,-39,1,-30,1,-38,1,-6,1
1740,-18,1,-7,1,11,1,12,1,-15,1,2,1,-7,1,-36,1,-35,1,-28,1,-36,1,-5,1
1741,-18,1,-4,1,14,1,11,1,-16,1,5,1,-7,1,-37,1,-33,1,-28,1,-36,1,-4,1
1742,-17,1,-5,1,12,1,11,1,-15,1,3,1,-7,1,-36,1,-35,1,-29,1,-35,1,-3,1
1743,-16,1,-2,1,14,1,9,1,-15,1,6,1,-6,1,-34,1,-36,1,-28,1,-36,1,-2,1
1744,-14,1,-2,1,12,1,8,1,-13,1,5,1,-7,1,-34,1,-38,1,-29,1,-37,1,-2,1
1745,-13,1,-2,1,11,1,7,1,-12,1,4,1,-8,1,-35,1,-40,1,-30,1,-40,1,-2,1
1746,-11,1,-1,1,10,1,6,1,-11,1,4,1,-10,1,-36,1,-42,1,-32,1,-40,1,-3,1
1747,-12,1,-2,1,10,1,7,1,-11,1,4,1,-11,1,-38,1,-44,1,-32,1,-41,1,-5,1
1748,-14,1,-5,1,9,1,9,1,-12,1,2,1,-10,1,-38,1,-42,1,-32,1,-40,1,-4,1
1749,-15,1,-7,1,8,1,11,1,-12,1,0,1,-9,1,-38,1,-39,1,-30,1,-38,1,-3,1
1750,-17,1,-8,1,9,1,12,1,-13,1,0,1,-8,1,-37,1,-37,1,-29,1,-36,1,-2,1
1751,-17,1,-8,1,9,1,12,1,-13,1,0,1,-8,1,-37,1,-36,1,-29,1,-36,1,-2,1
1752,-17,1,-6,1,11,1,11,1,-14,1,2,1,-7,1,-37,1,-36,1,-29,1,-37,1,-1,1
1753,-14,1,-2,1,12,1,8,1,-13,1,5,1,-7,1,-36,1,-38,1,-30,1,-38,1,-1,1
1754,-13,1,0,1,13,1,6,1,-13,1,6,1,-8,1,-36,1,-41,1,-31,1,-40,1,-3,1
1755,-12,1,0,1,12,1,6,1,-12,1,6,1,-11,1,-37,1,-45,1,-33,1,-41,1,-5,1
1756,-12,1,0,1,12,1,6,1,-12,1,6,1,-12,1,-37,1,-45,1,-33,1,-40,1,-6,1
1757,-11,1,0,1,11,1,5,1,-11,1,5,1,-11,1,-36,1,-44,1,-33,1,-40,1,-7,1
1758,-11,1,-2,1,9,1,6,1,-10,1,3,1,-12,1,-38,1,-43,1,-31,1,-39,1,-7,1
1759,-10,1,-1,1,9,1,5,1,-10,1,4,1,-9,1,-37,1,-40,1,-29,1,-37,1,-6,1
1760,-15,1,-5,1,10,1,10,1,-13,1,2,1,-9,1,-37,1,-39,1,-29,1,-38,1,-8,1
1761,-17,1,-6,1,11,1,11,1,-14,1,2,1,-10,1,-38,1,-37,1,-29,1,-36,1,-7,1
1762,-18,1,-5,1,13,1,11,1,-16,1,4,1,-10,1,-38,1,-39,1,-30,1,-38,1,-8,1
1763,-15,1,-1,1,14,1,8,1,-15,1,6,1,-12,1,-38,1,-41,1,-31,1,-38,1,-7,1
1764,-15,1,1,1,16,1,7,1,-15,1,8,1,-12,1,-37,1,-43,1,-33,1,-40,1,-8,1
1765,-14,1,2,1,16,1,6,1,-15,1,9,1,-11,1,-37,1,-44,1,-32,1,-39,1,-8,1
1766,-11,1,4,1,15,1,3,1,-13,1,9,1,-11,1,-36,1,-44,1,-33,1,-39,1,-8,1
1767,-12,1,1,1,13,1,5,1,-12,1,7,1,-12,1,-36,1,-43,1,-32,1,-38,1,-8,1
1768,-14,1,-2,1,12,1,8,1,-13,1,5,1,-12,1,-38,1,-42,1,-31,1,-38,1,-10,1
1769,-17,1,-6,1,11,1,11,1,-14,1,2,1,-9,1,-36,1,-38,1,-28,1,-37,1,-9,1
1770,-16,1,-6,1,10,1,11,1,-13,1,2,1,-8,1,-36,1,-37,1,-28,1,-36,1,-9,1
1771,-17,1,-1,1,16,1,9,1,-17,1,7,1,-7,1,-38,1,-36,1,-27,1,-33,1,-8,1
1772,-14,1,1,1,15,1,6,1,-14,1,8,1,-7,1,-37,1,-37,1,-28,1,-34,1,-8,1
1773,-12,1,1,1,13,1,5,1,-12,1,7,1,-7,1,-34,1,-37,1,-28,1,-34,1,-9,1
1774,-10,1,2,1,12,1,4,1,-11,1,7,1,-6,1,-32,1,-37,1,-27,1,-35,1,-9,1
1775,-9,1,2,1,11,1,3,1,-10,1,6,1,-8,1,-33,1,-40,1,-29,1,-37,1,-12,1
1776,-11,1,0,1,11,1,5,1,-11,1,5,1,-9,1,-35,1,-43,1,-31,1,-38,1,-14,1
1777,-12,1,-3,1,9,1,7,1,-11,1,3,1,-10,1,-35,1,-43,1,-30,1,-39,1,-15,1
1778,-12,1,-5,1,7,1,8,1,-10,1,1,1,-8,1,-35,1,-40,1,-28,1,-36,1,-15,1
1779,-13,1,-4,1,9,1,8,1,-11,1,2,1,-7,1,-35,1,-38,1,-27,1,-33,1,-14,1
1780,-13,1,0,1,13,1,6,1,-13,1,6,1,-7,1,-36,1,-37,1,-27,1,-34,1,-16,1
1781,-12,1,1,1,13,1,5,1,-12,1,7,1,-6,1,-35,1,-35,1,-27,1,-33,1,-14,1
1782,-10,1,0,1,10,1,5,1,-10,1,5,1,-7,1,-34,1,-35,1,-25,1,-32,1,-13,1
