TS,I,If,II,IIf,III,IIIf,aVR,aVRf,aVL,aVLf,aVF,aVFf,V1,V1f,V2,V2f,V3,V3f,V4,V4f,V5,V5f,V6,V6f
1,-26,1,-17,1,9,1,21,1,-18,1,-4,1,2,1,23,1,-13,1,-53,1,-22,1,-29,1
2,-26,1,-17,1,9,1,21,1,-18,1,-4,1,3,1,26,1,-13,1,-53,1,-22,1,-28,1
3,-26,1,-16,1,10,1,21,1,-18,1,-3,1,3,1,21,1,-16,1,-55,1,-24,1,-29,1
4,-25,1,-15,1,10,1,20,1,-18,1,-3,1,3,1,16,1,-17,1,-56,1,-25,1,-32,1
5,-25,1,-17,1,8,1,21,1,-17,1,-5,1,3,1,11,1,-22,1,-55,1,-26,1,-32,1
6,-25,1,-19,1,6,1,22,1,-16,1,-7,1,3,1,27,1,-20,1,-53,1,-24,1,-31,1
7,-26,1,-20,1,6,1,23,1,-16,1,-7,1,3,1,31,1,-21,1,-52,1,-24,1,-30,1
8,-26,1,-20,1,6,1,23,1,-16,1,-7,1,2,1,26,1,-22,1,-53,1,-25,1,-31,1
9,-27,1,-18,1,9,1,22,1,-18,1,-5,1,1,1,21,1,-20,1,-54,1,-25,1,-33,1
10,-26,1,-17,1,9,1,21,1,-18,1,-4,1,2,1,11,1,-21,1,-54,1,-26,1,-33,1
11,-25,1,-15,1,10,1,20,1,-18,1,-3,1,2,1,24,1,-16,1,-53,1,-23,1,-31,1
12,-25,1,-15,1,10,1,20,1,-18,1,-3,1,3,1,27,1,-15,1,-52,1,-21,1,-30,1
13,-23,1,-14,1,9,1,18,1,-16,1,-3,1,2,1,21,1,-17,1,-52,1,-22,1,-29,1
14,-20,1,-12,1,8,1,16,1,-14,1,-2,1,2,1,19,1,-16,1,-53,1,-22,1,-31,1
15,-18,1,-14,1,4,1,16,1,-11,1,-5,1,2,1,16,1,-19,1,-52,1,-22,1,-31,1
16,-18,1,-13,1,5,1,15,1,-12,1,-4,1,2,1,31,1,-18,1,-50,1,-19,1,-29,1
17,-18,1,-13,1,5,1,15,1,-12,1,-4,1,3,1,35,1,-19,1,-48,1,-19,1,-28,1
18,-19,1,-12,1,7,1,15,1,-13,1,-3,1,4,1,29,1,-20,1,-48,1,-19,1,-27,1
19,-21,1,-10,1,11,1,15,1,-16,1,0,1,3,1,24,1,-17,1,-50,1,-20,1,-29,1
20,-21,1,-8,1,13,1,14,1,-17,1,2,1,2,1,15,1,-18,1,-50,1,-20,1,-30,1
21,-21,1,-6,1,15,1,13,1,-18,1,4,1,1,1,27,1,-13,1,-48,1,-18,1,-27,1
22,-22,1,-3,1,19,1,12,1,-21,1,8,1,1,1,30,1,-12,1,-47,1,-17,1,-25,1
23,-21,1,-2,1,19,1,11,1,-20,1,8,1,0,1,24,1,-12,1,-46,1,-17,1,-25,1
24,-20,1,-2,1,18,1,11,1,-19,1,8,1,0,1,19,1,-12,1,-47,1,-18,1,-27,1
25,-19,1,-4,1,15,1,11,1,-17,1,5,1,0,1,13,1,-17,1,-48,1,-18,1,-29,1
26,-19,1,-6,1,13,1,12,1,-16,1,3,1,0,1,27,1,-17,1,-47,1,-16,1,-28,1
27,-20,1,-8,1,12,1,14,1,-16,1,2,1,1,1,31,1,-19,1,-46,1,-16,1,-27,1
28,-20,1,-8,1,12,1,14,1,-16,1,2,1,1,1,26,1,-21,1,-46,1,-17,1,-28,1
29,-21,1,-7,1,14,1,14,1,-18,1,3,1,1,1,22,1,-19,1,-47,1,-19,1,-30,1
30,-20,1,-8,1,12,1,14,1,-16,1,2,1,1,1,13,1,-20,1,-48,1,-19,1,-31,1
31,-19,1,-8,1,11,1,13,1,-15,1,1,1,1,1,26,1,-15,1,-47,1,-18,1,-29,1
32,-19,1,-9,1,10,1,14,1,-15,1,0,1,1,1,28,1,-14,1,-47,1,-18,1,-29,1
33,-18,1,-10,1,8,1,14,1,-13,1,-1,1,1,1,23,1,-15,1,-48,1,-19,1,-30,1
34,-18,1,-10,1,8,1,14,1,-13,1,-1,1,0,1,17,1,-17,1,-49,1,-21,1,-32,1
35,-18,1,-13,1,5,1,15,1,-12,1,-4,1,1,1,10,1,-21,1,-49,1,-21,1,-32,1
36,-17,1,-15,1,2,1,16,1,-10,1,-7,1,1,1,25,1,-20,1,-49,1,-19,1,-30,1
37,-19,1,-15,1,4,1,17,1,-12,1,-6,1,1,1,28,1,-22,1,-48,1,-19,1,-30,1
38,-20,1,-15,1,5,1,17,1,-13,1,-5,1,1,1,20,1,-26,1,-50,1,-20,1,-32,1
39,-22,1,-15,1,7,1,18,1,-15,1,-4,1,0,1,15,1,-25,1,-52,1,-23,1,-36,1
40,-23,1,-17,1,6,1,20,1,-15,1,-6,1,1,1,8,1,-27,1,-55,1,-24,1,-38,1
41,-23,1,-18,1,5,1,20,1,-14,1,-7,1,2,1,20,1,-24,1,-54,1,-23,1,-37,1
42,-24,1,-20,1,4,1,22,1,-14,1,-8,1,2,1,20,1,-25,1,-54,1,-24,1,-37,1
43,-24,1,-21,1,3,1,22,1,-14,1,-9,1,3,1,15,1,-27,1,-54,1,-26,1,-37,1
44,-24,1,-20,1,4,1,22,1,-14,1,-8,1,3,1,10,1,-27,1,-55,1,-28,1,-39,1
45,-25,1,-22,1,3,1,23,1,-14,1,-10,1,4,1,5,1,-30,1,-55,1,-29,1,-40,1
46,-25,1,-23,1,2,1,24,1,-14,1,-11,1,4,1,19,1,-27,1,-54,1,-26,1,-38,1
47,-27,1,-23,1,4,1,25,1,-16,1,-10,1,5,1,24,1,-28,1,-53,1,-27,1,-38,1
48,-27,1,-24,1,3,1,25,1,-15,1,-11,1,5,1,18,1,-31,1,-54,1,-28,1,-41,1
49,-28,1,-23,1,5,1,25,1,-17,1,-9,1,5,1,13,1,-30,1,-56,1,-30,1,-45,1
50,-28,1,-24,1,4,1,26,1,-16,1,-10,1,4,1,1,1,-33,1,-57,1,-32,1,-47,1
51,-27,1,-24,1,3,1,25,1,-15,1,-11,1,4,1,3,1,-33,1,-57,1,-31,1,-46,1
52,-28,1,-25,1,3,1,26,1,-16,1,-11,1,5,1,-7,1,-35,1,-58,1,-34,1,-46,1
53,-28,1,-27,1,1,1,27,1,-15,1,-13,1,5,1,-25,1,-39,1,-59,1,-36,1,-47,1
54,-28,1,-26,1,2,1,27,1,-15,1,-12,1,4,1,-42,1,-42,1,-62,1,-40,1,-52,1
55,-28,1,-28,1,0,1,28,1,-14,1,-14,1,4,1,-60,1,-47,1,-61,1,-41,1,-54,1
56,-27,1,-28,1,-1,1,27,1,-13,1,-15,1,4,1,-56,1,-46,1,-61,1,-40,1,-54,1
57,-29,1,-28,1,1,1,28,1,-15,1,-14,1,6,1,-60,1,-48,1,-60,1,-41,1,-54,1
58,-29,1,-28,1,1,1,28,1,-15,1,-14,1,7,1,-74,1,-50,1,-61,1,-42,1,-57,1
59,-30,1,-27,1,3,1,28,1,-17,1,-12,1,7,1,-85,1,-49,1,-63,1,-45,1,-61,1
60,-30,1,-28,1,2,1,29,1,-16,1,-13,1,6,1,-99,1,-51,1,-63,1,-45,1,-64,1
61,-29,1,-28,1,1,1,28,1,-15,1,-14,1,6,1,-91,1,-47,1,-63,1,-43,1,-64,1
62,-30,1,-28,1,2,1,29,1,-16,1,-13,1,6,1,-94,1,-47,1,-63,1,-44,1,-64,1
63,-29,1,-27,1,2,1,28,1,-16,1,-13,1,6,1,-103,1,-48,1,-64,1,-45,1,-64,1
64,-28,1,-27,1,1,1,27,1,-15,1,-13,1,6,1,-112,1,-48,1,-64,1,-47,1,-67,1
65,-28,1,-29,1,-1,1,28,1,-14,1,-15,1,7,1,-121,1,-51,1,-63,1,-47,1,-67,1
66,-28,1,-30,1,-2,1,29,1,-13,1,-16,1,7,1,-110,1,-47,1,-62,1,-44,1,-66,1
67,-30,1,-31,1,-1,1,30,1,-15,1,-16,1,7,1,-108,1,-48,1,-61,1,-45,1,-65,1
68,-30,1,-31,1,-1,1,30,1,-15,1,-16,1,7,1,-114,1,-49,1,-61,1,-45,1,-67,1
69,-32,1,-31,1,1,1,31,1,-17,1,-15,1,7,1,-120,1,-47,1,-62,1,-46,1,-70,1
70,-31,1,-31,1,0,1,31,1,-16,1,-16,1,7,1,-130,1,-50,1,-62,1,-47,1,-72,1
71,-31,1,-30,1,1,1,30,1,-16,1,-15,1,7,1,-119,1,-45,1,-61,1,-44,1,-70,1
72,-30,1,-30,1,0,1,30,1,-15,1,-15,1,7,1,-118,1,-45,1,-61,1,-45,1,-70,1
73,-29,1,-29,1,0,1,29,1,-15,1,-15,1,7,1,-122,1,-45,1,-61,1,-45,1,-70,1
74,-29,1,-27,1,2,1,28,1,-16,1,-13,1,7,1,-129,1,-44,1,-62,1,-45,1,-72,1
75,-29,1,-29,1,0,1,29,1,-15,1,-15,1,7,1,-135,1,-47,1,-60,1,-45,1,-70,1
76,-29,1,-31,1,-2,1,30,1,-14,1,-17,1,7,1,-120,1,-43,1,-59,1,-42,1,-68,1
77,-30,1,-31,1,-1,1,30,1,-15,1,-16,1,7,1,-118,1,-44,1,-57,1,-42,1,-67,1
78,-31,1,-31,1,0,1,31,1,-16,1,-16,1,7,1,-123,1,-45,1,-57,1,-42,1,-68,1
79,-33,1,-30,1,3,1,31,1,-18,1,-14,1,7,1,-134,1,-46,1,-58,1,-45,1,-71,1
80,-33,1,-30,1,3,1,31,1,-18,1,-14,1,7,1,-140,1,-47,1,-57,1,-45,1,-72,1
81,-32,1,-30,1,2,1,31,1,-17,1,-14,1,7,1,-126,1,-42,1,-57,1,-44,1,-70,1
82,-31,1,-30,1,1,1,30,1,-16,1,-15,1,7,1,-124,1,-42,1,-56,1,-44,1,-70,1
83,-30,1,-29,1,1,1,29,1,-16,1,-14,1,7,1,-127,1,-41,1,-55,1,-45,1,-70,1
84,-27,1,-26,1,1,1,26,1,-14,1,-13,1,7,1,-129,1,-38,1,-53,1,-46,1,-70,1
85,-24,1,-27,1,-3,1,25,1,-11,1,-15,1,7,1,-131,1,-37,1,-50,1,-44,1,-68,1
86,-21,1,-27,1,-6,1,24,1,-8,1,-17,1,7,1,-111,1,-27,1,-44,1,-41,1,-64,1
87,-19,1,-26,1,-7,1,22,1,-6,1,-17,1,12,1,-97,1,-18,1,-34,1,-39,1,-59,1
88,-17,1,-24,1,-7,1,20,1,-5,1,-16,1,18,1,-87,1,-3,1,-21,1,-36,1,-55,1
89,-14,1,-19,1,-5,1,16,1,-5,1,-12,1,25,1,-72,1,17,1,-6,1,-31,1,-49,1
90,-8,1,-14,1,-6,1,11,1,-1,1,-10,1,33,1,-59,1,40,1,16,1,-21,1,-35,1
91,1,1,-4,1,-5,1,1,1,3,1,-4,1,39,1,-27,1,71,1,43,1,-2,1,-10,1
92,14,1,10,1,-4,1,-12,1,9,1,3,1,39,1,-9,1,97,1,74,1,26,1,24,1
93,32,1,28,1,-4,1,-30,1,18,1,12,1,36,1,2,1,123,1,108,1,62,1,68,1
94,50,1,48,1,-2,1,-49,1,26,1,23,1,32,1,10,1,149,1,142,1,103,1,115,1
95,69,1,66,1,-3,1,-67,1,36,1,32,1,25,1,13,1,165,1,174,1,148,1,165,1
96,88,1,85,1,-3,1,-86,1,46,1,41,1,14,1,28,1,180,1,201,1,197,1,215,1
97,103,1,109,1,6,1,-106,1,49,1,58,1,-4,1,21,1,179,1,219,1,245,1,262,1
98,114,1,130,1,16,1,-122,1,49,1,73,1,-32,1,-8,1,161,1,222,1,285,1,296,1
99,119,1,147,1,28,1,-133,1,46,1,88,1,-64,1,-55,1,129,1,209,1,311,1,313,1
100,120,1,156,1,36,1,-138,1,42,1,96,1,-92,1,-105,1,87,1,186,1,324,1,315,1
101,113,1,161,1,48,1,-137,1,33,1,105,1,-111,1,-133,1,48,1,154,1,320,1,298,1
102,97,1,158,1,61,1,-127,1,18,1,110,1,-121,1,-168,1,3,1,109,1,294,1,258,1
103,73,1,147,1,74,1,-110,1,0,1,111,1,-121,1,-205,1,-46,1,52,1,247,1,195,1
104,42,1,125,1,83,1,-83,1,-20,1,104,1,-113,1,-239,1,-97,1,-14,1,181,1,113,1
105,10,1,93,1,83,1,-51,1,-36,1,88,1,-99,1,-267,1,-144,1,-75,1,108,1,29,1
106,-14,1,65,1,79,1,-25,1,-46,1,72,1,-85,1,-263,1,-168,1,-116,1,50,1,-33,1
107,-30,1,40,1,70,1,-5,1,-50,1,55,1,-71,1,-259,1,-180,1,-138,1,9,1,-73,1
108,-41,1,22,1,63,1,9,1,-52,1,42,1,-62,1,-258,1,-181,1,-145,1,-18,1,-97,1
109,-47,1,8,1,55,1,19,1,-51,1,31,1,-57,1,-255,1,-173,1,-144,1,-36,1,-110,1
110,-51,1,-2,1,49,1,26,1,-50,1,23,1,-51,1,-253,1,-163,1,-136,1,-45,1,-112,1
111,-51,1,-8,1,43,1,29,1,-47,1,17,1,-45,1,-229,1,-144,1,-121,1,-46,1,-107,1
112,-50,1,-12,1,38,1,31,1,-44,1,13,1,-39,1,-214,1,-127,1,-104,1,-46,1,-98,1
113,-45,1,-11,1,34,1,28,1,-40,1,11,1,-34,1,-202,1,-108,1,-86,1,-42,1,-85,1
114,-38,1,-7,1,31,1,22,1,-35,1,12,1,-31,1,-194,1,-90,1,-69,1,-37,1,-73,1
115,-29,1,-8,1,21,1,18,1,-25,1,6,1,-27,1,-185,1,-77,1,-53,1,-29,1,-59,1
116,-21,1,-7,1,14,1,14,1,-18,1,3,1,-22,1,-158,1,-60,1,-38,1,-21,1,-47,1
117,-15,1,-7,1,8,1,11,1,-12,1,0,1,-19,1,-144,1,-50,1,-29,1,-14,1,-40,1
118,-12,1,-6,1,6,1,9,1,-9,1,0,1,-17,1,-142,1,-45,1,-23,1,-12,1,-38,1
119,-12,1,-6,1,6,1,9,1,-9,1,0,1,-15,1,-141,1,-38,1,-20,1,-12,1,-38,1
120,-12,1,-4,1,8,1,8,1,-10,1,2,1,-12,1,-144,1,-35,1,-15,1,-12,1,-36,1
121,-13,1,0,1,13,1,6,1,-13,1,6,1,-10,1,-129,1,-27,1,-11,1,-12,1,-34,1
122,-15,1,2,1,17,1,6,1,-16,1,9,1,-9,1,-125,1,-25,1,-8,1,-13,1,-33,1
123,-16,1,5,1,21,1,5,1,-18,1,13,1,-8,1,-125,1,-23,1,-8,1,-17,1,-33,1
124,-14,1,8,1,22,1,3,1,-18,1,15,1,-8,1,-129,1,-21,1,-8,1,-20,1,-35,1
125,-12,1,9,1,21,1,1,1,-16,1,15,1,-8,1,-132,1,-24,1,-7,1,-20,1,-35,1
126,-10,1,10,1,20,1,0,1,-15,1,15,1,-9,1,-118,1,-21,1,-7,1,-17,1,-32,1
127,-10,1,12,1,22,1,-1,1,-16,1,17,1,-9,1,-115,1,-22,1,-7,1,-17,1,-32,1
128,-10,1,12,1,22,1,-1,1,-16,1,17,1,-8,1,-118,1,-23,1,-7,1,-18,1,-34,1
129,-11,1,14,1,25,1,-1,1,-18,1,19,1,-9,1,-123,1,-21,1,-8,1,-21,1,-38,1
130,-12,1,12,1,24,1,0,1,-18,1,18,1,-8,1,-131,1,-22,1,-7,1,-22,1,-39,1
131,-13,1,12,1,25,1,0,1,-19,1,18,1,-7,1,-121,1,-18,1,-5,1,-22,1,-37,1
132,-14,1,11,1,25,1,1,1,-19,1,18,1,-6,1,-120,1,-17,1,-4,1,-23,1,-37,1
133,-14,1,10,1,24,1,2,1,-19,1,17,1,-6,1,-122,1,-17,1,-4,1,-24,1,-37,1
134,-13,1,12,1,25,1,0,1,-19,1,18,1,-6,1,-129,1,-19,1,-4,1,-27,1,-39,1
135,-13,1,11,1,24,1,1,1,-18,1,17,1,-6,1,-134,1,-23,1,-5,1,-26,1,-39,1
136,-11,1,12,1,23,1,0,1,-17,1,17,1,-6,1,-120,1,-20,1,-3,1,-22,1,-37,1
137,-11,1,13,1,24,1,-1,1,-17,1,18,1,-6,1,-117,1,-22,1,-3,1,-21,1,-36,1
138,-10,1,13,1,23,1,-1,1,-16,1,18,1,-5,1,-122,1,-22,1,-3,1,-21,1,-37,1
139,-12,1,13,1,25,1,0,1,-18,1,19,1,-6,1,-127,1,-20,1,-4,1,-24,1,-40,1
140,-12,1,12,1,24,1,0,1,-18,1,18,1,-6,1,-135,1,-21,1,-3,1,-25,1,-41,1
141,-12,1,12,1,24,1,0,1,-18,1,18,1,-6,1,-123,1,-17,1,-1,1,-25,1,-38,1
142,-13,1,12,1,25,1,0,1,-19,1,18,1,-6,1,-122,1,-16,1,0,1,-25,1,-37,1
143,-14,1,12,1,26,1,1,1,-20,1,19,1,-6,1,-127,1,-17,1,-1,1,-26,1,-37,1
144,-14,1,14,1,28,1,0,1,-21,1,21,1,-6,1,-136,1,-20,1,-1,1,-28,1,-39,1
145,-12,1,12,1,24,1,0,1,-18,1,18,1,-6,1,-140,1,-22,1,0,1,-27,1,-40,1
146,-11,1,12,1,23,1,0,1,-17,1,17,1,-6,1,-126,1,-20,1,2,1,-23,1,-38,1
147,-10,1,12,1,22,1,-1,1,-16,1,17,1,-5,1,-123,1,-21,1,2,1,-21,1,-37,1
148,-10,1,12,1,22,1,-1,1,-16,1,17,1,-5,1,-127,1,-21,1,2,1,-21,1,-38,1
149,-11,1,13,1,24,1,-1,1,-17,1,18,1,-6,1,-132,1,-18,1,1,1,-23,1,-40,1
150,-10,1,13,1,23,1,-1,1,-16,1,18,1,-6,1,-138,1,-18,1,1,1,-25,1,-41,1
151,-10,1,14,1,24,1,-2,1,-17,1,19,1,-6,1,-126,1,-14,1,2,1,-24,1,-38,1
152,-11,1,14,1,25,1,-1,1,-18,1,19,1,-5,1,-125,1,-13,1,3,1,-25,1,-38,1
153,-11,1,14,1,25,1,-1,1,-18,1,19,1,-5,1,-128,1,-13,1,4,1,-25,1,-38,1
154,-10,1,16,1,26,1,-3,1,-18,1,21,1,-5,1,-132,1,-13,1,4,1,-25,1,-40,1
155,-8,1,15,1,23,1,-3,1,-15,1,19,1,-5,1,-137,1,-16,1,4,1,-25,1,-41,1
156,-8,1,14,1,22,1,-3,1,-15,1,18,1,-5,1,-124,1,-14,1,6,1,-21,1,-39,1
157,-8,1,14,1,22,1,-3,1,-15,1,18,1,-4,1,-121,1,-14,1,7,1,-18,1,-39,1
158,-9,1,14,1,23,1,-2,1,-16,1,18,1,-4,1,-123,1,-14,1,7,1,-18,1,-39,1
159,-9,1,15,1,24,1,-3,1,-16,1,19,1,-6,1,-127,1,-12,1,6,1,-19,1,-40,1
160,-9,1,15,1,24,1,-3,1,-16,1,19,1,-6,1,-132,1,-13,1,6,1,-20,1,-40,1
161,-9,1,16,1,25,1,-3,1,-17,1,20,1,-6,1,-118,1,-8,1,8,1,-19,1,-37,1
162,-10,1,15,1,25,1,-2,1,-17,1,20,1,-7,1,-114,1,-7,1,9,1,-21,1,-37,1
163,-9,1,16,1,25,1,-3,1,-17,1,20,1,-7,1,-114,1,-7,1,9,1,-23,1,-37,1
164,-7,1,17,1,24,1,-5,1,-15,1,20,1,-7,1,-121,1,-8,1,9,1,-25,1,-38,1
165,-6,1,16,1,22,1,-5,1,-14,1,19,1,-7,1,-125,1,-12,1,11,1,-25,1,-39,1
166,-5,1,16,1,21,1,-5,1,-13,1,18,1,-6,1,-111,1,-10,1,12,1,-22,1,-37,1
167,-4,1,16,1,20,1,-6,1,-12,1,18,1,-6,1,-108,1,-11,1,12,1,-20,1,-37,1
168,-4,1,16,1,20,1,-6,1,-12,1,18,1,-6,1,-111,1,-11,1,12,1,-21,1,-37,1
169,-5,1,16,1,21,1,-5,1,-13,1,18,1,-7,1,-114,1,-9,1,12,1,-22,1,-38,1
170,-5,1,15,1,20,1,-5,1,-12,1,17,1,-7,1,-118,1,-9,1,12,1,-22,1,-37,1
171,-5,1,16,1,21,1,-5,1,-13,1,18,1,-8,1,-104,1,-4,1,13,1,-21,1,-33,1
172,-6,1,16,1,22,1,-5,1,-14,1,19,1,-9,1,-101,1,-4,1,14,1,-22,1,-32,1
173,-5,1,17,1,22,1,-6,1,-13,1,19,1,-9,1,-104,1,-4,1,14,1,-22,1,-32,1
174,-4,1,19,1,23,1,-7,1,-13,1,21,1,-8,1,-109,1,-4,1,13,1,-22,1,-34,1
175,-2,1,18,1,20,1,-8,1,-11,1,19,1,-8,1,-114,1,-8,1,14,1,-20,1,-33,1
176,-1,1,18,1,19,1,-8,1,-10,1,18,1,-8,1,-100,1,-6,1,15,1,-16,1,-31,1
177,-1,1,18,1,19,1,-8,1,-10,1,18,1,-7,1,-97,1,-8,1,17,1,-14,1,-30,1
178,-2,1,18,1,20,1,-8,1,-11,1,19,1,-7,1,-100,1,-8,1,16,1,-14,1,-30,1
179,-2,1,19,1,21,1,-8,1,-11,1,20,1,-9,1,-103,1,-6,1,16,1,-16,1,-31,1
180,-2,1,18,1,20,1,-8,1,-11,1,19,1,-9,1,-107,1,-6,1,16,1,-16,1,-30,1
181,-2,1,17,1,19,1,-7,1,-10,1,18,1,-10,1,-93,1,-2,1,17,1,-14,1,-26,1
182,-2,1,17,1,19,1,-7,1,-10,1,18,1,-9,1,-89,1,0,1,17,1,-14,1,-23,1
183,-1,1,17,1,18,1,-8,1,-9,1,17,1,-9,1,-92,1,0,1,17,1,-15,1,-23,1
184,0,1,19,1,19,1,-9,1,-9,1,19,1,-10,1,-99,1,0,1,16,1,-15,1,-25,1
185,0,1,17,1,17,1,-8,1,-8,1,17,1,-10,1,-105,1,-3,1,17,1,-13,1,-25,1
186,1,1,17,1,16,1,-9,1,-7,1,17,1,-10,1,-92,1,-2,1,19,1,-9,1,-22,1
187,0,1,18,1,18,1,-9,1,-9,1,18,1,-9,1,-89,1,-3,1,19,1,-7,1,-21,1
188,0,1,18,1,18,1,-9,1,-9,1,18,1,-10,1,-92,1,-3,1,20,1,-7,1,-21,1
189,1,1,19,1,18,1,-10,1,-8,1,19,1,-12,1,-91,1,1,1,18,1,-8,1,-23,1
190,2,1,19,1,17,1,-10,1,-7,1,18,1,-12,1,-93,1,1,1,19,1,-8,1,-21,1
191,3,1,19,1,16,1,-11,1,-6,1,18,1,-12,1,-80,1,4,1,19,1,-6,1,-16,1
192,2,1,20,1,18,1,-11,1,-8,1,19,1,-13,1,-79,1,4,1,20,1,-6,1,-14,1
193,2,1,20,1,18,1,-11,1,-8,1,19,1,-13,1,-83,1,3,1,20,1,-6,1,-13,1
194,3,1,21,1,18,1,-12,1,-7,1,20,1,-12,1,-88,1,3,1,20,1,-7,1,-14,1
195,4,1,20,1,16,1,-12,1,-6,1,18,1,-11,1,-94,1,0,1,20,1,-5,1,-14,1
196,4,1,20,1,16,1,-12,1,-6,1,18,1,-11,1,-83,1,2,1,21,1,-2,1,-12,1
197,4,1,20,1,16,1,-12,1,-6,1,18,1,-11,1,-81,1,2,1,23,1,0,1,-9,1
198,4,1,20,1,16,1,-12,1,-6,1,18,1,-11,1,-83,1,3,1,23,1,0,1,-9,1
199,3,1,21,1,18,1,-12,1,-7,1,20,1,-13,1,-87,1,5,1,22,1,-1,1,-11,1
200,5,1,21,1,16,1,-13,1,-5,1,19,1,-13,1,-91,1,5,1,23,1,0,1,-9,1
201,6,1,22,1,16,1,-14,1,-5,1,19,1,-14,1,-77,1,10,1,24,1,2,1,-5,1
202,7,1,22,1,15,1,-14,1,-4,1,19,1,-14,1,-74,1,10,1,25,1,3,1,-3,1
203,8,1,23,1,15,1,-15,1,-3,1,19,1,-14,1,-77,1,11,1,25,1,3,1,-3,1
204,9,1,25,1,16,1,-17,1,-3,1,21,1,-15,1,-84,1,11,1,24,1,2,1,-4,1
205,10,1,24,1,14,1,-17,1,-2,1,19,1,-15,1,-89,1,9,1,25,1,3,1,-4,1
206,10,1,24,1,14,1,-17,1,-2,1,19,1,-15,1,-76,1,11,1,27,1,6,1,-1,1
207,10,1,24,1,14,1,-17,1,-2,1,19,1,-15,1,-73,1,11,1,28,1,8,1,1,1
208,9,1,24,1,15,1,-16,1,-3,1,20,1,-15,1,-74,1,13,1,28,1,9,1,3,1
209,9,1,24,1,15,1,-16,1,-3,1,20,1,-17,1,-78,1,14,1,28,1,9,1,2,1
210,10,1,24,1,14,1,-17,1,-2,1,19,1,-18,1,-81,1,14,1,29,1,11,1,3,1
211,12,1,25,1,13,1,-18,1,0,1,19,1,-18,1,-66,1,19,1,31,1,13,1,6,1
212,13,1,26,1,13,1,-19,1,0,1,20,1,-18,1,-63,1,21,1,32,1,15,1,8,1
213,13,1,26,1,13,1,-19,1,0,1,20,1,-18,1,-66,1,22,1,33,1,16,1,9,1
214,15,1,29,1,14,1,-22,1,1,1,22,1,-19,1,-72,1,23,1,32,1,16,1,8,1
215,16,1,28,1,12,1,-22,1,2,1,20,1,-19,1,-76,1,21,1,34,1,18,1,10,1
216,18,1,28,1,10,1,-23,1,4,1,19,1,-19,1,-63,1,24,1,37,1,23,1,14,1
217,18,1,29,1,11,1,-23,1,4,1,20,1,-20,1,-60,1,22,1,39,1,24,1,16,1
218,19,1,29,1,10,1,-24,1,5,1,20,1,-20,1,-61,1,22,1,41,1,25,1,18,1
219,18,1,31,1,13,1,-24,1,3,1,22,1,-22,1,-65,1,24,1,41,1,25,1,18,1
220,20,1,30,1,10,1,-25,1,5,1,20,1,-23,1,-67,1,23,1,41,1,26,1,19,1
221,21,1,31,1,10,1,-26,1,6,1,21,1,-24,1,-52,1,28,1,42,1,30,1,23,1
222,23,1,32,1,9,1,-27,1,7,1,21,1,-24,1,-50,1,29,1,43,1,32,1,26,1
223,25,1,33,1,8,1,-29,1,9,1,21,1,-24,1,-53,1,31,1,44,1,33,1,28,1
224,28,1,34,1,6,1,-31,1,11,1,20,1,-26,1,-60,1,32,1,44,1,34,1,29,1
225,29,1,33,1,4,1,-31,1,13,1,19,1,-26,1,-65,1,31,1,47,1,36,1,32,1
226,31,1,34,1,3,1,-32,1,14,1,19,1,-28,1,-52,1,34,1,49,1,41,1,36,1
227,31,1,35,1,4,1,-33,1,14,1,20,1,-29,1,-49,1,33,1,52,1,45,1,39,1
228,32,1,36,1,4,1,-34,1,14,1,20,1,-31,1,-49,1,34,1,53,1,48,1,41,1
229,32,1,38,1,6,1,-35,1,13,1,22,1,-33,1,-52,1,35,1,53,1,48,1,41,1
230,35,1,38,1,3,1,-36,1,16,1,21,1,-34,1,-55,1,34,1,55,1,50,1,44,1
231,37,1,39,1,2,1,-38,1,18,1,21,1,-35,1,-41,1,40,1,57,1,56,1,49,1
232,39,1,41,1,2,1,-40,1,19,1,22,1,-35,1,-39,1,42,1,59,1,58,1,53,1
233,42,1,43,1,1,1,-42,1,21,1,22,1,-36,1,-39,1,45,1,60,1,61,1,55,1
234,44,1,46,1,2,1,-45,1,21,1,24,1,-38,1,-46,1,46,1,61,1,62,1,57,1
235,45,1,46,1,1,1,-45,1,22,1,24,1,-39,1,-51,1,45,1,64,1,66,1,60,1
236,47,1,47,1,0,1,-47,1,24,1,24,1,-41,1,-37,1,48,1,68,1,70,1,66,1
237,47,1,48,1,1,1,-47,1,23,1,25,1,-41,1,-35,1,47,1,70,1,74,1,70,1
238,50,1,50,1,0,1,-50,1,25,1,25,1,-43,1,-35,1,49,1,71,1,78,1,72,1
239,50,1,52,1,2,1,-51,1,24,1,27,1,-45,1,-40,1,49,1,71,1,79,1,72,1
240,53,1,52,1,-1,1,-52,1,27,1,26,1,-45,1,-44,1,48,1,74,1,82,1,77,1
241,56,1,52,1,-4,1,-54,1,30,1,24,1,-47,1,-28,1,53,1,77,1,88,1,82,1
242,57,1,53,1,-4,1,-55,1,31,1,25,1,-47,1,-26,1,54,1,79,1,91,1,85,1
243,60,1,55,1,-5,1,-57,1,33,1,25,1,-48,1,-28,1,56,1,81,1,93,1,87,1
244,63,1,58,1,-5,1,-60,1,34,1,27,1,-49,1,-35,1,58,1,82,1,94,1,88,1
245,63,1,57,1,-6,1,-60,1,35,1,26,1,-49,1,-39,1,57,1,85,1,96,1,91,1
246,63,1,58,1,-5,1,-60,1,34,1,27,1,-50,1,-26,1,61,1,88,1,101,1,96,1
247,63,1,60,1,-3,1,-61,1,33,1,29,1,-50,1,-22,1,60,1,90,1,103,1,98,1
248,63,1,61,1,-2,1,-62,1,33,1,30,1,-50,1,-22,1,61,1,92,1,104,1,100,1
249,62,1,62,1,0,1,-62,1,31,1,31,1,-50,1,-25,1,61,1,92,1,102,1,99,1
250,62,1,62,1,0,1,-62,1,31,1,31,1,-50,1,-28,1,60,1,93,1,104,1,100,1
251,62,1,63,1,1,1,-62,1,31,1,32,1,-48,1,-13,1,65,1,94,1,107,1,102,1
252,61,1,64,1,3,1,-62,1,29,1,34,1,-47,1,-11,1,65,1,94,1,108,1,102,1
253,60,1,67,1,7,1,-63,1,27,1,37,1,-46,1,-14,1,66,1,94,1,108,1,100,1
254,60,1,69,1,9,1,-64,1,26,1,39,1,-44,1,-23,1,65,1,93,1,105,1,97,1
255,59,1,69,1,10,1,-64,1,25,1,40,1,-42,1,-27,1,64,1,92,1,104,1,96,1
256,56,1,70,1,14,1,-63,1,21,1,42,1,-40,1,-14,1,66,1,93,1,103,1,97,1
257,51,1,71,1,20,1,-61,1,16,1,46,1,-38,1,-10,1,66,1,92,1,101,1,96,1
258,47,1,70,1,23,1,-58,1,12,1,47,1,-37,1,-10,1,65,1,91,1,97,1,91,1
259,43,1,69,1,26,1,-56,1,9,1,48,1,-35,1,-14,1,65,1,87,1,92,1,85,1
260,41,1,66,1,25,1,-53,1,8,1,46,1,-32,1,-17,1,61,1,84,1,87,1,79,1
261,38,1,65,1,27,1,-51,1,6,1,46,1,-30,1,-3,1,63,1,82,1,85,1,75,1
262,35,1,63,1,28,1,-49,1,4,1,46,1,-26,1,-2,1,60,1,78,1,80,1,69,1
263,32,1,63,1,31,1,-47,1,1,1,47,1,-23,1,-6,1,58,1,74,1,74,1,63,1
264,29,1,62,1,33,1,-45,1,-2,1,48,1,-21,1,-14,1,55,1,68,1,67,1,54,1
265,26,1,60,1,34,1,-43,1,-4,1,47,1,-18,1,-20,1,50,1,64,1,62,1,48,1
266,21,1,57,1,36,1,-39,1,-7,1,47,1,-15,1,-9,1,49,1,60,1,59,1,44,1
267,16,1,55,1,39,1,-35,1,-11,1,47,1,-12,1,-7,1,45,1,56,1,53,1,39,1
268,11,1,53,1,42,1,-32,1,-15,1,48,1,-10,1,-10,1,42,1,50,1,46,1,32,1
269,8,1,50,1,42,1,-29,1,-17,1,46,1,-9,1,-15,1,39,1,43,1,38,1,21,1
270,6,1,45,1,39,1,-25,1,-16,1,42,1,-8,1,-20,1,34,1,39,1,33,1,13,1
271,4,1,42,1,38,1,-23,1,-17,1,40,1,-6,1,-9,1,33,1,34,1,29,1,9,1
272,1,1,38,1,37,1,-19,1,-18,1,38,1,-5,1,-11,1,28,1,30,1,23,1,3,1
273,-2,1,36,1,38,1,-17,1,-20,1,37,1,-4,1,-15,1,26,1,24,1,19,1,-3,1
274,-4,1,33,1,37,1,-14,1,-20,1,35,1,-3,1,-26,1,21,1,18,1,13,1,-9,1
275,-6,1,29,1,35,1,-11,1,-20,1,32,1,-1,1,-33,1,15,1,14,1,10,1,-13,1
276,-9,1,27,1,36,1,-9,1,-22,1,31,1,0,1,-22,1,15,1,12,1,9,1,-15,1
277,-11,1,24,1,35,1,-6,1,-23,1,29,1,0,1,-21,1,11,1,9,1,7,1,-18,1
278,-14,1,22,1,36,1,-4,1,-25,1,29,1,0,1,-25,1,9,1,5,1,2,1,-23,1
279,-15,1,21,1,36,1,-3,1,-25,1,28,1,0,1,-32,1,6,1,0,1,-2,1,-30,1
280,-15,1,18,1,33,1,-1,1,-24,1,25,1,-1,1,-37,1,2,1,-2,1,-5,1,-34,1
281,-15,1,16,1,31,1,0,1,-23,1,23,1,-1,1,-25,1,3,1,-4,1,-6,1,-35,1
282,-15,1,14,1,29,1,0,1,-22,1,21,1,-1,1,-26,1,0,1,-6,1,-8,1,-37,1
283,-15,1,12,1,27,1,1,1,-21,1,19,1,0,1,-28,1,0,1,-8,1,-11,1,-39,1
284,-16,1,12,1,28,1,2,1,-22,1,20,1,0,1,-38,1,-3,1,-12,1,-14,1,-43,1
285,-17,1,9,1,26,1,4,1,-21,1,17,1,0,1,-46,1,-8,1,-13,1,-14,1,-45,1
286,-19,1,8,1,27,1,5,1,-23,1,17,1,1,1,-32,1,-8,1,-14,1,-14,1,-45,1
287,-21,1,6,1,27,1,7,1,-24,1,16,1,2,1,-30,1,-10,1,-15,1,-14,1,-45,1
288,-21,1,5,1,26,1,8,1,-23,1,15,1,1,1,-31,1,-10,1,-17,1,-15,1,-48,1
289,-22,1,5,1,27,1,8,1,-24,1,16,1,1,1,-38,1,-10,1,-20,1,-18,1,-52,1
290,-21,1,3,1,24,1,9,1,-22,1,13,1,1,1,-44,1,-13,1,-19,1,-18,1,-53,1
291,-20,1,2,1,22,1,9,1,-21,1,12,1,1,1,-33,1,-10,1,-19,1,-18,1,-53,1
292,-20,1,1,1,21,1,9,1,-20,1,11,1,1,1,-32,1,-11,1,-19,1,-19,1,-54,1
293,-20,1,1,1,21,1,9,1,-20,1,11,1,0,1,-33,1,-10,1,-21,1,-21,1,-55,1
294,-20,1,2,1,22,1,9,1,-21,1,12,1,0,1,-42,1,-13,1,-23,1,-24,1,-58,1
295,-21,1,0,1,21,1,10,1,-21,1,10,1,0,1,-47,1,-17,1,-23,1,-24,1,-58,1
296,-22,1,0,1,22,1,11,1,-22,1,11,1,1,1,-33,1,-16,1,-22,1,-21,1,-57,1
297,-23,1,-1,1,22,1,12,1,-23,1,10,1,1,1,-30,1,-18,1,-22,1,-21,1,-57,1
298,-23,1,-1,1,22,1,12,1,-23,1,10,1,1,1,-31,1,-18,1,-24,1,-21,1,-59,1
299,-24,1,0,1,24,1,12,1,-24,1,12,1,0,1,-36,1,-18,1,-26,1,-23,1,-61,1
300,-23,1,-1,1,22,1,12,1,-23,1,10,1,0,1,-38,1,-19,1,-25,1,-23,1,-61,1
301,-22,1,0,1,22,1,11,1,-22,1,11,1,-1,1,-27,1,-16,1,-25,1,-22,1,-60,1
302,-22,1,0,1,22,1,11,1,-22,1,11,1,-1,1,-28,1,-18,1,-25,1,-24,1,-60,1
303,-21,1,0,1,21,1,10,1,-21,1,10,1,0,1,-30,1,-17,1,-27,1,-25,1,-62,1
304,-19,1,0,1,19,1,9,1,-19,1,9,1,0,1,-38,1,-18,1,-28,1,-27,1,-64,1
305,-20,1,-2,1,18,1,11,1,-19,1,8,1,0,1,-42,1,-22,1,-27,1,-27,1,-64,1
306,-21,1,-3,1,18,1,12,1,-20,1,7,1,1,1,-29,1,-20,1,-25,1,-24,1,-62,1
307,-23,1,-3,1,20,1,13,1,-22,1,8,1,1,1,-25,1,-20,1,-25,1,-23,1,-62,1
308,-24,1,-3,1,21,1,13,1,-23,1,9,1,0,1,-25,1,-20,1,-26,1,-24,1,-63,1
309,-24,1,-2,1,22,1,13,1,-23,1,10,1,0,1,-30,1,-20,1,-28,1,-26,1,-66,1
310,-23,1,-3,1,20,1,13,1,-22,1,8,1,0,1,-35,1,-22,1,-28,1,-26,1,-67,1
311,-23,1,-2,1,21,1,12,1,-22,1,9,1,0,1,-22,1,-19,1,-27,1,-24,1,-64,1
312,-23,1,-2,1,21,1,12,1,-22,1,9,1,0,1,-22,1,-20,1,-27,1,-24,1,-63,1
313,-22,1,-1,1,21,1,11,1,-22,1,10,1,0,1,-23,1,-19,1,-28,1,-24,1,-64,1
314,-21,1,-1,1,20,1,11,1,-21,1,9,1,0,1,-32,1,-21,1,-28,1,-27,1,-66,1
315,-21,1,-4,1,17,1,12,1,-19,1,6,1,1,1,-37,1,-24,1,-27,1,-26,1,-65,1
316,-21,1,-5,1,16,1,13,1,-19,1,5,1,1,1,-23,1,-20,1,-26,1,-24,1,-63,1
317,-23,1,-5,1,18,1,14,1,-21,1,6,1,1,1,-20,1,-21,1,-26,1,-24,1,-61,1
318,-23,1,-5,1,18,1,14,1,-21,1,6,1,0,1,-20,1,-21,1,-28,1,-25,1,-62,1
319,-25,1,-4,1,21,1,14,1,-23,1,8,1,0,1,-26,1,-21,1,-29,1,-27,1,-65,1
320,-25,1,-5,1,20,1,15,1,-23,1,7,1,0,1,-30,1,-23,1,-28,1,-26,1,-65,1
321,-25,1,-5,1,20,1,15,1,-23,1,7,1,0,1,-18,1,-20,1,-27,1,-25,1,-64,1
322,-25,1,-4,1,21,1,14,1,-23,1,8,1,0,1,-18,1,-21,1,-27,1,-27,1,-64,1
323,-24,1,-4,1,20,1,14,1,-22,1,8,1,0,1,-19,1,-19,1,-28,1,-29,1,-64,1
324,-23,1,-4,1,19,1,13,1,-21,1,7,1,0,1,-27,1,-21,1,-29,1,-32,1,-65,1
325,-23,1,-6,1,17,1,14,1,-20,1,5,1,1,1,-32,1,-23,1,-28,1,-34,1,-64,1
326,-23,1,-6,1,17,1,14,1,-20,1,5,1,1,1,-18,1,-19,1,-28,1,-32,1,-62,1
327,-23,1,-6,1,17,1,14,1,-20,1,5,1,2,1,-15,1,-20,1,-27,1,-32,1,-61,1
328,-23,1,-5,1,18,1,14,1,-21,1,6,1,2,1,-15,1,-19,1,-29,1,-32,1,-62,1
329,-24,1,-5,1,19,1,14,1,-22,1,7,1,1,1,-22,1,-19,1,-30,1,-34,1,-65,1
330,-23,1,-5,1,18,1,14,1,-21,1,6,1,0,1,-26,1,-22,1,-30,1,-34,1,-64,1
331,-22,1,-4,1,18,1,13,1,-20,1,7,1,0,1,-14,1,-20,1,-29,1,-32,1,-63,1
332,-23,1,-5,1,18,1,14,1,-21,1,6,1,0,1,-15,1,-21,1,-29,1,-33,1,-63,1
333,-22,1,-5,1,17,1,13,1,-20,1,6,1,0,1,-16,1,-20,1,-31,1,-35,1,-64,1
334,-22,1,-5,1,17,1,13,1,-20,1,6,1,0,1,-23,1,-20,1,-32,1,-38,1,-66,1
335,-22,1,-7,1,15,1,14,1,-19,1,4,1,1,1,-26,1,-22,1,-31,1,-38,1,-66,1
336,-22,1,-8,1,14,1,15,1,-18,1,3,1,1,1,-12,1,-18,1,-30,1,-36,1,-65,1
337,-24,1,-8,1,16,1,16,1,-20,1,4,1,2,1,-9,1,-18,1,-30,1,-36,1,-65,1
338,-24,1,-7,1,17,1,15,1,-21,1,5,1,2,1,-6,1,-16,1,-30,1,-35,1,-65,1
339,-25,1,-7,1,18,1,16,1,-22,1,5,1,1,1,-15,1,-17,1,-32,1,-37,1,-67,1
340,-24,1,-8,1,16,1,16,1,-20,1,4,1,1,1,-20,1,-22,1,-32,1,-37,1,-67,1
341,-24,1,-8,1,16,1,16,1,-20,1,4,1,0,1,-7,1,-19,1,-31,1,-35,1,-66,1
342,-24,1,-8,1,16,1,16,1,-20,1,4,1,0,1,-7,1,-21,1,-32,1,-35,1,-65,1
343,-23,1,-7,1,16,1,15,1,-20,1,4,1,0,1,-9,1,-20,1,-33,1,-36,1,-66,1
344,-21,1,-6,1,15,1,13,1,-18,1,4,1,0,1,-15,1,-20,1,-34,1,-38,1,-68,1
345,-21,1,-8,1,13,1,14,1,-17,1,2,1,1,1,-19,1,-21,1,-33,1,-38,1,-69,1
346,-22,1,-9,1,13,1,15,1,-18,1,2,1,1,1,-7,1,-18,1,-32,1,-36,1,-67,1
347,-23,1,-10,1,13,1,16,1,-18,1,1,1,2,1,-5,1,-19,1,-32,1,-36,1,-67,1
348,-24,1,-9,1,15,1,16,1,-20,1,3,1,2,1,-6,1,-19,1,-32,1,-37,1,-69,1
349,-25,1,-8,1,17,1,16,1,-21,1,4,1,1,1,-12,1,-19,1,-34,1,-38,1,-71,1
350,-24,1,-9,1,15,1,16,1,-20,1,3,1,2,1,-15,1,-22,1,-33,1,-37,1,-71,1
351,-23,1,-9,1,14,1,16,1,-19,1,2,1,1,1,-3,1,-21,1,-34,1,-35,1,-70,1
352,-23,1,-9,1,14,1,16,1,-19,1,2,1,1,1,-4,1,-23,1,-33,1,-36,1,-69,1
353,-22,1,-8,1,14,1,15,1,-18,1,3,1,0,1,-6,1,-22,1,-34,1,-37,1,-70,1
354,-22,1,-7,1,15,1,14,1,-19,1,4,1,0,1,-14,1,-22,1,-35,1,-40,1,-72,1
355,-23,1,-9,1,14,1,16,1,-19,1,2,1,1,1,-19,1,-25,1,-35,1,-40,1,-72,1
356,-23,1,-10,1,13,1,16,1,-18,1,1,1,2,1,-7,1,-22,1,-35,1,-38,1,-72,1
357,-25,1,-10,1,15,1,17,1,-20,1,2,1,3,1,-5,1,-23,1,-34,1,-37,1,-71,1
358,-25,1,-9,1,16,1,17,1,-21,1,3,1,3,1,-2,1,-21,1,-34,1,-36,1,-73,1
359,-25,1,-9,1,16,1,17,1,-21,1,3,1,2,1,-9,1,-23,1,-36,1,-38,1,-76,1
360,-25,1,-10,1,15,1,17,1,-20,1,2,1,2,1,-14,1,-27,1,-36,1,-38,1,-76,1
361,-24,1,-11,1,13,1,17,1,-19,1,1,1,2,1,-2,1,-25,1,-36,1,-37,1,-75,1
362,-24,1,-12,1,12,1,18,1,-18,1,0,1,2,1,-3,1,-26,1,-36,1,-38,1,-75,1
363,-24,1,-11,1,13,1,17,1,-19,1,1,1,2,1,-6,1,-25,1,-36,1,-39,1,-76,1
364,-24,1,-11,1,13,1,17,1,-19,1,1,1,2,1,-22,1,-28,1,-37,1,-41,1,-77,1
365,-24,1,-13,1,11,1,18,1,-18,1,-1,1,3,1,-24,1,-30,1,-37,1,-40,1,-77,1
366,-25,1,-13,1,12,1,19,1,-19,1,-1,1,3,1,-9,1,-26,1,-36,1,-37,1,-75,1
367,-26,1,-13,1,13,1,19,1,-20,1,0,1,4,1,-6,1,-25,1,-36,1,-37,1,-74,1
368,-26,1,-12,1,14,1,19,1,-20,1,1,1,3,1,-6,1,-25,1,-36,1,-38,1,-76,1
369,-26,1,-12,1,14,1,19,1,-20,1,1,1,2,1,-13,1,-25,1,-38,1,-40,1,-79,1
370,-25,1,-13,1,12,1,19,1,-19,1,-1,1,2,1,-17,1,-28,1,-37,1,-40,1,-80,1
371,-25,1,-13,1,12,1,19,1,-19,1,-1,1,2,1,-6,1,-26,1,-36,1,-39,1,-79,1
372,-25,1,-13,1,12,1,19,1,-19,1,-1,1,2,1,-7,1,-28,1,-36,1,-39,1,-80,1
373,-24,1,-13,1,11,1,18,1,-18,1,-1,1,1,1,-8,1,-27,1,-36,1,-40,1,-81,1
374,-24,1,-12,1,12,1,18,1,-18,1,0,1,1,1,-16,1,-26,1,-38,1,-42,1,-83,1
375,-24,1,-13,1,11,1,18,1,-18,1,-1,1,2,1,-19,1,-29,1,-37,1,-42,1,-81,1
376,-25,1,-13,1,12,1,19,1,-19,1,-1,1,2,1,-5,1,-24,1,-36,1,-39,1,-79,1
377,-26,1,-12,1,14,1,19,1,-20,1,1,1,3,1,-4,1,-25,1,-36,1,-39,1,-79,1
378,-25,1,-11,1,14,1,18,1,-20,1,1,1,4,1,-3,1,-23,1,-37,1,-39,1,-80,1
379,-26,1,-11,1,15,1,18,1,-21,1,2,1,3,1,-12,1,-25,1,-39,1,-41,1,-83,1
380,-25,1,-13,1,12,1,19,1,-19,1,-1,1,4,1,-17,1,-29,1,-38,1,-41,1,-84,1
381,-24,1,-13,1,11,1,18,1,-18,1,-1,1,4,1,-5,1,-27,1,-36,1,-40,1,-83,1
382,-25,1,-14,1,11,1,19,1,-18,1,-2,1,4,1,-6,1,-28,1,-36,1,-40,1,-83,1
383,-24,1,-13,1,11,1,18,1,-18,1,-1,1,3,1,-5,1,-25,1,-37,1,-40,1,-84,1
384,-22,1,-10,1,12,1,16,1,-17,1,1,1,3,1,-14,1,-24,1,-37,1,-42,1,-86,1
385,-22,1,-11,1,11,1,16,1,-17,1,0,1,4,1,-18,1,-25,1,-36,1,-40,1,-84,1
386,-22,1,-9,1,13,1,15,1,-18,1,2,1,4,1,-3,1,-20,1,-35,1,-37,1,-82,1
387,-21,1,-9,1,12,1,15,1,-17,1,1,1,5,1,-2,1,-20,1,-35,1,-36,1,-80,1
388,-20,1,-8,1,12,1,14,1,-16,1,2,1,5,1,-2,1,-18,1,-35,1,-36,1,-81,1
389,-21,1,-7,1,14,1,14,1,-18,1,3,1,4,1,-10,1,-18,1,-35,1,-37,1,-83,1
390,-20,1,-6,1,14,1,13,1,-17,1,4,1,5,1,-13,1,-21,1,-33,1,-36,1,-83,1
391,-19,1,-6,1,13,1,12,1,-16,1,3,1,6,1,-2,1,-20,1,-32,1,-33,1,-80,1
392,-20,1,-6,1,14,1,13,1,-17,1,4,1,6,1,-3,1,-22,1,-31,1,-33,1,-79,1
393,-19,1,-5,1,14,1,12,1,-17,1,4,1,4,1,-4,1,-21,1,-31,1,-33,1,-79,1
394,-19,1,-2,1,17,1,10,1,-18,1,7,1,4,1,-10,1,-20,1,-31,1,-35,1,-81,1
395,-19,1,-2,1,17,1,10,1,-18,1,7,1,4,1,-13,1,-20,1,-31,1,-35,1,-80,1
396,-19,1,0,1,19,1,9,1,-19,1,9,1,4,1,0,1,-16,1,-30,1,-32,1,-77,1
397,-20,1,0,1,20,1,10,1,-20,1,10,1,4,1,1,1,-17,1,-30,1,-32,1,-77,1
398,-21,1,0,1,21,1,10,1,-21,1,10,1,4,1,1,1,-15,1,-31,1,-32,1,-79,1
399,-22,1,0,1,22,1,11,1,-22,1,11,1,3,1,-8,1,-18,1,-33,1,-34,1,-82,1
400,-22,1,0,1,22,1,11,1,-22,1,11,1,3,1,-16,1,-23,1,-32,1,-33,1,-82,1
401,-19,1,0,1,19,1,9,1,-19,1,9,1,3,1,-4,1,-22,1,-31,1,-32,1,-80,1
402,-19,1,-2,1,17,1,10,1,-18,1,7,1,4,1,-5,1,-24,1,-30,1,-32,1,-79,1
403,-18,1,-3,1,15,1,10,1,-17,1,6,1,4,1,-5,1,-22,1,-30,1,-33,1,-78,1
404,-16,1,-4,1,12,1,10,1,-14,1,4,1,3,1,-14,1,-22,1,-32,1,-36,1,-80,1
405,-16,1,-6,1,10,1,11,1,-13,1,2,1,2,1,-17,1,-24,1,-32,1,-36,1,-79,1
406,-17,1,-6,1,11,1,11,1,-14,1,2,1,1,1,-4,1,-21,1,-32,1,-35,1,-78,1
407,-17,1,-5,1,12,1,11,1,-15,1,3,1,1,1,-3,1,-22,1,-32,1,-36,1,-78,1
408,-17,1,-4,1,13,1,10,1,-15,1,4,1,0,1,-4,1,-22,1,-33,1,-35,1,-80,1
409,-18,1,-3,1,15,1,10,1,-17,1,6,1,0,1,-13,1,-24,1,-35,1,-37,1,-83,1
410,-18,1,-4,1,14,1,11,1,-16,1,5,1,0,1,-18,1,-29,1,-35,1,-36,1,-84,1
411,-18,1,-3,1,15,1,10,1,-17,1,6,1,0,1,-9,1,-28,1,-35,1,-35,1,-84,1
412,-19,1,-4,1,15,1,11,1,-17,1,5,1,0,1,-12,1,-31,1,-37,1,-36,1,-85,1
413,-20,1,-3,1,17,1,11,1,-19,1,7,1,0,1,-15,1,-30,1,-38,1,-40,1,-86,1
414,-21,1,-3,1,18,1,12,1,-20,1,7,1,0,1,-23,1,-29,1,-40,1,-43,1,-88,1
415,-22,1,-6,1,16,1,14,1,-19,1,5,1,0,1,-26,1,-31,1,-40,1,-45,1,-88,1
416,-23,1,-6,1,17,1,14,1,-20,1,5,1,1,1,-12,1,-26,1,-40,1,-43,1,-86,1
417,-25,1,-7,1,18,1,16,1,-22,1,5,1,2,1,-10,1,-27,1,-40,1,-43,1,-86,1
418,-27,1,-6,1,21,1,16,1,-24,1,7,1,1,1,-9,1,-26,1,-40,1,-43,1,-87,1
419,-28,1,-6,1,22,1,17,1,-25,1,8,1,1,1,-19,1,-28,1,-42,1,-45,1,-90,1
420,-27,1,-8,1,19,1,17,1,-23,1,5,1,3,1,-26,1,-33,1,-42,1,-44,1,-90,1
421,-26,1,-8,1,18,1,17,1,-22,1,5,1,3,1,-16,1,-32,1,-41,1,-43,1,-89,1
422,-26,1,-9,1,17,1,17,1,-22,1,4,1,4,1,-20,1,-35,1,-41,1,-43,1,-90,1
423,-25,1,-9,1,16,1,17,1,-21,1,3,1,4,1,-20,1,-33,1,-42,1,-45,1,-91,1
424,-26,1,-9,1,17,1,17,1,-22,1,4,1,4,1,-27,1,-33,1,-44,1,-49,1,-93,1
425,-27,1,-11,1,16,1,19,1,-22,1,2,1,4,1,-31,1,-35,1,-43,1,-49,1,-91,1
426,-29,1,-11,1,18,1,20,1,-24,1,3,1,4,1,-15,1,-31,1,-42,1,-48,1,-89,1
427,-31,1,-11,1,20,1,21,1,-26,1,4,1,4,1,-13,1,-31,1,-42,1,-47,1,-88,1
428,-31,1,-11,1,20,1,21,1,-26,1,4,1,3,1,-12,1,-30,1,-44,1,-47,1,-89,1
429,-31,1,-11,1,20,1,21,1,-26,1,4,1,3,1,-21,1,-32,1,-45,1,-49,1,-91,1
430,-29,1,-12,1,17,1,20,1,-23,1,2,1,3,1,-28,1,-36,1,-44,1,-49,1,-91,1
431,-28,1,-13,1,15,1,20,1,-22,1,1,1,4,1,-19,1,-36,1,-42,1,-48,1,-90,1
432,-28,1,-14,1,14,1,21,1,-21,1,0,1,5,1,-20,1,-37,1,-42,1,-47,1,-90,1
433,-27,1,-12,1,15,1,19,1,-21,1,1,1,4,1,-19,1,-34,1,-42,1,-47,1,-90,1
434,-26,1,-11,1,15,1,18,1,-21,1,2,1,4,1,-26,1,-34,1,-43,1,-49,1,-92,1
435,-27,1,-13,1,14,1,20,1,-21,1,0,1,4,1,-28,1,-34,1,-42,1,-49,1,-90,1
436,-28,1,-14,1,14,1,21,1,-21,1,0,1,4,1,-13,1,-30,1,-42,1,-48,1,-87,1
437,-30,1,-14,1,16,1,22,1,-23,1,1,1,5,1,-10,1,-31,1,-42,1,-47,1,-85,1
438,-31,1,-13,1,18,1,22,1,-25,1,2,1,3,1,-10,1,-30,1,-42,1,-48,1,-85,1
439,-32,1,-13,1,19,1,22,1,-26,1,3,1,2,1,-19,1,-32,1,-43,1,-50,1,-88,1
440,-31,1,-14,1,17,1,22,1,-24,1,1,1,3,1,-25,1,-36,1,-43,1,-49,1,-88,1
441,-29,1,-14,1,15,1,21,1,-22,1,0,1,4,1,-15,1,-35,1,-41,1,-46,1,-86,1
442,-28,1,-14,1,14,1,21,1,-21,1,0,1,5,1,-18,1,-37,1,-41,1,-47,1,-86,1
443,-27,1,-13,1,14,1,20,1,-21,1,0,1,5,1,-18,1,-35,1,-41,1,-47,1,-86,1
444,-26,1,-11,1,15,1,18,1,-21,1,2,1,5,1,-27,1,-35,1,-42,1,-49,1,-88,1
445,-27,1,-13,1,14,1,20,1,-21,1,0,1,5,1,-30,1,-36,1,-41,1,-48,1,-86,1
446,-28,1,-13,1,15,1,20,1,-22,1,1,1,5,1,-16,1,-32,1,-40,1,-47,1,-83,1
447,-30,1,-13,1,17,1,21,1,-24,1,2,1,5,1,-14,1,-33,1,-40,1,-47,1,-82,1
448,-30,1,-13,1,17,1,21,1,-24,1,2,1,4,1,-15,1,-32,1,-41,1,-48,1,-83,1
449,-31,1,-12,1,19,1,21,1,-25,1,3,1,3,1,-22,1,-33,1,-42,1,-49,1,-85,1
450,-29,1,-13,1,16,1,21,1,-23,1,1,1,4,1,-27,1,-37,1,-40,1,-48,1,-86,1
451,-28,1,-14,1,14,1,21,1,-21,1,0,1,5,1,-19,1,-36,1,-40,1,-46,1,-84,1
452,-28,1,-13,1,15,1,20,1,-22,1,1,1,5,1,-22,1,-38,1,-40,1,-46,1,-84,1
453,-27,1,-12,1,15,1,19,1,-21,1,1,1,4,1,-23,1,-36,1,-40,1,-47,1,-85,1
454,-27,1,-12,1,15,1,19,1,-21,1,1,1,4,1,-32,1,-36,1,-40,1,-49,1,-87,1
455,-27,1,-14,1,13,1,20,1,-20,1,-1,1,4,1,-32,1,-36,1,-40,1,-47,1,-84,1
456,-28,1,-14,1,14,1,21,1,-21,1,0,1,4,1,-8,1,-27,1,-37,1,-43,1,-79,1
457,-28,1,-14,1,14,1,21,1,-21,1,0,1,4,1,7,1,-23,1,-34,1,-40,1,-74,1
458,-26,1,-12,1,14,1,19,1,-20,1,1,1,3,1,22,1,-15,1,-31,1,-39,1,-73,1
459,-24,1,-10,1,14,1,17,1,-19,1,2,1,4,1,30,1,-10,1,-29,1,-39,1,-72,1
460,-21,1,-9,1,12,1,15,1,-17,1,1,1,8,1,44,1,-3,1,-21,1,-36,1,-68,1
461,-16,1,-6,1,10,1,11,1,-13,1,2,1,15,1,79,1,15,1,-6,1,-29,1,-59,1
462,-10,1,0,1,10,1,5,1,-10,1,5,1,22,1,105,1,34,1,11,1,-19,1,-46,1
463,-2,1,7,1,9,1,-2,1,-5,1,8,1,29,1,133,1,61,1,33,1,-6,1,-28,1
464,7,1,17,1,10,1,-12,1,-1,1,14,1,33,1,154,1,88,1,59,1,10,1,-3,1
465,22,1,27,1,5,1,-24,1,9,1,16,1,32,1,175,1,114,1,90,1,39,1,32,1
466,40,1,42,1,2,1,-41,1,19,1,22,1,27,1,210,1,145,1,123,1,78,1,79,1
467,60,1,60,1,0,1,-60,1,30,1,30,1,21,1,230,1,171,1,158,1,120,1,129,1
468,79,1,79,1,0,1,-79,1,40,1,40,1,14,1,245,1,195,1,190,1,167,1,180,1
469,96,1,99,1,3,1,-97,1,47,1,51,1,5,1,242,1,205,1,215,1,211,1,226,1
470,113,1,122,1,9,1,-117,1,52,1,66,1,-11,1,232,1,203,1,232,1,257,1,271,1
471,125,1,143,1,18,1,-134,1,54,1,81,1,-34,1,223,1,190,1,237,1,297,1,305,1
472,131,1,160,1,29,1,-145,1,51,1,95,1,-64,1,184,1,157,1,226,1,323,1,322,1
473,133,1,171,1,38,1,-152,1,48,1,105,1,-92,1,139,1,118,1,202,1,333,1,321,1
474,126,1,175,1,49,1,-150,1,39,1,112,1,-113,1,85,1,70,1,163,1,319,1,295,1
475,110,1,167,1,57,1,-138,1,27,1,112,1,-122,1,49,1,22,1,115,1,288,1,249,1
476,81,1,153,1,72,1,-117,1,5,1,113,1,-120,1,30,1,-24,1,56,1,240,1,187,1
477,44,1,127,1,83,1,-85,1,-19,1,105,1,-109,1,2,1,-79,1,-12,1,174,1,106,1
478,6,1,97,1,91,1,-51,1,-42,1,94,1,-96,1,-20,1,-124,1,-76,1,103,1,24,1
479,-22,1,71,1,93,1,-24,1,-57,1,82,1,-81,1,-40,1,-155,1,-120,1,48,1,-36,1
480,-41,1,49,1,90,1,-4,1,-65,1,69,1,-67,1,-45,1,-171,1,-141,1,11,1,-75,1
481,-52,1,35,1,87,1,8,1,-69,1,61,1,-57,1,-27,1,-168,1,-146,1,-12,1,-93,1
482,-57,1,24,1,81,1,16,1,-69,1,52,1,-52,1,-19,1,-161,1,-142,1,-25,1,-99,1
483,-56,1,18,1,74,1,19,1,-65,1,46,1,-48,1,-9,1,-148,1,-133,1,-32,1,-98,1
484,-52,1,12,1,64,1,20,1,-58,1,38,1,-45,1,-6,1,-134,1,-121,1,-36,1,-94,1
485,-47,1,7,1,54,1,20,1,-50,1,30,1,-42,1,6,1,-120,1,-105,1,-33,1,-83,1
486,-41,1,8,1,49,1,16,1,-45,1,28,1,-37,1,35,1,-97,1,-87,1,-23,1,-68,1
487,-34,1,10,1,44,1,12,1,-39,1,27,1,-33,1,52,1,-79,1,-68,1,-14,1,-52,1
488,-27,1,11,1,38,1,8,1,-32,1,24,1,-28,1,66,1,-61,1,-52,1,-5,1,-40,1
489,-22,1,11,1,33,1,5,1,-27,1,22,1,-26,1,71,1,-50,1,-41,1,-1,1,-33,1
490,-19,1,12,1,31,1,3,1,-25,1,21,1,-23,1,75,1,-45,1,-33,1,2,1,-29,1
491,-15,1,13,1,28,1,1,1,-21,1,20,1,-20,1,92,1,-38,1,-26,1,5,1,-25,1
492,-14,1,13,1,27,1,0,1,-20,1,20,1,-18,1,94,1,-34,1,-21,1,4,1,-22,1
493,-12,1,13,1,25,1,0,1,-18,1,19,1,-15,1,95,1,-29,1,-18,1,3,1,-21,1
494,-10,1,13,1,23,1,-1,1,-16,1,18,1,-13,1,91,1,-25,1,-15,1,0,1,-21,1
495,-7,1,10,1,17,1,-1,1,-12,1,13,1,-10,1,95,1,-21,1,-11,1,2,1,-18,1
496,-7,1,9,1,16,1,-1,1,-11,1,12,1,-9,1,111,1,-14,1,-7,1,5,1,-13,1
497,-7,1,9,1,16,1,-1,1,-11,1,12,1,-8,1,113,1,-13,1,-6,1,7,1,-10,1
498,-8,1,10,1,18,1,-1,1,-13,1,14,1,-8,1,114,1,-11,1,-6,1,7,1,-10,1
499,-10,1,11,1,21,1,0,1,-15,1,16,1,-8,1,106,1,-13,1,-7,1,6,1,-13,1
500,-11,1,11,1,22,1,0,1,-16,1,16,1,-7,1,103,1,-17,1,-7,1,4,1,-14,1
501,-11,1,12,1,23,1,0,1,-17,1,17,1,-6,1,115,1,-16,1,-8,1,5,1,-14,1
502,-12,1,11,1,23,1,0,1,-17,1,17,1,-4,1,113,1,-17,1,-7,1,2,1,-15,1
503,-11,1,11,1,22,1,0,1,-16,1,16,1,-3,1,112,1,-15,1,-7,1,1,1,-16,1
504,-10,1,10,1,20,1,0,1,-15,1,15,1,-3,1,104,1,-14,1,-8,1,-2,1,-18,1
505,-8,1,7,1,15,1,0,1,-11,1,11,1,-4,1,103,1,-13,1,-7,1,-1,1,-15,1
506,-8,1,5,1,13,1,1,1,-10,1,9,1,-4,1,116,1,-9,1,-5,1,0,1,-11,1
507,-9,1,4,1,13,1,2,1,-11,1,8,1,-4,1,117,1,-9,1,-4,1,1,1,-8,1
508,-9,1,5,1,14,1,2,1,-11,1,9,1,-4,1,117,1,-8,1,-5,1,2,1,-8,1
509,-10,1,6,1,16,1,2,1,-13,1,11,1,-4,1,108,1,-10,1,-6,1,1,1,-10,1
510,-10,1,6,1,16,1,2,1,-13,1,11,1,-4,1,105,1,-14,1,-5,1,1,1,-11,1
511,-10,1,8,1,18,1,1,1,-14,1,13,1,-2,1,116,1,-13,1,-3,1,2,1,-11,1
512,-10,1,8,1,18,1,1,1,-14,1,13,1,-1,1,113,1,-15,1,-4,1,0,1,-12,1
513,-9,1,9,1,18,1,0,1,-13,1,13,1,-1,1,110,1,-13,1,-4,1,-2,1,-13,1
514,-8,1,9,1,17,1,0,1,-12,1,13,1,-2,1,102,1,-12,1,-5,1,-4,1,-15,1
515,-8,1,7,1,15,1,0,1,-11,1,11,1,-2,1,102,1,-11,1,-4,1,-2,1,-12,1
516,-8,1,6,1,14,1,1,1,-11,1,10,1,-2,1,116,1,-7,1,-3,1,1,1,-8,1
517,-8,1,6,1,14,1,1,1,-11,1,10,1,-2,1,117,1,-8,1,-2,1,3,1,-5,1
518,-9,1,6,1,15,1,1,1,-12,1,10,1,-2,1,116,1,-7,1,-2,1,2,1,-5,1
519,-9,1,6,1,15,1,1,1,-12,1,10,1,-2,1,108,1,-9,1,-3,1,0,1,-8,1
520,-9,1,6,1,15,1,1,1,-12,1,10,1,-1,1,105,1,-12,1,-2,1,0,1,-9,1
521,-9,1,7,1,16,1,1,1,-12,1,11,1,0,1,115,1,-12,1,-1,1,2,1,-8,1
522,-9,1,7,1,16,1,1,1,-12,1,11,1,0,1,113,1,-15,1,-1,1,2,1,-8,1
523,-8,1,9,1,17,1,0,1,-12,1,13,1,-1,1,112,1,-12,1,-1,1,1,1,-8,1
524,-7,1,9,1,16,1,-1,1,-11,1,12,1,-2,1,103,1,-12,1,-2,1,0,1,-9,1
525,-7,1,6,1,13,1,0,1,-10,1,9,1,-3,1,101,1,-12,1,-1,1,0,1,-7,1
526,-7,1,6,1,13,1,0,1,-10,1,9,1,-4,1,114,1,-8,1,-1,1,2,1,-3,1
527,-7,1,5,1,12,1,1,1,-9,1,8,1,-3,1,115,1,-8,1,0,1,3,1,-1,1
528,-7,1,5,1,12,1,1,1,-9,1,8,1,-3,1,116,1,-7,1,-1,1,3,1,-1,1
529,-7,1,6,1,13,1,0,1,-10,1,9,1,-3,1,107,1,-9,1,-2,1,2,1,-4,1
530,-6,1,7,1,13,1,0,1,-9,1,10,1,-3,1,104,1,-14,1,-1,1,3,1,-4,1
531,-6,1,7,1,13,1,0,1,-9,1,10,1,-2,1,115,1,-13,1,0,1,4,1,-3,1
532,-6,1,8,1,14,1,-1,1,-10,1,11,1,-1,1,114,1,-15,1,0,1,4,1,-2,1
533,-5,1,9,1,14,1,-2,1,-9,1,11,1,-2,1,112,1,-13,1,0,1,4,1,-3,1
534,-4,1,9,1,13,1,-2,1,-8,1,11,1,-3,1,104,1,-13,1,0,1,2,1,-5,1
535,-3,1,8,1,11,1,-2,1,-7,1,9,1,-3,1,104,1,-12,1,0,1,4,1,-3,1
536,-4,1,7,1,11,1,-1,1,-7,1,9,1,-4,1,118,1,-8,1,2,1,6,1,0,1
537,-5,1,7,1,12,1,-1,1,-8,1,9,1,-4,1,118,1,-10,1,3,1,7,1,2,1
538,-6,1,7,1,13,1,0,1,-9,1,10,1,-4,1,114,1,-11,1,3,1,6,1,2,1
539,-7,1,8,1,15,1,0,1,-11,1,11,1,-4,1,102,1,-14,1,1,1,5,1,-1,1
540,-6,1,8,1,14,1,-1,1,-10,1,11,1,-4,1,101,1,-17,1,2,1,7,1,0,1
541,-5,1,9,1,14,1,-2,1,-9,1,11,1,-4,1,112,1,-16,1,4,1,10,1,1,1
542,-4,1,9,1,13,1,-2,1,-8,1,11,1,-4,1,110,1,-18,1,3,1,9,1,1,1
543,-2,1,11,1,13,1,-4,1,-7,1,12,1,-4,1,109,1,-17,1,3,1,9,1,1,1
544,-2,1,11,1,13,1,-4,1,-7,1,12,1,-5,1,100,1,-16,1,3,1,6,1,0,1
545,-2,1,10,1,12,1,-4,1,-7,1,11,1,-5,1,99,1,-15,1,4,1,7,1,1,1
546,-2,1,10,1,12,1,-4,1,-7,1,11,1,-5,1,114,1,-10,1,5,1,10,1,4,1
547,-3,1,9,1,12,1,-3,1,-7,1,10,1,-5,1,114,1,-10,1,6,1,11,1,6,1
548,-3,1,9,1,12,1,-3,1,-7,1,10,1,-5,1,112,1,-8,1,6,1,12,1,5,1
549,-4,1,9,1,13,1,-2,1,-8,1,11,1,-6,1,103,1,-10,1,5,1,11,1,3,1
550,-2,1,9,1,11,1,-3,1,-6,1,10,1,-6,1,99,1,-13,1,6,1,12,1,4,1
551,0,1,10,1,10,1,-5,1,-5,1,10,1,-6,1,110,1,-13,1,6,1,14,1,6,1
552,0,1,11,1,11,1,-5,1,-5,1,11,1,-6,1,107,1,-16,1,7,1,14,1,6,1
553,1,1,12,1,11,1,-6,1,-5,1,12,1,-6,1,103,1,-15,1,7,1,13,1,6,1
554,2,1,13,1,11,1,-7,1,-4,1,12,1,-6,1,95,1,-14,1,6,1,12,1,5,1
555,3,1,11,1,8,1,-7,1,-2,1,10,1,-7,1,95,1,-12,1,7,1,14,1,7,1
556,3,1,12,1,9,1,-7,1,-3,1,11,1,-7,1,109,1,-7,1,10,1,16,1,11,1
557,1,1,12,1,11,1,-6,1,-5,1,12,1,-7,1,109,1,-6,1,12,1,17,1,13,1
558,0,1,12,1,12,1,-6,1,-6,1,12,1,-7,1,106,1,-6,1,12,1,17,1,12,1
559,0,1,12,1,12,1,-6,1,-6,1,12,1,-9,1,99,1,-7,1,11,1,16,1,9,1
560,2,1,12,1,10,1,-7,1,-4,1,11,1,-9,1,100,1,-9,1,11,1,18,1,10,1
561,2,1,12,1,10,1,-7,1,-4,1,11,1,-8,1,109,1,-9,1,12,1,20,1,12,1
562,3,1,13,1,10,1,-8,1,-3,1,12,1,-8,1,106,1,-13,1,12,1,21,1,13,1
563,4,1,14,1,10,1,-9,1,-3,1,12,1,-8,1,103,1,-11,1,12,1,21,1,13,1
564,5,1,15,1,10,1,-10,1,-2,1,13,1,-9,1,94,1,-10,1,12,1,18,1,11,1
565,6,1,15,1,9,1,-10,1,-1,1,12,1,-9,1,95,1,-9,1,14,1,19,1,13,1
566,5,1,15,1,10,1,-10,1,-2,1,13,1,-10,1,108,1,-4,1,16,1,21,1,16,1
567,5,1,15,1,10,1,-10,1,-2,1,13,1,-10,1,108,1,-4,1,17,1,23,1,18,1
568,4,1,15,1,11,1,-9,1,-3,1,13,1,-10,1,106,1,-2,1,17,1,23,1,17,1
569,4,1,15,1,11,1,-9,1,-3,1,13,1,-11,1,97,1,-4,1,16,1,22,1,14,1
570,5,1,15,1,10,1,-10,1,-2,1,13,1,-11,1,94,1,-7,1,16,1,24,1,15,1
571,7,1,15,1,8,1,-11,1,0,1,12,1,-11,1,104,1,-6,1,17,1,26,1,17,1
572,7,1,15,1,8,1,-11,1,0,1,12,1,-11,1,101,1,-10,1,18,1,26,1,19,1
573,8,1,17,1,9,1,-12,1,0,1,13,1,-12,1,97,1,-10,1,19,1,26,1,19,1
574,9,1,18,1,9,1,-13,1,0,1,14,1,-12,1,89,1,-9,1,19,1,24,1,18,1
575,10,1,17,1,7,1,-13,1,2,1,12,1,-13,1,92,1,-5,1,20,1,26,1,20,1
576,11,1,17,1,6,1,-14,1,3,1,12,1,-13,1,106,1,0,1,22,1,28,1,22,1
577,11,1,18,1,7,1,-14,1,2,1,13,1,-13,1,107,1,1,1,23,1,29,1,24,1
578,10,1,18,1,8,1,-14,1,1,1,13,1,-14,1,104,1,2,1,23,1,30,1,22,1
579,10,1,19,1,9,1,-14,1,1,1,14,1,-14,1,96,1,2,1,22,1,29,1,20,1
580,12,1,19,1,7,1,-15,1,3,1,13,1,-14,1,94,1,-1,1,23,1,32,1,21,1
581,13,1,20,1,7,1,-16,1,3,1,14,1,-14,1,102,1,-1,1,25,1,34,1,25,1
582,13,1,20,1,7,1,-16,1,3,1,14,1,-14,1,99,1,-5,1,26,1,35,1,27,1
583,15,1,22,1,7,1,-18,1,4,1,15,1,-14,1,96,1,-4,1,26,1,35,1,28,1
584,17,1,23,1,6,1,-20,1,6,1,15,1,-16,1,92,1,0,1,26,1,34,1,26,1
585,18,1,21,1,3,1,-19,1,8,1,12,1,-17,1,93,1,1,1,27,1,36,1,28,1
586,17,1,21,1,4,1,-19,1,7,1,13,1,-18,1,106,1,7,1,30,1,39,1,31,1
587,17,1,21,1,4,1,-19,1,7,1,13,1,-18,1,106,1,8,1,31,1,40,1,33,1
588,17,1,22,1,5,1,-19,1,6,1,14,1,-18,1,103,1,9,1,31,1,40,1,33,1
589,17,1,24,1,7,1,-20,1,5,1,16,1,-20,1,94,1,9,1,31,1,39,1,31,1
590,19,1,24,1,5,1,-21,1,7,1,15,1,-20,1,91,1,6,1,33,1,42,1,32,1
591,21,1,26,1,5,1,-23,1,8,1,16,1,-20,1,100,1,7,1,36,1,45,1,35,1
592,21,1,27,1,6,1,-24,1,8,1,17,1,-20,1,97,1,4,1,37,1,47,1,37,1
593,23,1,29,1,6,1,-26,1,9,1,18,1,-21,1,92,1,5,1,38,1,48,1,38,1
594,24,1,29,1,5,1,-26,1,10,1,17,1,-22,1,85,1,7,1,39,1,49,1,38,1
595,26,1,28,1,2,1,-27,1,12,1,15,1,-23,1,88,1,10,1,40,1,52,1,41,1
596,28,1,28,1,0,1,-28,1,14,1,14,1,-24,1,103,1,16,1,41,1,56,1,45,1
597,29,1,28,1,-1,1,-28,1,15,1,14,1,-25,1,104,1,18,1,43,1,58,1,48,1
598,30,1,30,1,0,1,-30,1,15,1,15,1,-26,1,102,1,20,1,45,1,59,1,49,1
599,31,1,31,1,0,1,-31,1,16,1,16,1,-28,1,94,1,21,1,45,1,58,1,47,1
600,33,1,32,1,-1,1,-32,1,17,1,16,1,-29,1,93,1,20,1,47,1,61,1,50,1
601,34,1,34,1,0,1,-34,1,17,1,17,1,-30,1,102,1,21,1,50,1,64,1,54,1
602,36,1,35,1,-1,1,-35,1,19,1,17,1,-31,1,99,1,19,1,52,1,66,1,57,1
603,37,1,38,1,1,1,-37,1,18,1,20,1,-32,1,94,1,20,1,54,1,67,1,59,1
604,40,1,39,1,-1,1,-39,1,21,1,19,1,-34,1,87,1,23,1,55,1,69,1,59,1
605,43,1,39,1,-4,1,-41,1,24,1,18,1,-35,1,91,1,27,1,57,1,73,1,62,1
606,44,1,40,1,-4,1,-42,1,24,1,18,1,-37,1,106,1,34,1,60,1,79,1,67,1
607,46,1,40,1,-6,1,-43,1,26,1,17,1,-38,1,107,1,37,1,63,1,82,1,70,1
608,48,1,43,1,-5,1,-45,1,27,1,19,1,-40,1,106,1,40,1,65,1,84,1,72,1
609,49,1,45,1,-4,1,-47,1,27,1,21,1,-42,1,98,1,40,1,66,1,84,1,72,1
610,50,1,45,1,-5,1,-47,1,28,1,20,1,-42,1,97,1,39,1,68,1,87,1,76,1
611,52,1,47,1,-5,1,-49,1,29,1,21,1,-43,1,107,1,42,1,71,1,92,1,82,1
612,53,1,49,1,-4,1,-51,1,29,1,23,1,-43,1,104,1,42,1,73,1,95,1,85,1
613,56,1,51,1,-5,1,-53,1,31,1,23,1,-44,1,100,1,44,1,75,1,97,1,88,1
614,58,1,53,1,-5,1,-55,1,32,1,24,1,-46,1,93,1,46,1,75,1,99,1,88,1
615,62,1,53,1,-9,1,-57,1,36,1,22,1,-47,1,98,1,50,1,79,1,103,1,92,1
616,64,1,54,1,-10,1,-59,1,37,1,22,1,-48,1,112,1,57,1,82,1,108,1,98,1
617,66,1,55,1,-11,1,-60,1,39,1,22,1,-49,1,113,1,60,1,86,1,110,1,101,1
618,66,1,56,1,-10,1,-61,1,38,1,23,1,-50,1,110,1,63,1,88,1,111,1,103,1
619,66,1,58,1,-8,1,-62,1,37,1,25,1,-52,1,103,1,64,1,88,1,112,1,103,1
620,67,1,58,1,-9,1,-62,1,38,1,25,1,-52,1,104,1,65,1,91,1,114,1,106,1
621,66,1,60,1,-6,1,-63,1,36,1,27,1,-52,1,114,1,67,1,94,1,118,1,109,1
622,65,1,62,1,-3,1,-63,1,34,1,30,1,-51,1,111,1,66,1,95,1,120,1,111,1
623,66,1,65,1,-1,1,-65,1,34,1,32,1,-51,1,105,1,65,1,95,1,120,1,111,1
624,66,1,65,1,-1,1,-65,1,34,1,32,1,-51,1,97,1,66,1,95,1,119,1,110,1
625,67,1,65,1,-2,1,-66,1,35,1,32,1,-50,1,100,1,68,1,95,1,120,1,111,1
626,65,1,65,1,0,1,-65,1,33,1,33,1,-48,1,113,1,72,1,97,1,122,1,113,1
627,63,1,66,1,3,1,-64,1,30,1,35,1,-46,1,114,1,72,1,98,1,120,1,113,1
628,60,1,66,1,6,1,-63,1,27,1,36,1,-46,1,112,1,73,1,97,1,117,1,111,1
629,56,1,68,1,12,1,-62,1,22,1,40,1,-44,1,105,1,72,1,94,1,114,1,107,1
630,54,1,68,1,14,1,-61,1,20,1,41,1,-42,1,105,1,70,1,94,1,111,1,106,1
631,51,1,69,1,18,1,-60,1,17,1,44,1,-39,1,113,1,70,1,94,1,109,1,105,1
632,47,1,69,1,22,1,-58,1,13,1,46,1,-36,1,108,1,66,1,92,1,106,1,102,1
633,43,1,69,1,26,1,-56,1,9,1,48,1,-33,1,103,1,65,1,89,1,101,1,96,1
634,41,1,69,1,28,1,-55,1,7,1,49,1,-31,1,94,1,63,1,84,1,95,1,89,1
635,39,1,65,1,26,1,-52,1,7,1,46,1,-28,1,96,1,61,1,81,1,91,1,85,1
636,35,1,63,1,28,1,-49,1,4,1,46,1,-25,1,107,1,62,1,78,1,87,1,80,1
637,31,1,61,1,30,1,-46,1,1,1,46,1,-21,1,105,1,58,1,73,1,81,1,75,1
638,26,1,59,1,33,1,-42,1,-3,1,46,1,-19,1,100,1,56,1,67,1,74,1,68,1
639,21,1,58,1,37,1,-39,1,-8,1,48,1,-17,1,91,1,52,1,61,1,66,1,60,1
640,18,1,55,1,37,1,-36,1,-9,1,46,1,-15,1,89,1,47,1,57,1,61,1,55,1
641,13,1,52,1,39,1,-32,1,-13,1,46,1,-12,1,96,1,44,1,54,1,57,1,51,1
642,8,1,48,1,40,1,-28,1,-16,1,44,1,-10,1,90,1,37,1,49,1,51,1,46,1
643,5,1,47,1,42,1,-26,1,-18,1,45,1,-9,1,81,1,32,1,43,1,44,1,39,1
644,3,1,43,1,40,1,-23,1,-18,1,42,1,-7,1,70,1,27,1,36,1,37,1,30,1
645,1,1,38,1,37,1,-19,1,-18,1,38,1,-5,1,71,1,24,1,31,1,33,1,25,1
646,-2,1,34,1,36,1,-16,1,-19,1,35,1,-3,1,81,1,23,1,27,1,31,1,20,1
647,-4,1,31,1,35,1,-13,1,-19,1,33,1,-2,1,77,1,18,1,22,1,27,1,15,1
648,-7,1,29,1,36,1,-11,1,-21,1,32,1,-1,1,70,1,13,1,17,1,21,1,10,1
649,-9,1,27,1,36,1,-9,1,-22,1,31,1,-1,1,59,1,8,1,11,1,14,1,3,1
650,-10,1,23,1,33,1,-6,1,-21,1,28,1,0,1,60,1,5,1,8,1,12,1,1,1
651,-11,1,21,1,32,1,-5,1,-21,1,26,1,0,1,67,1,3,1,6,1,10,1,0,1
652,-13,1,18,1,31,1,-2,1,-22,1,24,1,1,1,61,1,-2,1,4,1,7,1,-3,1
653,-14,1,16,1,30,1,-1,1,-22,1,23,1,0,1,54,1,-6,1,0,1,3,1,-7,1
654,-14,1,14,1,28,1,0,1,-21,1,21,1,0,1,44,1,-8,1,-3,1,0,1,-12,1
655,-14,1,10,1,24,1,2,1,-19,1,17,1,1,1,44,1,-10,1,-6,1,-1,1,-15,1
656,-15,1,9,1,24,1,3,1,-19,1,16,1,1,1,56,1,-10,1,-8,1,-1,1,-15,1
657,-17,1,8,1,25,1,4,1,-21,1,16,1,2,1,55,1,-14,1,-10,1,-4,1,-17,1
658,-18,1,8,1,26,1,5,1,-22,1,17,1,1,1,51,1,-16,1,-12,1,-6,1,-20,1
659,-20,1,7,1,27,1,6,1,-23,1,17,1,1,1,43,1,-18,1,-14,1,-9,1,-24,1
660,-19,1,6,1,25,1,6,1,-22,1,15,1,1,1,43,1,-20,1,-14,1,-9,1,-24,1
661,-19,1,4,1,23,1,7,1,-21,1,13,1,1,1,51,1,-20,1,-14,1,-9,1,-23,1
662,-20,1,2,1,22,1,9,1,-21,1,12,1,1,1,46,1,-24,1,-14,1,-10,1,-23,1
663,-19,1,2,1,21,1,8,1,-20,1,11,1,1,1,39,1,-27,1,-15,1,-12,1,-26,1
664,-18,1,2,1,20,1,8,1,-19,1,11,1,0,1,30,1,-28,1,-17,1,-15,1,-30,1
665,-18,1,0,1,18,1,9,1,-18,1,9,1,1,1,34,1,-28,1,-17,1,-15,1,-30,1
666,-19,1,0,1,19,1,9,1,-19,1,9,1,1,1,46,1,-26,1,-18,1,-14,1,-29,1
667,-21,1,-1,1,20,1,11,1,-21,1,9,1,2,1,45,1,-28,1,-18,1,-14,1,-28,1
668,-23,1,0,1,23,1,11,1,-23,1,11,1,1,1,41,1,-30,1,-19,1,-15,1,-29,1
669,-24,1,-1,1,23,1,12,1,-24,1,11,1,0,1,32,1,-32,1,-20,1,-18,1,-32,1
670,-23,1,-2,1,21,1,12,1,-22,1,9,1,0,1,34,1,-33,1,-19,1,-16,1,-31,1
671,-22,1,-3,1,19,1,12,1,-21,1,8,1,-1,1,43,1,-31,1,-19,1,-15,1,-29,1
672,-22,1,-4,1,18,1,13,1,-20,1,7,1,-1,1,39,1,-34,1,-20,1,-15,1,-29,1
673,-21,1,-3,1,18,1,12,1,-20,1,7,1,-1,1,34,1,-33,1,-20,1,-16,1,-31,1
674,-21,1,-3,1,18,1,12,1,-20,1,7,1,-1,1,27,1,-34,1,-21,1,-18,1,-34,1
675,-20,1,-4,1,16,1,12,1,-18,1,6,1,-1,1,29,1,-33,1,-20,1,-18,1,-34,1
676,-21,1,-4,1,17,1,12,1,-19,1,6,1,0,1,41,1,-30,1,-19,1,-17,1,-33,1
677,-21,1,-4,1,17,1,12,1,-19,1,6,1,0,1,41,1,-32,1,-19,1,-19,1,-33,1
678,-22,1,-3,1,19,1,12,1,-21,1,8,1,0,1,36,1,-33,1,-20,1,-20,1,-34,1
679,-23,1,-3,1,20,1,13,1,-22,1,8,1,0,1,29,1,-34,1,-21,1,-22,1,-36,1
680,-22,1,-4,1,18,1,13,1,-20,1,7,1,0,1,31,1,-35,1,-20,1,-20,1,-34,1
681,-21,1,-4,1,17,1,12,1,-19,1,6,1,0,1,40,1,-34,1,-20,1,-18,1,-31,1
682,-22,1,-5,1,17,1,13,1,-20,1,6,1,0,1,35,1,-36,1,-20,1,-18,1,-30,1
683,-21,1,-5,1,16,1,13,1,-19,1,5,1,-1,1,29,1,-36,1,-21,1,-19,1,-31,1
684,-21,1,-5,1,16,1,13,1,-19,1,5,1,-2,1,22,1,-36,1,-21,1,-21,1,-34,1
685,-21,1,-6,1,15,1,13,1,-18,1,4,1,-1,1,25,1,-33,1,-20,1,-20,1,-34,1
686,-22,1,-6,1,16,1,14,1,-19,1,5,1,-1,1,39,1,-29,1,-19,1,-18,1,-33,1
687,-22,1,-6,1,16,1,14,1,-19,1,5,1,-1,1,39,1,-30,1,-18,1,-19,1,-33,1
688,-23,1,-5,1,18,1,14,1,-21,1,6,1,-1,1,35,1,-31,1,-19,1,-20,1,-34,1
689,-24,1,-5,1,19,1,14,1,-22,1,7,1,-1,1,28,1,-32,1,-21,1,-22,1,-36,1
690,-23,1,-5,1,18,1,14,1,-21,1,6,1,-1,1,30,1,-33,1,-20,1,-20,1,-34,1
691,-22,1,-6,1,16,1,14,1,-19,1,5,1,0,1,39,1,-31,1,-19,1,-18,1,-30,1
692,-23,1,-7,1,16,1,15,1,-20,1,4,1,0,1,36,1,-34,1,-19,1,-18,1,-29,1
693,-21,1,-7,1,14,1,14,1,-18,1,3,1,0,1,31,1,-34,1,-19,1,-20,1,-30,1
694,-21,1,-7,1,14,1,14,1,-18,1,3,1,0,1,28,1,-31,1,-20,1,-21,1,-32,1
695,-20,1,-9,1,11,1,14,1,-16,1,1,1,0,1,31,1,-29,1,-20,1,-21,1,-31,1
696,-21,1,-8,1,13,1,14,1,-17,1,2,1,0,1,42,1,-26,1,-19,1,-20,1,-30,1
697,-22,1,-8,1,14,1,15,1,-18,1,3,1,0,1,41,1,-27,1,-18,1,-20,1,-30,1
698,-24,1,-7,1,17,1,15,1,-21,1,5,1,-1,1,36,1,-28,1,-19,1,-21,1,-31,1
699,-25,1,-6,1,19,1,15,1,-22,1,6,1,-2,1,28,1,-29,1,-21,1,-22,1,-33,1
700,-23,1,-7,1,16,1,15,1,-20,1,4,1,-1,1,29,1,-30,1,-20,1,-20,1,-32,1
701,-23,1,-7,1,16,1,15,1,-20,1,4,1,-1,1,38,1,-30,1,-19,1,-18,1,-29,1
702,-23,1,-7,1,16,1,15,1,-20,1,4,1,0,1,34,1,-33,1,-19,1,-18,1,-28,1
703,-22,1,-7,1,15,1,14,1,-19,1,4,1,0,1,29,1,-33,1,-19,1,-21,1,-29,1
704,-21,1,-7,1,14,1,14,1,-18,1,3,1,0,1,22,1,-33,1,-20,1,-23,1,-31,1
705,-21,1,-9,1,12,1,15,1,-17,1,1,1,-1,1,26,1,-32,1,-19,1,-23,1,-31,1
706,-21,1,-10,1,11,1,15,1,-16,1,0,1,-1,1,38,1,-28,1,-20,1,-22,1,-30,1
707,-23,1,-10,1,13,1,16,1,-18,1,1,1,-1,1,38,1,-29,1,-20,1,-22,1,-29,1
708,-23,1,-9,1,14,1,16,1,-19,1,2,1,-1,1,33,1,-30,1,-21,1,-22,1,-30,1
709,-24,1,-9,1,15,1,16,1,-20,1,3,1,-1,1,26,1,-31,1,-22,1,-23,1,-33,1
710,-23,1,-9,1,14,1,16,1,-19,1,2,1,-1,1,28,1,-31,1,-20,1,-21,1,-32,1
711,-23,1,-9,1,14,1,16,1,-19,1,2,1,0,1,37,1,-31,1,-20,1,-20,1,-30,1
712,-24,1,-9,1,15,1,16,1,-20,1,3,1,1,1,33,1,-34,1,-20,1,-20,1,-30,1
713,-23,1,-8,1,15,1,15,1,-19,1,3,1,0,1,27,1,-36,1,-20,1,-22,1,-31,1
714,-23,1,-9,1,14,1,16,1,-19,1,2,1,-1,1,19,1,-36,1,-22,1,-26,1,-34,1
715,-22,1,-11,1,11,1,16,1,-17,1,0,1,-1,1,24,1,-33,1,-22,1,-26,1,-34,1
716,-22,1,-11,1,11,1,16,1,-17,1,0,1,-1,1,38,1,-30,1,-21,1,-24,1,-32,1
717,-23,1,-11,1,12,1,17,1,-18,1,0,1,-1,1,37,1,-31,1,-22,1,-24,1,-31,1
718,-24,1,-10,1,14,1,17,1,-19,1,2,1,-1,1,32,1,-32,1,-23,1,-25,1,-32,1
719,-25,1,-10,1,15,1,17,1,-20,1,2,1,0,1,24,1,-32,1,-23,1,-27,1,-35,1
720,-24,1,-10,1,14,1,17,1,-19,1,2,1,1,1,26,1,-33,1,-21,1,-26,1,-34,1
721,-24,1,-10,1,14,1,17,1,-19,1,2,1,2,1,35,1,-32,1,-21,1,-24,1,-32,1
722,-24,1,-11,1,13,1,17,1,-19,1,1,1,3,1,31,1,-35,1,-21,1,-25,1,-32,1
723,-23,1,-10,1,13,1,16,1,-18,1,1,1,2,1,25,1,-35,1,-22,1,-26,1,-32,1
724,-23,1,-10,1,13,1,16,1,-18,1,1,1,1,1,17,1,-35,1,-24,1,-28,1,-35,1
725,-22,1,-12,1,10,1,17,1,-16,1,-1,1,0,1,22,1,-34,1,-25,1,-28,1,-35,1
726,-23,1,-12,1,11,1,17,1,-17,1,-1,1,0,1,34,1,-31,1,-25,1,-27,1,-33,1
727,-24,1,-12,1,12,1,18,1,-18,1,0,1,1,1,35,1,-31,1,-25,1,-27,1,-34,1
728,-26,1,-11,1,15,1,18,1,-21,1,2,1,1,1,31,1,-31,1,-26,1,-28,1,-36,1
729,-27,1,-11,1,16,1,19,1,-22,1,2,1,1,1,24,1,-30,1,-27,1,-29,1,-39,1
730,-25,1,-11,1,14,1,18,1,-20,1,1,1,2,1,25,1,-30,1,-25,1,-28,1,-37,1
731,-25,1,-11,1,14,1,18,1,-20,1,1,1,2,1,33,1,-28,1,-24,1,-26,1,-34,1
732,-25,1,-11,1,14,1,18,1,-20,1,1,1,3,1,29,1,-30,1,-23,1,-26,1,-33,1
733,-24,1,-10,1,14,1,17,1,-19,1,2,1,3,1,23,1,-30,1,-24,1,-27,1,-34,1
734,-23,1,-10,1,13,1,16,1,-18,1,1,1,2,1,17,1,-30,1,-27,1,-29,1,-36,1
735,-23,1,-12,1,11,1,17,1,-17,1,-1,1,1,1,23,1,-29,1,-28,1,-29,1,-35,1
736,-24,1,-13,1,11,1,18,1,-18,1,-1,1,1,1,35,1,-26,1,-28,1,-27,1,-34,1
737,-25,1,-13,1,12,1,19,1,-19,1,-1,1,1,1,35,1,-27,1,-29,1,-28,1,-34,1
738,-26,1,-12,1,14,1,19,1,-20,1,1,1,1,1,30,1,-27,1,-30,1,-29,1,-36,1
739,-26,1,-11,1,15,1,18,1,-21,1,2,1,1,1,23,1,-25,1,-31,1,-30,1,-38,1
740,-25,1,-12,1,13,1,18,1,-19,1,0,1,2,1,25,1,-23,1,-30,1,-28,1,-36,1
741,-25,1,-12,1,13,1,18,1,-19,1,0,1,3,1,32,1,-20,1,-29,1,-27,1,-33,1
742,-25,1,-13,1,12,1,19,1,-19,1,-1,1,4,1,27,1,-22,1,-29,1,-27,1,-32,1
743,-24,1,-13,1,11,1,18,1,-18,1,-1,1,4,1,22,1,-22,1,-30,1,-28,1,-33,1
744,-24,1,-12,1,12,1,18,1,-18,1,0,1,3,1,15,1,-23,1,-31,1,-30,1,-35,1
745,-24,1,-14,1,10,1,19,1,-17,1,-2,1,3,1,20,1,-23,1,-30,1,-28,1,-34,1
746,-25,1,-14,1,11,1,19,1,-18,1,-2,1,3,1,32,1,-22,1,-30,1,-27,1,-33,1
747,-25,1,-13,1,12,1,19,1,-19,1,-1,1,4,1,32,1,-24,1,-31,1,-27,1,-32,1
748,-26,1,-12,1,14,1,19,1,-20,1,1,1,3,1,29,1,-24,1,-32,1,-28,1,-34,1
749,-27,1,-12,1,15,1,19,1,-21,1,1,1,3,1,17,1,-25,1,-34,1,-30,1,-37,1
750,-26,1,-13,1,13,1,19,1,-20,1,0,1,4,1,21,1,-24,1,-33,1,-28,1,-36,1
751,-25,1,-14,1,11,1,19,1,-18,1,-2,1,5,1,30,1,-22,1,-33,1,-26,1,-33,1
752,-25,1,-14,1,11,1,19,1,-18,1,-2,1,5,1,27,1,-25,1,-33,1,-27,1,-33,1
753,-24,1,-13,1,11,1,18,1,-18,1,-1,1,5,1,21,1,-26,1,-34,1,-27,1,-33,1
754,-23,1,-12,1,11,1,17,1,-17,1,-1,1,5,1,16,1,-27,1,-34,1,-29,1,-34,1
755,-22,1,-13,1,9,1,17,1,-16,1,-2,1,5,1,22,1,-28,1,-32,1,-27,1,-33,1
756,-22,1,-12,1,10,1,17,1,-16,1,-1,1,5,1,33,1,-26,1,-31,1,-25,1,-31,1
757,-22,1,-11,1,11,1,16,1,-17,1,0,1,6,1,34,1,-27,1,-31,1,-24,1,-30,1
758,-21,1,-9,1,12,1,15,1,-17,1,1,1,6,1,29,1,-28,1,-31,1,-24,1,-31,1
759,-21,1,-8,1,13,1,14,1,-17,1,2,1,5,1,19,1,-29,1,-31,1,-25,1,-33,1
760,-19,1,-6,1,13,1,12,1,-16,1,3,1,4,1,26,1,-25,1,-29,1,-22,1,-31,1
761,-19,1,-6,1,13,1,12,1,-16,1,3,1,4,1,36,1,-21,1,-26,1,-19,1,-27,1
762,-19,1,-6,1,13,1,12,1,-16,1,3,1,5,1,34,1,-21,1,-26,1,-20,1,-26,1
763,-19,1,-4,1,15,1,11,1,-17,1,5,1,5,1,29,1,-21,1,-26,1,-20,1,-27,1
764,-19,1,-2,1,17,1,10,1,-18,1,7,1,4,1,22,1,-21,1,-26,1,-22,1,-29,1
765,-19,1,-2,1,17,1,10,1,-18,1,7,1,4,1,27,1,-21,1,-24,1,-21,1,-27,1
766,-20,1,-1,1,19,1,10,1,-20,1,9,1,4,1,39,1,-19,1,-23,1,-18,1,-25,1
767,-20,1,-1,1,19,1,10,1,-20,1,9,1,4,1,38,1,-20,1,-23,1,-18,1,-24,1
768,-20,1,0,1,20,1,10,1,-20,1,10,1,3,1,34,1,-18,1,-24,1,-18,1,-25,1
769,-21,1,0,1,21,1,10,1,-21,1,10,1,2,1,25,1,-19,1,-26,1,-21,1,-28,1
770,-20,1,0,1,20,1,10,1,-20,1,10,1,1,1,28,1,-16,1,-25,1,-19,1,-27,1
771,-19,1,0,1,19,1,9,1,-19,1,9,1,1,1,37,1,-14,1,-24,1,-19,1,-25,1
772,-19,1,-1,1,18,1,10,1,-19,1,8,1,1,1,33,1,-15,1,-22,1,-19,1,-25,1
773,-17,1,0,1,17,1,8,1,-17,1,8,1,1,1,28,1,-15,1,-23,1,-21,1,-25,1
774,-17,1,-1,1,16,1,9,1,-17,1,7,1,1,1,22,1,-17,1,-24,1,-23,1,-27,1
775,-15,1,-4,1,11,1,9,1,-13,1,3,1,2,1,28,1,-18,1,-23,1,-21,1,-27,1
776,-16,1,-6,1,10,1,11,1,-13,1,2,1,2,1,40,1,-18,1,-23,1,-19,1,-26,1
777,-17,1,-8,1,9,1,12,1,-13,1,0,1,2,1,39,1,-22,1,-23,1,-19,1,-25,1
778,-16,1,-8,1,8,1,12,1,-12,1,0,1,1,1,36,1,-22,1,-24,1,-21,1,-27,1
779,-17,1,-8,1,9,1,12,1,-13,1,0,1,1,1,25,1,-24,1,-26,1,-24,1,-29,1
780,-17,1,-9,1,8,1,13,1,-13,1,-1,1,1,1,29,1,-22,1,-25,1,-23,1,-27,1
781,-17,1,-9,1,8,1,13,1,-13,1,-1,1,1,1,38,1,-20,1,-25,1,-23,1,-27,1
782,-18,1,-10,1,8,1,14,1,-13,1,-1,1,1,1,31,1,-24,1,-26,1,-23,1,-27,1
783,-19,1,-10,1,9,1,14,1,-14,1,-1,1,1,1,23,1,-26,1,-27,1,-25,1,-30,1
784,-19,1,-12,1,7,1,15,1,-13,1,-3,1,1,1,14,1,-29,1,-30,1,-27,1,-33,1
785,-19,1,-14,1,5,1,16,1,-12,1,-5,1,2,1,18,1,-31,1,-30,1,-26,1,-34,1
786,-21,1,-16,1,5,1,18,1,-13,1,-6,1,4,1,30,1,-32,1,-30,1,-24,1,-32,1
787,-23,1,-17,1,6,1,20,1,-15,1,-6,1,5,1,29,1,-36,1,-30,1,-25,1,-32,1
788,-25,1,-16,1,9,1,20,1,-17,1,-4,1,5,1,26,1,-36,1,-31,1,-26,1,-33,1
789,-27,1,-16,1,11,1,21,1,-19,1,-3,1,4,1,19,1,-36,1,-32,1,-30,1,-35,1
790,-26,1,-16,1,10,1,21,1,-18,1,-3,1,5,1,23,1,-33,1,-33,1,-29,1,-35,1
791,-26,1,-17,1,9,1,21,1,-18,1,-4,1,6,1,32,1,-31,1,-33,1,-29,1,-34,1
792,-27,1,-18,1,9,1,22,1,-18,1,-5,1,6,1,25,1,-35,1,-34,1,-30,1,-35,1
793,-26,1,-17,1,9,1,21,1,-18,1,-4,1,7,1,17,1,-36,1,-36,1,-31,1,-37,1
794,-26,1,-19,1,7,1,22,1,-17,1,-6,1,7,1,7,1,-39,1,-37,1,-33,1,-40,1
795,-26,1,-21,1,5,1,23,1,-16,1,-8,1,7,1,13,1,-41,1,-37,1,-31,1,-40,1
796,-27,1,-22,1,5,1,24,1,-16,1,-9,1,7,1,25,1,-41,1,-36,1,-29,1,-38,1
797,-28,1,-21,1,7,1,24,1,-18,1,-7,1,7,1,24,1,-45,1,-36,1,-30,1,-36,1
798,-29,1,-20,1,9,1,24,1,-19,1,-6,1,6,1,24,1,-45,1,-36,1,-31,1,-37,1
799,-30,1,-20,1,10,1,25,1,-20,1,-5,1,6,1,17,1,-47,1,-38,1,-34,1,-40,1
800,-29,1,-21,1,8,1,25,1,-19,1,-7,1,6,1,22,1,-46,1,-38,1,-33,1,-39,1
801,-28,1,-21,1,7,1,24,1,-18,1,-7,1,6,1,32,1,-45,1,-39,1,-32,1,-39,1
802,-29,1,-22,1,7,1,25,1,-18,1,-8,1,7,1,25,1,-50,1,-40,1,-33,1,-39,1
803,-27,1,-21,1,6,1,24,1,-17,1,-8,1,7,1,18,1,-51,1,-40,1,-34,1,-40,1
804,-27,1,-20,1,7,1,23,1,-17,1,-7,1,7,1,9,1,-54,1,-41,1,-36,1,-42,1
805,-27,1,-22,1,5,1,24,1,-16,1,-9,1,7,1,13,1,-56,1,-40,1,-35,1,-41,1
806,-28,1,-22,1,6,1,25,1,-17,1,-8,1,8,1,24,1,-56,1,-39,1,-33,1,-38,1
807,-29,1,-23,1,6,1,26,1,-18,1,-9,1,9,1,23,1,-59,1,-39,1,-33,1,-36,1
808,-30,1,-21,1,9,1,25,1,-20,1,-6,1,9,1,22,1,-59,1,-39,1,-34,1,-38,1
809,-30,1,-21,1,9,1,25,1,-20,1,-6,1,8,1,16,1,-60,1,-41,1,-36,1,-41,1
810,-28,1,-22,1,6,1,25,1,-17,1,-8,1,7,1,22,1,-59,1,-41,1,-34,1,-42,1
811,-28,1,-22,1,6,1,25,1,-17,1,-8,1,7,1,32,1,-57,1,-41,1,-33,1,-41,1
812,-28,1,-22,1,6,1,25,1,-17,1,-8,1,7,1,25,1,-59,1,-41,1,-34,1,-41,1
813,-27,1,-20,1,7,1,23,1,-17,1,-7,1,7,1,17,1,-61,1,-42,1,-35,1,-42,1
814,-27,1,-19,1,8,1,23,1,-18,1,-6,1,7,1,7,1,-63,1,-43,1,-37,1,-44,1
815,-27,1,-20,1,7,1,23,1,-17,1,-7,1,8,1,12,1,-63,1,-42,1,-35,1,-42,1
816,-28,1,-20,1,8,1,24,1,-18,1,-6,1,8,1,24,1,-63,1,-41,1,-34,1,-39,1
817,-29,1,-20,1,9,1,24,1,-19,1,-6,1,9,1,23,1,-64,1,-42,1,-34,1,-39,1
818,-30,1,-19,1,11,1,24,1,-21,1,-4,1,7,1,23,1,-62,1,-42,1,-35,1,-40,1
819,-31,1,-20,1,11,1,25,1,-21,1,-5,1,7,1,16,1,-62,1,-43,1,-39,1,-43,1
820,-29,1,-21,1,8,1,25,1,-19,1,-7,1,6,1,24,1,-59,1,-42,1,-37,1,-41,1
821,-29,1,-21,1,8,1,25,1,-19,1,-7,1,6,1,34,1,-57,1,-41,1,-35,1,-40,1
822,-29,1,-21,1,8,1,25,1,-19,1,-7,1,6,1,29,1,-58,1,-40,1,-35,1,-41,1
823,-28,1,-20,1,8,1,24,1,-18,1,-6,1,6,1,21,1,-58,1,-42,1,-36,1,-42,1
824,-27,1,-19,1,8,1,23,1,-18,1,-6,1,6,1,9,1,-60,1,-43,1,-37,1,-44,1
825,-27,1,-20,1,7,1,23,1,-17,1,-7,1,7,1,12,1,-61,1,-43,1,-36,1,-43,1
826,-27,1,-20,1,7,1,23,1,-17,1,-7,1,7,1,22,1,-58,1,-42,1,-35,1,-42,1
827,-27,1,-20,1,7,1,23,1,-17,1,-7,1,8,1,21,1,-58,1,-40,1,-35,1,-42,1
828,-28,1,-19,1,9,1,23,1,-19,1,-5,1,7,1,20,1,-54,1,-40,1,-35,1,-42,1
829,-26,1,-18,1,8,1,22,1,-17,1,-5,1,6,1,19,1,-50,1,-38,1,-35,1,-43,1
830,-22,1,-17,1,5,1,19,1,-14,1,-6,1,6,1,31,1,-42,1,-32,1,-32,1,-40,1
831,-19,1,-15,1,4,1,17,1,-12,1,-6,1,9,1,52,1,-30,1,-24,1,-29,1,-34,1
832,-17,1,-12,1,5,1,14,1,-11,1,-4,1,13,1,60,1,-17,1,-11,1,-27,1,-28,1
833,-11,1,-6,1,5,1,8,1,-8,1,-1,1,19,1,65,1,1,1,4,1,-23,1,-18,1
834,-3,1,1,1,4,1,1,1,-3,1,2,1,26,1,67,1,22,1,24,1,-14,1,-6,1
835,9,1,9,1,0,1,-9,1,5,1,5,1,31,1,81,1,47,1,51,1,5,1,17,1
836,24,1,20,1,-4,1,-22,1,14,1,8,1,31,1,99,1,76,1,81,1,33,1,49,1
837,44,1,35,1,-9,1,-39,1,27,1,13,1,29,1,101,1,101,1,115,1,69,1,90,1
838,65,1,53,1,-12,1,-59,1,39,1,21,1,23,1,104,1,130,1,150,1,111,1,134,1
839,84,1,72,1,-12,1,-78,1,48,1,30,1,16,1,98,1,152,1,182,1,153,1,181,1
840,104,1,91,1,-13,1,-97,1,59,1,39,1,7,1,102,1,170,1,211,1,201,1,229,1
841,120,1,113,1,-7,1,-116,1,64,1,53,1,-9,1,100,1,176,1,229,1,245,1,271,1
842,130,1,136,1,6,1,-133,1,62,1,71,1,-32,1,70,1,163,1,234,1,278,1,301,1
843,137,1,154,1,17,1,-145,1,60,1,86,1,-62,1,22,1,132,1,222,1,298,1,312,1
844,139,1,166,1,27,1,-152,1,56,1,97,1,-91,1,-36,1,89,1,194,1,302,1,304,1
845,131,1,166,1,35,1,-148,1,48,1,101,1,-109,1,-80,1,41,1,154,1,289,1,274,1
846,113,1,161,1,48,1,-137,1,33,1,105,1,-116,1,-113,1,-6,1,105,1,258,1,225,1
847,84,1,148,1,64,1,-116,1,10,1,106,1,-112,1,-154,1,-60,1,46,1,208,1,157,1
848,45,1,124,1,79,1,-84,1,-17,1,102,1,-101,1,-190,1,-114,1,-23,1,142,1,73,1
849,6,1,93,1,87,1,-49,1,-40,1,90,1,-87,1,-224,1,-163,1,-86,1,72,1,-8,1
850,-22,1,66,1,88,1,-22,1,-55,1,77,1,-74,1,-233,1,-195,1,-130,1,21,1,-65,1
851,-42,1,44,1,86,1,-1,1,-64,1,65,1,-62,1,-226,1,-209,1,-153,1,-15,1,-100,1
852,-54,1,29,1,83,1,12,1,-68,1,56,1,-53,1,-225,1,-213,1,-159,1,-39,1,-118,1
853,-57,1,19,1,76,1,19,1,-66,1,47,1,-50,1,-222,1,-208,1,-154,1,-52,1,-126,1
854,-56,1,12,1,68,1,22,1,-62,1,40,1,-47,1,-222,1,-200,1,-144,1,-60,1,-127,1
855,-52,1,4,1,56,1,24,1,-54,1,30,1,-43,1,-209,1,-188,1,-131,1,-60,1,-124,1
856,-48,1,1,1,49,1,23,1,-48,1,25,1,-38,1,-188,1,-171,1,-115,1,-54,1,-114,1
857,-42,1,3,1,45,1,19,1,-43,1,24,1,-32,1,-176,1,-155,1,-96,1,-47,1,-101,1
858,-36,1,6,1,42,1,15,1,-39,1,24,1,-29,1,-157,1,-132,1,-78,1,-39,1,-88,1
859,-31,1,6,1,37,1,12,1,-34,1,21,1,-24,1,-143,1,-116,1,-62,1,-32,1,-77,1
860,-24,1,6,1,30,1,9,1,-27,1,18,1,-20,1,-118,1,-100,1,-48,1,-25,1,-66,1
861,-20,1,6,1,26,1,7,1,-23,1,16,1,-18,1,-97,1,-89,1,-39,1,-20,1,-58,1
862,-18,1,5,1,23,1,6,1,-20,1,14,1,-16,1,-93,1,-85,1,-34,1,-19,1,-55,1
863,-14,1,6,1,20,1,4,1,-17,1,13,1,-14,1,-92,1,-80,1,-29,1,-19,1,-56,1
864,-12,1,6,1,18,1,3,1,-15,1,12,1,-12,1,-100,1,-78,1,-24,1,-21,1,-56,1
865,-10,1,4,1,14,1,3,1,-12,1,9,1,-8,1,-94,1,-74,1,-19,1,-19,1,-53,1
866,-10,1,3,1,13,1,3,1,-11,1,8,1,-6,1,-84,1,-67,1,-14,1,-16,1,-50,1
867,-10,1,3,1,13,1,3,1,-11,1,8,1,-4,1,-83,1,-64,1,-12,1,-16,1,-49,1
868,-11,1,3,1,14,1,4,1,-12,1,8,1,-4,1,-84,1,-61,1,-12,1,-18,1,-50,1
869,-14,1,4,1,18,1,5,1,-16,1,11,1,-3,1,-94,1,-61,1,-12,1,-20,1,-52,1
870,-13,1,4,1,17,1,4,1,-15,1,10,1,-4,1,-83,1,-57,1,-10,1,-19,1,-52,1
871,-13,1,6,1,19,1,3,1,-16,1,12,1,-3,1,-72,1,-52,1,-8,1,-19,1,-51,1
872,-14,1,5,1,19,1,4,1,-16,1,12,1,-2,1,-73,1,-52,1,-7,1,-20,1,-51,1
873,-12,1,5,1,17,1,3,1,-14,1,11,1,-2,1,-75,1,-51,1,-7,1,-21,1,-51,1
874,-11,1,4,1,15,1,3,1,-13,1,9,1,0,1,-87,1,-51,1,-6,1,-24,1,-53,1
875,-9,1,0,1,9,1,4,1,-9,1,4,1,0,1,-86,1,-49,1,-4,1,-23,1,-52,1
876,-9,1,-1,1,8,1,5,1,-9,1,3,1,1,1,-76,1,-45,1,-2,1,-22,1,-51,1
877,-9,1,-2,1,7,1,5,1,-8,1,2,1,2,1,-74,1,-44,1,-1,1,-21,1,-50,1
878,-9,1,-1,1,8,1,5,1,-9,1,3,1,2,1,-70,1,-40,1,-1,1,-22,1,-52,1
879,-11,1,-1,1,10,1,6,1,-11,1,4,1,2,1,-85,1,-44,1,-2,1,-25,1,-55,1
880,-11,1,0,1,11,1,5,1,-11,1,5,1,1,1,-80,1,-43,1,-1,1,-25,1,-53,1
881,-11,1,1,1,12,1,5,1,-11,1,6,1,1,1,-70,1,-42,1,0,1,-24,1,-51,1
882,-13,1,1,1,14,1,6,1,-13,1,7,1,1,1,-70,1,-41,1,1,1,-25,1,-51,1
883,-12,1,1,1,13,1,5,1,-12,1,7,1,1,1,-71,1,-39,1,2,1,-25,1,-51,1
884,-12,1,0,1,12,1,6,1,-12,1,6,1,1,1,-87,1,-40,1,2,1,-27,1,-54,1
885,-10,1,-1,1,9,1,5,1,-10,1,4,1,2,1,-86,1,-38,1,3,1,-25,1,-53,1
886,-10,1,-3,1,7,1,6,1,-9,1,2,1,2,1,-78,1,-35,1,5,1,-23,1,-51,1
887,-9,1,-3,1,6,1,6,1,-8,1,1,1,2,1,-77,1,-34,1,7,1,-24,1,-51,1
888,-9,1,-1,1,8,1,5,1,-9,1,3,1,1,1,-73,1,-31,1,6,1,-24,1,-52,1
889,-11,1,-1,1,10,1,6,1,-11,1,4,1,1,1,-87,1,-36,1,6,1,-27,1,-54,1
890,-10,1,0,1,10,1,5,1,-10,1,5,1,1,1,-81,1,-34,1,7,1,-26,1,-52,1
891,-10,1,0,1,10,1,5,1,-10,1,5,1,2,1,-72,1,-32,1,8,1,-26,1,-49,1
892,-11,1,0,1,11,1,5,1,-11,1,5,1,2,1,-76,1,-32,1,8,1,-26,1,-49,1
893,-9,1,1,1,10,1,4,1,-9,1,5,1,2,1,-80,1,-30,1,8,1,-27,1,-50,1
894,-9,1,0,1,9,1,4,1,-9,1,4,1,1,1,-91,1,-31,1,8,1,-29,1,-52,1
895,-7,1,-1,1,6,1,4,1,-7,1,2,1,1,1,-86,1,-29,1,10,1,-26,1,-50,1
896,-7,1,-2,1,5,1,4,1,-6,1,1,1,0,1,-78,1,-27,1,12,1,-24,1,-49,1
897,-7,1,-2,1,5,1,4,1,-6,1,1,1,1,1,-79,1,-30,1,12,1,-24,1,-49,1
898,-8,1,0,1,8,1,4,1,-8,1,4,1,0,1,-77,1,-29,1,12,1,-25,1,-50,1
899,-9,1,0,1,9,1,4,1,-9,1,4,1,0,1,-87,1,-31,1,12,1,-28,1,-53,1
900,-8,1,0,1,8,1,4,1,-8,1,4,1,0,1,-80,1,-30,1,13,1,-29,1,-52,1
901,-8,1,1,1,9,1,3,1,-8,1,5,1,0,1,-71,1,-29,1,14,1,-29,1,-49,1
902,-9,1,2,1,11,1,3,1,-10,1,6,1,1,1,-76,1,-30,1,15,1,-30,1,-48,1
903,-7,1,2,1,9,1,2,1,-8,1,5,1,1,1,-80,1,-29,1,14,1,-31,1,-48,1
904,-7,1,1,1,8,1,3,1,-7,1,4,1,0,1,-93,1,-33,1,14,1,-32,1,-50,1
905,-5,1,-1,1,4,1,3,1,-5,1,1,1,0,1,-89,1,-33,1,15,1,-29,1,-49,1
906,-6,1,-2,1,4,1,4,1,-5,1,1,1,-1,1,-79,1,-31,1,17,1,-27,1,-48,1
907,-6,1,-3,1,3,1,4,1,-5,1,0,1,-1,1,-79,1,-32,1,19,1,-26,1,-47,1
908,-6,1,-1,1,5,1,3,1,-6,1,2,1,-2,1,-75,1,-29,1,20,1,-25,1,-47,1
909,-8,1,-1,1,7,1,4,1,-8,1,3,1,-2,1,-84,1,-32,1,19,1,-28,1,-49,1
910,-6,1,0,1,6,1,3,1,-6,1,3,1,-1,1,-76,1,-30,1,20,1,-27,1,-47,1
911,-6,1,2,1,8,1,2,1,-7,1,5,1,0,1,-67,1,-28,1,21,1,-27,1,-44,1
912,-6,1,2,1,8,1,2,1,-7,1,5,1,0,1,-71,1,-30,1,22,1,-27,1,-43,1
913,-4,1,3,1,7,1,0,1,-5,1,5,1,0,1,-75,1,-29,1,21,1,-28,1,-44,1
914,-4,1,3,1,7,1,0,1,-5,1,5,1,-1,1,-84,1,-29,1,21,1,-28,1,-46,1
915,-3,1,2,1,5,1,0,1,-4,1,3,1,-1,1,-79,1,-28,1,23,1,-25,1,-44,1
916,-4,1,1,1,5,1,1,1,-4,1,3,1,-1,1,-70,1,-26,1,25,1,-22,1,-43,1
917,-4,1,1,1,5,1,1,1,-4,1,3,1,-1,1,-71,1,-26,1,26,1,-21,1,-43,1
918,-3,1,1,1,4,1,1,1,-3,1,2,1,-1,1,-68,1,-24,1,26,1,-21,1,-43,1
919,-4,1,2,1,6,1,1,1,-5,1,4,1,-2,1,-78,1,-26,1,26,1,-23,1,-45,1
920,-3,1,3,1,6,1,0,1,-4,1,4,1,-2,1,-72,1,-25,1,27,1,-22,1,-43,1
921,-2,1,4,1,6,1,-1,1,-4,1,5,1,-3,1,-62,1,-23,1,28,1,-21,1,-41,1
922,-2,1,4,1,6,1,-1,1,-4,1,5,1,-3,1,-65,1,-25,1,29,1,-22,1,-40,1
923,0,1,5,1,5,1,-2,1,-2,1,5,1,-4,1,-68,1,-23,1,27,1,-23,1,-40,1
924,0,1,5,1,5,1,-2,1,-2,1,5,1,-3,1,-81,1,-26,1,27,1,-24,1,-41,1
925,0,1,4,1,4,1,-2,1,-2,1,4,1,-3,1,-76,1,-25,1,30,1,-21,1,-39,1
926,0,1,3,1,3,1,-1,1,-1,1,3,1,-3,1,-68,1,-23,1,32,1,-19,1,-36,1
927,0,1,3,1,3,1,-1,1,-1,1,3,1,-3,1,-66,1,-23,1,34,1,-18,1,-36,1
928,0,1,4,1,4,1,-2,1,-2,1,4,1,-3,1,-62,1,-20,1,34,1,-17,1,-36,1
929,-1,1,5,1,6,1,-2,1,-3,1,5,1,-4,1,-74,1,-22,1,33,1,-20,1,-39,1
930,0,1,5,1,5,1,-2,1,-2,1,5,1,-6,1,-68,1,-19,1,33,1,-18,1,-36,1
931,1,1,6,1,5,1,-3,1,-2,1,6,1,-6,1,-60,1,-16,1,34,1,-17,1,-33,1
932,1,1,7,1,6,1,-4,1,-2,1,7,1,-6,1,-63,1,-16,1,34,1,-18,1,-32,1
933,2,1,8,1,6,1,-5,1,-2,1,7,1,-7,1,-66,1,-14,1,35,1,-17,1,-32,1
934,3,1,8,1,5,1,-5,1,-1,1,7,1,-6,1,-82,1,-18,1,35,1,-18,1,-34,1
935,4,1,8,1,4,1,-6,1,0,1,6,1,-6,1,-76,1,-16,1,37,1,-15,1,-31,1
936,4,1,8,1,4,1,-6,1,0,1,6,1,-6,1,-65,1,-13,1,40,1,-12,1,-28,1
937,3,1,8,1,5,1,-5,1,-1,1,7,1,-6,1,-63,1,-13,1,41,1,-11,1,-27,1
938,2,1,9,1,7,1,-5,1,-2,1,8,1,-7,1,-60,1,-9,1,41,1,-12,1,-27,1
939,1,1,8,1,7,1,-4,1,-3,1,8,1,-8,1,-67,1,-10,1,41,1,-13,1,-29,1
940,3,1,8,1,5,1,-5,1,-1,1,7,1,-9,1,-61,1,-7,1,42,1,-11,1,-27,1
941,4,1,9,1,5,1,-6,1,0,1,7,1,-9,1,-53,1,-4,1,43,1,-9,1,-24,1
942,4,1,9,1,5,1,-6,1,0,1,7,1,-10,1,-57,1,-5,1,44,1,-9,1,-21,1
943,6,1,11,1,5,1,-8,1,1,1,8,1,-10,1,-61,1,-4,1,45,1,-9,1,-21,1
944,7,1,12,1,5,1,-9,1,1,1,9,1,-10,1,-73,1,-5,1,45,1,-11,1,-21,1
945,9,1,12,1,3,1,-10,1,3,1,8,1,-10,1,-68,1,-4,1,47,1,-9,1,-18,1
946,9,1,13,1,4,1,-11,1,3,1,9,1,-10,1,-58,1,0,1,48,1,-7,1,-15,1
947,9,1,13,1,4,1,-11,1,3,1,9,1,-10,1,-58,1,0,1,50,1,-6,1,-14,1
948,8,1,13,1,5,1,-10,1,2,1,9,1,-11,1,-55,1,4,1,49,1,-6,1,-15,1
949,7,1,12,1,5,1,-9,1,1,1,9,1,-12,1,-64,1,3,1,49,1,-8,1,-16,1
950,9,1,12,1,3,1,-10,1,3,1,8,1,-13,1,-56,1,6,1,50,1,-6,1,-12,1
951,10,1,13,1,3,1,-11,1,4,1,8,1,-13,1,-47,1,9,1,51,1,-4,1,-8,1
952,10,1,13,1,3,1,-11,1,4,1,8,1,-14,1,-51,1,9,1,53,1,-3,1,-5,1
953,13,1,16,1,3,1,-14,1,5,1,10,1,-14,1,-53,1,14,1,53,1,-2,1,-5,1
954,14,1,16,1,2,1,-15,1,6,1,9,1,-14,1,-68,1,11,1,53,1,-3,1,-4,1
955,15,1,16,1,1,1,-15,1,7,1,9,1,-14,1,-62,1,14,1,55,1,0,1,-2,1
956,16,1,17,1,1,1,-16,1,8,1,9,1,-15,1,-51,1,18,1,57,1,2,1,0,1
957,15,1,17,1,2,1,-16,1,7,1,10,1,-15,1,-50,1,20,1,58,1,3,1,2,1
958,16,1,18,1,2,1,-17,1,7,1,10,1,-16,1,-47,1,23,1,58,1,4,1,3,1
959,15,1,18,1,3,1,-16,1,6,1,11,1,-17,1,-55,1,23,1,58,1,4,1,2,1
960,17,1,18,1,1,1,-17,1,8,1,10,1,-18,1,-46,1,27,1,59,1,8,1,6,1
961,19,1,19,1,0,1,-19,1,10,1,10,1,-19,1,-39,1,31,1,61,1,10,1,11,1
962,19,1,19,1,0,1,-19,1,10,1,10,1,-20,1,-43,1,32,1,63,1,12,1,14,1
963,21,1,22,1,1,1,-21,1,10,1,12,1,-21,1,-46,1,35,1,63,1,12,1,15,1
964,23,1,22,1,-1,1,-22,1,12,1,11,1,-21,1,-59,1,34,1,64,1,11,1,16,1
965,24,1,22,1,-2,1,-23,1,13,1,10,1,-22,1,-52,1,37,1,67,1,15,1,20,1
966,25,1,23,1,-2,1,-24,1,14,1,11,1,-22,1,-43,1,40,1,69,1,18,1,23,1
967,26,1,24,1,-2,1,-25,1,14,1,11,1,-23,1,-41,1,40,1,71,1,20,1,25,1
968,28,1,26,1,-2,1,-27,1,15,1,12,1,-25,1,-37,1,45,1,72,1,22,1,26,1
969,29,1,26,1,-3,1,-27,1,16,1,12,1,-27,1,-48,1,43,1,72,1,22,1,26,1
970,32,1,27,1,-5,1,-29,1,19,1,11,1,-29,1,-41,1,47,1,73,1,24,1,30,1
971,34,1,27,1,-7,1,-30,1,21,1,10,1,-29,1,-32,1,50,1,76,1,28,1,34,1
972,36,1,28,1,-8,1,-32,1,22,1,10,1,-30,1,-37,1,51,1,78,1,31,1,38,1
973,38,1,31,1,-7,1,-34,1,23,1,12,1,-31,1,-39,1,55,1,80,1,33,1,41,1
974,39,1,33,1,-6,1,-36,1,23,1,14,1,-31,1,-53,1,53,1,80,1,34,1,42,1
975,40,1,33,1,-7,1,-36,1,24,1,13,1,-32,1,-45,1,56,1,84,1,38,1,46,1
976,42,1,35,1,-7,1,-38,1,25,1,14,1,-33,1,-33,1,59,1,87,1,42,1,51,1
977,44,1,36,1,-8,1,-40,1,26,1,14,1,-34,1,-32,1,60,1,89,1,45,1,54,1
978,45,1,37,1,-8,1,-41,1,27,1,15,1,-36,1,-31,1,63,1,90,1,47,1,55,1
979,46,1,38,1,-8,1,-42,1,27,1,15,1,-38,1,-44,1,61,1,92,1,48,1,57,1
980,49,1,40,1,-9,1,-44,1,29,1,16,1,-40,1,-34,1,66,1,95,1,53,1,62,1
981,52,1,41,1,-11,1,-46,1,32,1,15,1,-42,1,-25,1,70,1,97,1,58,1,68,1
982,53,1,43,1,-10,1,-48,1,32,1,17,1,-44,1,-28,1,71,1,99,1,61,1,72,1
983,56,1,46,1,-10,1,-51,1,33,1,18,1,-45,1,-29,1,74,1,100,1,63,1,75,1
984,58,1,48,1,-10,1,-53,1,34,1,19,1,-45,1,-42,1,72,1,101,1,64,1,77,1
985,60,1,48,1,-12,1,-54,1,36,1,18,1,-46,1,-35,1,75,1,103,1,68,1,82,1
986,61,1,49,1,-12,1,-55,1,37,1,19,1,-46,1,-23,1,78,1,107,1,73,1,87,1
987,63,1,50,1,-13,1,-56,1,38,1,19,1,-47,1,-21,1,79,1,109,1,76,1,91,1
988,64,1,51,1,-13,1,-57,1,39,1,19,1,-49,1,-17,1,84,1,111,1,78,1,93,1
989,64,1,53,1,-11,1,-58,1,38,1,21,1,-50,1,-27,1,82,1,113,1,78,1,94,1
990,66,1,54,1,-12,1,-60,1,39,1,21,1,-51,1,-20,1,86,1,116,1,81,1,98,1
991,68,1,57,1,-11,1,-62,1,40,1,23,1,-52,1,-12,1,89,1,118,1,85,1,103,1
992,67,1,58,1,-9,1,-62,1,38,1,25,1,-52,1,-16,1,89,1,120,1,86,1,105,1
993,68,1,62,1,-6,1,-65,1,37,1,28,1,-53,1,-17,1,92,1,120,1,87,1,105,1
994,67,1,62,1,-5,1,-64,1,36,1,29,1,-52,1,-30,1,89,1,120,1,86,1,104,1
995,67,1,62,1,-5,1,-64,1,36,1,29,1,-50,1,-22,1,92,1,122,1,88,1,106,1
996,65,1,62,1,-3,1,-63,1,34,1,30,1,-49,1,-11,1,94,1,124,1,89,1,109,1
997,63,1,63,1,0,1,-63,1,32,1,32,1,-47,1,-10,1,93,1,125,1,89,1,110,1
998,61,1,63,1,2,1,-62,1,30,1,33,1,-46,1,-6,1,97,1,123,1,88,1,109,1
999,58,1,64,1,6,1,-61,1,26,1,35,1,-45,1,-18,1,94,1,121,1,84,1,106,1
1000,56,1,65,1,9,1,-60,1,24,1,37,1,-43,1,-10,1,97,1,121,1,84,1,106,1
1001,54,1,67,1,13,1,-60,1,21,1,40,1,-40,1,-3,1,97,1,120,1,82,1,105,1
1002,50,1,67,1,17,1,-58,1,17,1,42,1,-38,1,-8,1,95,1,117,1,78,1,100,1
1003,47,1,68,1,21,1,-57,1,13,1,45,1,-35,1,-9,1,96,1,114,1,73,1,94,1
1004,44,1,68,1,24,1,-56,1,10,1,46,1,-32,1,-23,1,90,1,110,1,67,1,87,1
1005,40,1,64,1,24,1,-52,1,8,1,44,1,-28,1,-15,1,90,1,107,1,65,1,84,1
1006,35,1,62,1,27,1,-48,1,4,1,45,1,-25,1,-3,1,91,1,104,1,62,1,81,1
1007,30,1,59,1,29,1,-44,1,1,1,44,1,-22,1,-2,1,88,1,100,1,56,1,76,1
1008,26,1,57,1,31,1,-41,1,-2,1,44,1,-20,1,1,1,89,1,95,1,50,1,70,1
1009,21,1,55,1,34,1,-38,1,-6,1,45,1,-18,1,-11,1,83,1,90,1,40,1,62,1
1010,19,1,54,1,35,1,-36,1,-8,1,45,1,-15,1,-7,1,82,1,86,1,36,1,57,1
1011,15,1,52,1,37,1,-33,1,-11,1,45,1,-12,1,-3,1,79,1,82,1,31,1,51,1
1012,10,1,49,1,39,1,-29,1,-14,1,44,1,-9,1,-11,1,71,1,77,1,24,1,43,1
1013,8,1,47,1,39,1,-27,1,-15,1,43,1,-7,1,-15,1,68,1,70,1,18,1,34,1
1014,6,1,44,1,38,1,-25,1,-16,1,41,1,-5,1,-30,1,60,1,63,1,11,1,26,1
1015,3,1,39,1,36,1,-21,1,-16,1,38,1,-3,1,-24,1,57,1,58,1,8,1,22,1
1016,0,1,35,1,35,1,-17,1,-17,1,35,1,-1,1,-15,1,55,1,54,1,4,1,19,1
1017,-3,1,31,1,34,1,-14,1,-18,1,32,1,0,1,-16,1,49,1,49,1,-1,1,15,1
1018,-7,1,28,1,35,1,-10,1,-21,1,31,1,-1,1,-15,1,49,1,43,1,-6,1,9,1
1019,-10,1,25,1,35,1,-7,1,-22,1,30,1,-1,1,-31,1,41,1,38,1,-13,1,3,1
1020,-11,1,23,1,34,1,-6,1,-22,1,28,1,0,1,-27,1,39,1,34,1,-15,1,0,1
1021,-13,1,21,1,34,1,-4,1,-23,1,27,1,0,1,-24,1,36,1,31,1,-17,1,-3,1
1022,-15,1,19,1,34,1,-2,1,-24,1,26,1,2,1,-31,1,29,1,27,1,-21,1,-8,1
1023,-15,1,18,1,33,1,-1,1,-24,1,25,1,2,1,-36,1,25,1,22,1,-25,1,-13,1
1024,-15,1,16,1,31,1,0,1,-23,1,23,1,3,1,-48,1,19,1,18,1,-28,1,-19,1
1025,-16,1,12,1,28,1,2,1,-22,1,20,1,4,1,-41,1,18,1,15,1,-30,1,-20,1
1026,-17,1,9,1,26,1,4,1,-21,1,17,1,4,1,-32,1,17,1,12,1,-30,1,-21,1
1027,-19,1,6,1,25,1,6,1,-22,1,15,1,4,1,-33,1,14,1,10,1,-32,1,-21,1
1028,-20,1,6,1,26,1,7,1,-23,1,16,1,2,1,-31,1,17,1,8,1,-34,1,-24,1
1029,-22,1,4,1,26,1,9,1,-24,1,15,1,2,1,-46,1,13,1,5,1,-38,1,-27,1
1030,-21,1,4,1,25,1,8,1,-23,1,14,1,2,1,-43,1,13,1,5,1,-38,1,-28,1
1031,-21,1,4,1,25,1,8,1,-23,1,14,1,2,1,-40,1,12,1,5,1,-38,1,-28,1
1032,-22,1,2,1,24,1,10,1,-23,1,13,1,2,1,-47,1,9,1,3,1,-39,1,-29,1
1033,-21,1,2,1,23,1,9,1,-22,1,12,1,1,1,-49,1,9,1,2,1,-40,1,-33,1
1034,-21,1,0,1,21,1,10,1,-21,1,10,1,1,1,-61,1,3,1,1,1,-44,1,-35,1
1035,-21,1,-1,1,20,1,11,1,-21,1,9,1,1,1,-53,1,3,1,1,1,-42,1,-35,1
1036,-22,1,-2,1,20,1,12,1,-21,1,9,1,1,1,-41,1,4,1,0,1,-43,1,-34,1
1037,-23,1,-3,1,20,1,13,1,-22,1,8,1,2,1,-40,1,3,1,0,1,-43,1,-34,1
1038,-23,1,-2,1,21,1,12,1,-22,1,9,1,0,1,-36,1,8,1,-2,1,-44,1,-36,1
1039,-24,1,-2,1,22,1,13,1,-23,1,10,1,0,1,-51,1,4,1,-3,1,-47,1,-38,1
1040,-23,1,-2,1,21,1,12,1,-22,1,9,1,0,1,-45,1,5,1,-2,1,-45,1,-38,1
1041,-23,1,-3,1,20,1,13,1,-22,1,8,1,0,1,-40,1,4,1,-2,1,-44,1,-37,1
1042,-24,1,-4,1,20,1,14,1,-22,1,8,1,0,1,-46,1,0,1,-2,1,-46,1,-38,1
1043,-24,1,-3,1,21,1,13,1,-23,1,9,1,0,1,-51,1,-1,1,-3,1,-47,1,-40,1
1044,-24,1,-4,1,20,1,14,1,-22,1,8,1,0,1,-68,1,-6,1,-5,1,-50,1,-43,1
1045,-23,1,-6,1,17,1,14,1,-20,1,5,1,0,1,-58,1,-5,1,-5,1,-47,1,-42,1
1046,-23,1,-6,1,17,1,14,1,-20,1,5,1,0,1,-46,1,-2,1,-5,1,-46,1,-40,1
1047,-23,1,-6,1,17,1,14,1,-20,1,5,1,0,1,-44,1,-2,1,-5,1,-46,1,-39,1
1048,-23,1,-4,1,19,1,13,1,-21,1,7,1,-1,1,-40,1,1,1,-6,1,-46,1,-40,1
1049,-24,1,-4,1,20,1,14,1,-22,1,8,1,-1,1,-52,1,-2,1,-6,1,-49,1,-42,1
1050,-23,1,-5,1,18,1,14,1,-21,1,6,1,-1,1,-45,1,0,1,-5,1,-47,1,-42,1
1051,-23,1,-5,1,18,1,14,1,-21,1,6,1,0,1,-39,1,-1,1,-4,1,-46,1,-41,1
1052,-24,1,-5,1,19,1,14,1,-22,1,7,1,0,1,-45,1,-4,1,-5,1,-46,1,-42,1
1053,-23,1,-4,1,19,1,13,1,-21,1,7,1,-1,1,-47,1,-4,1,-5,1,-46,1,-43,1
1054,-24,1,-4,1,20,1,14,1,-22,1,8,1,0,1,-62,1,-9,1,-7,1,-49,1,-45,1
1055,-24,1,-5,1,19,1,14,1,-22,1,7,1,0,1,-55,1,-7,1,-6,1,-48,1,-43,1
1056,-24,1,-5,1,19,1,14,1,-22,1,7,1,0,1,-44,1,-4,1,-5,1,-48,1,-41,1
1057,-25,1,-6,1,19,1,15,1,-22,1,6,1,1,1,-43,1,-5,1,-5,1,-47,1,-41,1
1058,-25,1,-5,1,20,1,15,1,-23,1,7,1,0,1,-38,1,0,1,-5,1,-47,1,-43,1
1059,-25,1,-6,1,19,1,15,1,-22,1,6,1,0,1,-50,1,-4,1,-7,1,-49,1,-46,1
1060,-24,1,-6,1,18,1,15,1,-21,1,6,1,0,1,-41,1,-3,1,-6,1,-46,1,-44,1
1061,-24,1,-6,1,18,1,15,1,-21,1,6,1,0,1,-35,1,-4,1,-5,1,-45,1,-43,1
1062,-25,1,-6,1,19,1,15,1,-22,1,6,1,0,1,-41,1,-7,1,-5,1,-47,1,-43,1
1063,-23,1,-4,1,19,1,13,1,-21,1,7,1,-1,1,-44,1,-6,1,-6,1,-48,1,-43,1
1064,-24,1,-5,1,19,1,14,1,-22,1,7,1,-1,1,-59,1,-11,1,-7,1,-51,1,-44,1
1065,-23,1,-6,1,17,1,14,1,-20,1,5,1,0,1,-51,1,-9,1,-6,1,-50,1,-42,1
1066,-23,1,-6,1,17,1,14,1,-20,1,5,1,0,1,-41,1,-6,1,-4,1,-48,1,-40,1
1067,-24,1,-7,1,17,1,15,1,-21,1,5,1,0,1,-40,1,-6,1,-4,1,-48,1,-40,1
1068,-24,1,-7,1,17,1,15,1,-21,1,5,1,-1,1,-37,1,-3,1,-5,1,-49,1,-43,1
1069,-25,1,-7,1,18,1,16,1,-22,1,5,1,-1,1,-47,1,-6,1,-6,1,-50,1,-45,1
1070,-24,1,-7,1,17,1,15,1,-21,1,5,1,-1,1,-40,1,-5,1,-4,1,-47,1,-43,1
1071,-24,1,-7,1,17,1,15,1,-21,1,5,1,0,1,-34,1,-5,1,-4,1,-45,1,-41,1
1072,-25,1,-7,1,18,1,16,1,-22,1,5,1,0,1,-41,1,-9,1,-4,1,-46,1,-41,1
1073,-24,1,-5,1,19,1,14,1,-22,1,7,1,0,1,-42,1,-7,1,-5,1,-48,1,-41,1
1074,-25,1,-5,1,20,1,15,1,-23,1,7,1,0,1,-58,1,-12,1,-6,1,-51,1,-43,1
1075,-24,1,-7,1,17,1,15,1,-21,1,5,1,0,1,-51,1,-10,1,-5,1,-49,1,-41,1
1076,-24,1,-7,1,17,1,15,1,-21,1,5,1,1,1,-41,1,-7,1,-4,1,-49,1,-40,1
1077,-25,1,-7,1,18,1,16,1,-22,1,5,1,1,1,-40,1,-7,1,-4,1,-49,1,-40,1
1078,-25,1,-7,1,18,1,16,1,-22,1,5,1,0,1,-35,1,-3,1,-4,1,-49,1,-41,1
1079,-26,1,-8,1,18,1,17,1,-22,1,5,1,0,1,-49,1,-7,1,-5,1,-50,1,-43,1
1080,-24,1,-7,1,17,1,15,1,-21,1,5,1,0,1,-40,1,-6,1,-5,1,-47,1,-42,1
1081,-24,1,-7,1,17,1,15,1,-21,1,5,1,1,1,-33,1,-5,1,-5,1,-46,1,-40,1
1082,-25,1,-7,1,18,1,16,1,-22,1,5,1,1,1,-38,1,-8,1,-6,1,-47,1,-40,1
1083,-23,1,-5,1,18,1,14,1,-21,1,6,1,0,1,-39,1,-6,1,-8,1,-48,1,-41,1
1084,-24,1,-6,1,18,1,15,1,-21,1,6,1,1,1,-57,1,-12,1,-9,1,-53,1,-42,1
1085,-24,1,-8,1,16,1,16,1,-20,1,4,1,0,1,-49,1,-10,1,-7,1,-51,1,-41,1
1086,-25,1,-9,1,16,1,17,1,-21,1,3,1,0,1,-39,1,-7,1,-6,1,-51,1,-40,1
1087,-25,1,-10,1,15,1,17,1,-20,1,2,1,1,1,-39,1,-7,1,-6,1,-51,1,-40,1
1088,-26,1,-10,1,16,1,18,1,-21,1,3,1,1,1,-33,1,-2,1,-6,1,-50,1,-40,1
1089,-26,1,-10,1,16,1,18,1,-21,1,3,1,1,1,-40,1,-3,1,-8,1,-51,1,-42,1
1090,-25,1,-9,1,16,1,17,1,-21,1,3,1,1,1,-35,1,-2,1,-8,1,-49,1,-40,1
1091,-24,1,-8,1,16,1,16,1,-20,1,4,1,2,1,-30,1,-1,1,-8,1,-48,1,-38,1
1092,-24,1,-8,1,16,1,16,1,-20,1,4,1,3,1,-37,1,-4,1,-9,1,-48,1,-39,1
1093,-23,1,-5,1,18,1,14,1,-21,1,6,1,2,1,-40,1,-3,1,-10,1,-49,1,-40,1
1094,-24,1,-7,1,17,1,15,1,-21,1,5,1,2,1,-53,1,-8,1,-10,1,-52,1,-42,1
1095,-24,1,-8,1,16,1,16,1,-20,1,4,1,3,1,-46,1,-6,1,-9,1,-51,1,-42,1
1096,-25,1,-9,1,16,1,17,1,-21,1,3,1,4,1,-38,1,-4,1,-8,1,-50,1,-41,1
1097,-26,1,-10,1,16,1,18,1,-21,1,3,1,5,1,-37,1,-4,1,-8,1,-50,1,-41,1
1098,-27,1,-9,1,18,1,18,1,-23,1,4,1,4,1,-33,1,0,1,-10,1,-50,1,-43,1
1099,-28,1,-10,1,18,1,19,1,-23,1,4,1,4,1,-46,1,-3,1,-12,1,-53,1,-45,1
1100,-26,1,-10,1,16,1,18,1,-21,1,3,1,3,1,-38,1,-1,1,-11,1,-51,1,-43,1
1101,-26,1,-10,1,16,1,18,1,-21,1,3,1,4,1,-32,1,-1,1,-11,1,-48,1,-40,1
1102,-26,1,-10,1,16,1,18,1,-21,1,3,1,4,1,-38,1,-4,1,-12,1,-49,1,-40,1
1103,-24,1,-8,1,16,1,16,1,-20,1,4,1,4,1,-39,1,-2,1,-13,1,-49,1,-41,1
1104,-25,1,-10,1,15,1,17,1,-20,1,2,1,4,1,-54,1,-7,1,-15,1,-52,1,-43,1
1105,-25,1,-11,1,14,1,18,1,-20,1,1,1,4,1,-46,1,-5,1,-14,1,-51,1,-42,1
1106,-26,1,-12,1,14,1,19,1,-20,1,1,1,5,1,-37,1,-4,1,-14,1,-50,1,-41,1
1107,-27,1,-11,1,16,1,19,1,-22,1,2,1,5,1,-36,1,-5,1,-14,1,-50,1,-43,1
1108,-27,1,-9,1,18,1,18,1,-23,1,4,1,4,1,-29,1,0,1,-16,1,-50,1,-44,1
1109,-28,1,-10,1,18,1,19,1,-23,1,4,1,5,1,-46,1,-7,1,-17,1,-53,1,-45,1
1110,-26,1,-10,1,16,1,18,1,-21,1,3,1,5,1,-35,1,-4,1,-17,1,-50,1,-43,1
1111,-26,1,-10,1,16,1,18,1,-21,1,3,1,5,1,-29,1,-4,1,-17,1,-48,1,-42,1
1112,-26,1,-11,1,15,1,18,1,-21,1,2,1,6,1,-34,1,-7,1,-17,1,-48,1,-42,1
1113,-25,1,-10,1,15,1,17,1,-20,1,2,1,5,1,-36,1,-6,1,-17,1,-48,1,-43,1
1114,-26,1,-11,1,15,1,18,1,-21,1,2,1,5,1,-51,1,-11,1,-18,1,-51,1,-46,1
1115,-26,1,-12,1,14,1,19,1,-20,1,1,1,5,1,-43,1,-10,1,-17,1,-50,1,-44,1
1116,-27,1,-12,1,15,1,19,1,-21,1,1,1,5,1,-34,1,-10,1,-18,1,-49,1,-43,1
1117,-28,1,-12,1,16,1,20,1,-22,1,2,1,6,1,-34,1,-11,1,-18,1,-50,1,-43,1
1118,-29,1,-10,1,19,1,19,1,-24,1,4,1,5,1,-29,1,-6,1,-20,1,-50,1,-45,1
1119,-29,1,-11,1,18,1,20,1,-24,1,3,1,5,1,-42,1,-9,1,-21,1,-53,1,-48,1
1120,-26,1,-11,1,15,1,18,1,-21,1,2,1,5,1,-33,1,-8,1,-21,1,-51,1,-46,1
1121,-25,1,-11,1,14,1,18,1,-20,1,1,1,5,1,-27,1,-7,1,-20,1,-49,1,-46,1
1122,-24,1,-11,1,13,1,17,1,-19,1,1,1,6,1,-32,1,-10,1,-20,1,-49,1,-46,1
1123,-22,1,-9,1,13,1,15,1,-18,1,2,1,5,1,-33,1,-7,1,-20,1,-49,1,-46,1
1124,-23,1,-9,1,14,1,16,1,-19,1,2,1,6,1,-47,1,-11,1,-21,1,-51,1,-48,1
1125,-23,1,-10,1,13,1,16,1,-18,1,1,1,6,1,-39,1,-8,1,-20,1,-48,1,-47,1
1126,-24,1,-9,1,15,1,16,1,-20,1,3,1,6,1,-31,1,-5,1,-20,1,-47,1,-45,1
1127,-24,1,-8,1,16,1,16,1,-20,1,4,1,6,1,-30,1,-4,1,-20,1,-47,1,-44,1
1128,-23,1,-6,1,17,1,14,1,-20,1,5,1,5,1,-25,1,2,1,-21,1,-47,1,-45,1
1129,-22,1,-6,1,16,1,14,1,-19,1,5,1,5,1,-40,1,-2,1,-21,1,-48,1,-46,1
1130,-20,1,-5,1,15,1,12,1,-18,1,5,1,5,1,-31,1,0,1,-19,1,-45,1,-44,1
1131,-19,1,-4,1,15,1,11,1,-17,1,5,1,6,1,-25,1,1,1,-18,1,-42,1,-42,1
1132,-19,1,-3,1,16,1,11,1,-18,1,6,1,6,1,-29,1,-1,1,-18,1,-42,1,-42,1
1133,-18,1,-1,1,17,1,9,1,-18,1,8,1,5,1,-29,1,1,1,-19,1,-42,1,-43,1
1134,-20,1,0,1,20,1,10,1,-20,1,10,1,6,1,-44,1,-3,1,-19,1,-43,1,-45,1
1135,-20,1,0,1,20,1,10,1,-20,1,10,1,6,1,-35,1,-2,1,-18,1,-41,1,-43,1
1136,-21,1,1,1,22,1,10,1,-21,1,11,1,7,1,-26,1,0,1,-18,1,-39,1,-40,1
1137,-22,1,0,1,22,1,11,1,-22,1,11,1,7,1,-28,1,0,1,-18,1,-41,1,-40,1
1138,-22,1,1,1,23,1,10,1,-22,1,12,1,5,1,-23,1,5,1,-20,1,-41,1,-41,1
1139,-22,1,0,1,22,1,11,1,-22,1,11,1,4,1,-40,1,-1,1,-22,1,-43,1,-44,1
1140,-20,1,0,1,20,1,10,1,-20,1,10,1,3,1,-33,1,0,1,-21,1,-41,1,-43,1
1141,-19,1,1,1,20,1,9,1,-19,1,10,1,3,1,-27,1,0,1,-21,1,-40,1,-43,1
1142,-19,1,1,1,20,1,9,1,-19,1,10,1,3,1,-32,1,-2,1,-21,1,-40,1,-43,1
1143,-17,1,1,1,18,1,8,1,-17,1,9,1,2,1,-32,1,-1,1,-22,1,-40,1,-43,1
1144,-17,1,0,1,17,1,8,1,-17,1,8,1,3,1,-47,1,-6,1,-24,1,-43,1,-45,1
1145,-17,1,-2,1,15,1,9,1,-16,1,6,1,3,1,-37,1,-5,1,-24,1,-41,1,-43,1
1146,-18,1,-4,1,14,1,11,1,-16,1,5,1,3,1,-28,1,-4,1,-24,1,-41,1,-41,1
1147,-18,1,-6,1,12,1,12,1,-15,1,3,1,4,1,-28,1,-5,1,-24,1,-41,1,-42,1
1148,-18,1,-6,1,12,1,12,1,-15,1,3,1,2,1,-22,1,0,1,-26,1,-42,1,-44,1
1149,-18,1,-7,1,11,1,12,1,-15,1,2,1,3,1,-38,1,-7,1,-27,1,-45,1,-46,1
1150,-17,1,-7,1,10,1,12,1,-14,1,1,1,2,1,-30,1,-5,1,-26,1,-42,1,-45,1
1151,-18,1,-7,1,11,1,12,1,-15,1,2,1,3,1,-25,1,-7,1,-27,1,-40,1,-45,1
1152,-20,1,-8,1,12,1,14,1,-16,1,2,1,2,1,-31,1,-11,1,-28,1,-41,1,-45,1
1153,-19,1,-8,1,11,1,13,1,-15,1,1,1,1,1,-33,1,-11,1,-30,1,-42,1,-50,1
1154,-21,1,-11,1,10,1,16,1,-16,1,-1,1,3,1,-55,1,-20,1,-32,1,-47,1,-52,1
1155,-21,1,-13,1,8,1,17,1,-15,1,-3,1,4,1,-46,1,-18,1,-32,1,-46,1,-50,1
1156,-23,1,-14,1,9,1,18,1,-16,1,-3,1,5,1,-36,1,-16,1,-32,1,-46,1,-48,1
1157,-25,1,-14,1,11,1,19,1,-18,1,-2,1,6,1,-36,1,-17,1,-32,1,-47,1,-48,1
1158,-26,1,-13,1,13,1,19,1,-20,1,0,1,6,1,-31,1,-12,1,-33,1,-49,1,-50,1
1159,-27,1,-14,1,13,1,20,1,-20,1,-1,1,6,1,-42,1,-15,1,-35,1,-51,1,-53,1
1160,-27,1,-14,1,13,1,20,1,-20,1,-1,1,6,1,-32,1,-13,1,-35,1,-49,1,-52,1
1161,-28,1,-15,1,13,1,21,1,-21,1,-1,1,7,1,-26,1,-13,1,-35,1,-47,1,-51,1
1162,-29,1,-16,1,13,1,22,1,-21,1,-2,1,7,1,-33,1,-17,1,-36,1,-49,1,-52,1
1163,-27,1,-15,1,12,1,21,1,-20,1,-2,1,6,1,-31,1,-14,1,-38,1,-49,1,-55,1
1164,-28,1,-17,1,11,1,22,1,-20,1,-3,1,7,1,-53,1,-22,1,-39,1,-51,1,-57,1
1165,-28,1,-19,1,9,1,23,1,-19,1,-5,1,8,1,-44,1,-20,1,-38,1,-49,1,-56,1
1166,-28,1,-19,1,9,1,23,1,-19,1,-5,1,9,1,-35,1,-18,1,-38,1,-49,1,-54,1
1167,-29,1,-20,1,9,1,24,1,-19,1,-6,1,9,1,-35,1,-17,1,-38,1,-50,1,-54,1
1168,-29,1,-20,1,9,1,24,1,-19,1,-6,1,8,1,-28,1,-11,1,-39,1,-51,1,-55,1
1169,-30,1,-21,1,9,1,25,1,-20,1,-6,1,8,1,-45,1,-17,1,-40,1,-55,1,-57,1
1170,-30,1,-21,1,9,1,25,1,-20,1,-6,1,7,1,-35,1,-15,1,-40,1,-54,1,-56,1
1171,-29,1,-21,1,8,1,25,1,-19,1,-7,1,8,1,-29,1,-14,1,-40,1,-52,1,-55,1
1172,-30,1,-21,1,9,1,25,1,-20,1,-6,1,8,1,-35,1,-17,1,-40,1,-52,1,-55,1
1173,-29,1,-18,1,11,1,23,1,-20,1,-4,1,7,1,-31,1,-11,1,-41,1,-51,1,-56,1
1174,-30,1,-19,1,11,1,24,1,-21,1,-4,1,9,1,-55,1,-19,1,-42,1,-53,1,-56,1
1175,-29,1,-20,1,9,1,24,1,-19,1,-6,1,9,1,-46,1,-16,1,-41,1,-50,1,-54,1
1176,-30,1,-20,1,10,1,25,1,-20,1,-5,1,9,1,-36,1,-14,1,-40,1,-49,1,-52,1
1177,-31,1,-20,1,11,1,25,1,-21,1,-5,1,10,1,-35,1,-14,1,-40,1,-50,1,-52,1
1178,-31,1,-20,1,11,1,25,1,-21,1,-5,1,9,1,-29,1,-9,1,-41,1,-52,1,-54,1
1179,-32,1,-20,1,12,1,26,1,-22,1,-4,1,9,1,-41,1,-13,1,-42,1,-55,1,-56,1
1180,-31,1,-21,1,10,1,26,1,-21,1,-6,1,8,1,-31,1,-11,1,-42,1,-53,1,-54,1
1181,-30,1,-21,1,9,1,25,1,-20,1,-6,1,8,1,-26,1,-11,1,-43,1,-52,1,-54,1
1182,-30,1,-21,1,9,1,25,1,-20,1,-6,1,8,1,-33,1,-13,1,-43,1,-52,1,-54,1
1183,-28,1,-19,1,9,1,23,1,-19,1,-5,1,7,1,-30,1,-9,1,-43,1,-50,1,-54,1
1184,-30,1,-20,1,10,1,25,1,-20,1,-5,1,8,1,-54,1,-18,1,-43,1,-51,1,-55,1
1185,-30,1,-21,1,9,1,25,1,-20,1,-6,1,9,1,-44,1,-16,1,-42,1,-49,1,-53,1
1186,-30,1,-21,1,9,1,25,1,-20,1,-6,1,10,1,-33,1,-13,1,-42,1,-46,1,-51,1
1187,-31,1,-21,1,10,1,26,1,-21,1,-6,1,10,1,-32,1,-14,1,-42,1,-46,1,-52,1
1188,-31,1,-19,1,12,1,25,1,-22,1,-4,1,8,1,-20,1,-6,1,-42,1,-46,1,-53,1
1189,-31,1,-19,1,12,1,25,1,-22,1,-4,1,8,1,-41,1,-15,1,-43,1,-51,1,-55,1
1190,-30,1,-19,1,11,1,24,1,-21,1,-4,1,8,1,-30,1,-13,1,-42,1,-48,1,-53,1
1191,-30,1,-19,1,11,1,24,1,-21,1,-4,1,8,1,-25,1,-13,1,-42,1,-47,1,-52,1
1192,-30,1,-19,1,11,1,24,1,-21,1,-4,1,8,1,-31,1,-15,1,-42,1,-46,1,-52,1
1193,-28,1,-17,1,11,1,22,1,-20,1,-3,1,8,1,-30,1,-11,1,-43,1,-46,1,-52,1
1194,-29,1,-19,1,10,1,24,1,-20,1,-5,1,9,1,-48,1,-18,1,-43,1,-48,1,-53,1
1195,-29,1,-20,1,9,1,24,1,-19,1,-6,1,9,1,-39,1,-16,1,-42,1,-45,1,-51,1
1196,-30,1,-21,1,9,1,25,1,-20,1,-6,1,9,1,-27,1,-14,1,-41,1,-44,1,-49,1
1197,-30,1,-20,1,10,1,25,1,-20,1,-5,1,9,1,-26,1,-16,1,-40,1,-44,1,-49,1
1198,-29,1,-17,1,12,1,23,1,-21,1,-3,1,7,1,-19,1,-10,1,-40,1,-43,1,-49,1
1199,-27,1,-16,1,11,1,21,1,-19,1,-3,1,7,1,-27,1,-10,1,-38,1,-43,1,-48,1
1200,-23,1,-13,1,10,1,18,1,-17,1,-2,1,9,1,-13,1,-1,1,-32,1,-40,1,-43,1
1201,-19,1,-11,1,8,1,15,1,-14,1,-2,1,13,1,1,1,10,1,-23,1,-37,1,-37,1
1202,-15,1,-8,1,7,1,11,1,-11,1,-1,1,18,1,10,1,23,1,-11,1,-33,1,-30,1
1203,-8,1,-1,1,7,1,4,1,-8,1,3,1,23,1,30,1,48,1,6,1,-25,1,-20,1
1204,-1,1,5,1,6,1,-2,1,-3,1,5,1,29,1,33,1,65,1,29,1,-14,1,-2,1
1205,10,1,14,1,4,1,-12,1,3,1,9,1,33,1,65,1,96,1,59,1,9,1,25,1
1206,25,1,26,1,1,1,-25,1,12,1,14,1,33,1,94,1,125,1,91,1,41,1,63,1
1207,45,1,41,1,-4,1,-43,1,25,1,19,1,28,1,109,1,152,1,126,1,79,1,107,1
1208,66,1,59,1,-7,1,-62,1,37,1,26,1,22,1,130,1,184,1,160,1,123,1,155,1
1209,86,1,78,1,-8,1,-82,1,47,1,35,1,16,1,124,1,200,1,192,1,166,1,204,1
1210,108,1,99,1,-9,1,-103,1,59,1,45,1,5,1,136,1,215,1,218,1,215,1,254,1
1211,124,1,122,1,-2,1,-123,1,63,1,60,1,-12,1,132,1,217,1,234,1,257,1,297,1
1212,135,1,144,1,9,1,-139,1,63,1,77,1,-37,1,100,1,199,1,235,1,289,1,323,1
1213,142,1,162,1,20,1,-152,1,61,1,91,1,-69,1,63,1,171,1,219,1,309,1,332,1
1214,138,1,169,1,31,1,-153,1,54,1,100,1,-95,1,-1,1,120,1,189,1,310,1,322,1
1215,127,1,168,1,41,1,-147,1,43,1,105,1,-112,1,-36,1,75,1,147,1,294,1,290,1
1216,105,1,160,1,55,1,-132,1,25,1,108,1,-118,1,-65,1,27,1,97,1,260,1,240,1
1217,73,1,144,1,71,1,-108,1,1,1,108,1,-112,1,-101,1,-27,1,35,1,208,1,170,1
1218,34,1,118,1,84,1,-76,1,-25,1,101,1,-100,1,-125,1,-76,1,-35,1,138,1,84,1
1219,-3,1,86,1,89,1,-41,1,-46,1,87,1,-84,1,-165,1,-127,1,-95,1,70,1,8,1
1220,-27,1,61,1,88,1,-17,1,-57,1,74,1,-70,1,-166,1,-151,1,-134,1,23,1,-41,1
1221,-44,1,41,1,85,1,1,1,-64,1,63,1,-57,1,-160,1,-161,1,-153,1,-10,1,-71,1
1222,-53,1,28,1,81,1,12,1,-67,1,54,1,-49,1,-160,1,-160,1,-156,1,-31,1,-86,1
1223,-55,1,21,1,76,1,17,1,-65,1,48,1,-46,1,-151,1,-147,1,-151,1,-40,1,-90,1
1224,-54,1,13,1,67,1,20,1,-60,1,40,1,-43,1,-158,1,-139,1,-141,1,-46,1,-90,1
1225,-52,1,7,1,59,1,22,1,-55,1,33,1,-40,1,-137,1,-123,1,-127,1,-44,1,-82,1
1226,-49,1,5,1,54,1,22,1,-51,1,29,1,-36,1,-115,1,-104,1,-111,1,-39,1,-71,1
1227,-44,1,5,1,49,1,19,1,-46,1,27,1,-31,1,-101,1,-86,1,-92,1,-32,1,-57,1
1228,-37,1,8,1,45,1,14,1,-41,1,26,1,-29,1,-78,1,-62,1,-76,1,-24,1,-45,1
1229,-30,1,6,1,36,1,12,1,-33,1,21,1,-24,1,-81,1,-52,1,-60,1,-20,1,-34,1
1230,-22,1,6,1,28,1,8,1,-25,1,17,1,-21,1,-60,1,-37,1,-47,1,-14,1,-23,1
1231,-17,1,6,1,23,1,5,1,-20,1,14,1,-18,1,-47,1,-29,1,-39,1,-10,1,-16,1
1232,-13,1,7,1,20,1,3,1,-16,1,13,1,-16,1,-47,1,-25,1,-34,1,-9,1,-12,1
1233,-9,1,9,1,18,1,0,1,-13,1,13,1,-15,1,-39,1,-14,1,-31,1,-8,1,-12,1
1234,-9,1,8,1,17,1,0,1,-13,1,12,1,-11,1,-57,1,-18,1,-28,1,-9,1,-13,1
1235,-9,1,7,1,16,1,1,1,-12,1,11,1,-9,1,-43,1,-11,1,-25,1,-7,1,-10,1
1236,-10,1,8,1,18,1,1,1,-14,1,13,1,-6,1,-32,1,-7,1,-21,1,-5,1,-7,1
1237,-12,1,8,1,20,1,2,1,-16,1,14,1,-5,1,-31,1,-7,1,-20,1,-6,1,-7,1
1238,-12,1,9,1,21,1,1,1,-16,1,15,1,-6,1,-18,1,0,1,-20,1,-7,1,-7,1
1239,-12,1,8,1,20,1,2,1,-16,1,14,1,-5,1,-37,1,-9,1,-20,1,-10,1,-9,1
1240,-10,1,8,1,18,1,1,1,-14,1,13,1,-5,1,-24,1,-7,1,-18,1,-8,1,-7,1
1241,-9,1,8,1,17,1,0,1,-13,1,12,1,-4,1,-18,1,-8,1,-18,1,-8,1,-5,1
1242,-9,1,7,1,16,1,1,1,-12,1,11,1,-4,1,-22,1,-11,1,-18,1,-8,1,-5,1
1243,-7,1,8,1,15,1,0,1,-11,1,11,1,-4,1,-21,1,-7,1,-18,1,-8,1,-6,1
1244,-7,1,6,1,13,1,0,1,-10,1,9,1,-2,1,-38,1,-13,1,-19,1,-11,1,-7,1
1245,-7,1,4,1,11,1,1,1,-9,1,7,1,0,1,-29,1,-10,1,-19,1,-10,1,-6,1
1246,-9,1,3,1,12,1,3,1,-10,1,7,1,0,1,-20,1,-8,1,-19,1,-9,1,-5,1
1247,-10,1,3,1,13,1,3,1,-11,1,8,1,1,1,-21,1,-8,1,-19,1,-10,1,-5,1
1248,-11,1,3,1,14,1,4,1,-12,1,8,1,0,1,-15,1,-4,1,-19,1,-11,1,-6,1
1249,-12,1,3,1,15,1,4,1,-13,1,9,1,0,1,-29,1,-11,1,-19,1,-14,1,-7,1
1250,-10,1,3,1,13,1,3,1,-11,1,8,1,0,1,-20,1,-10,1,-18,1,-11,1,-6,1
1251,-9,1,3,1,12,1,3,1,-10,1,7,1,0,1,-14,1,-11,1,-17,1,-9,1,-5,1
1252,-9,1,2,1,11,1,3,1,-10,1,6,1,0,1,-21,1,-14,1,-17,1,-10,1,-5,1
1253,-7,1,4,1,11,1,1,1,-9,1,7,1,-1,1,-16,1,-7,1,-18,1,-9,1,-7,1
1254,-8,1,2,1,10,1,3,1,-9,1,6,1,0,1,-41,1,-17,1,-18,1,-12,1,-8,1
1255,-8,1,1,1,9,1,3,1,-8,1,5,1,1,1,-32,1,-13,1,-17,1,-10,1,-6,1
1256,-9,1,1,1,10,1,4,1,-9,1,5,1,1,1,-24,1,-11,1,-17,1,-9,1,-5,1
1257,-9,1,1,1,10,1,4,1,-9,1,5,1,1,1,-25,1,-11,1,-17,1,-10,1,-3,1
1258,-9,1,2,1,11,1,3,1,-10,1,6,1,1,1,-14,1,-3,1,-17,1,-9,1,-4,1
1259,-10,1,2,1,12,1,4,1,-11,1,7,1,1,1,-35,1,-12,1,-18,1,-13,1,-5,1
1260,-8,1,2,1,10,1,3,1,-9,1,6,1,1,1,-23,1,-9,1,-16,1,-10,1,-3,1
1261,-7,1,2,1,9,1,2,1,-8,1,5,1,2,1,-16,1,-9,1,-16,1,-8,1,-3,1
1262,-7,1,1,1,8,1,3,1,-7,1,4,1,2,1,-21,1,-11,1,-16,1,-7,1,-3,1
1263,-6,1,2,1,8,1,2,1,-7,1,5,1,1,1,-16,1,-5,1,-16,1,-7,1,-4,1
1264,-6,1,1,1,7,1,2,1,-6,1,4,1,2,1,-30,1,-10,1,-15,1,-9,1,-4,1
1265,-6,1,0,1,6,1,3,1,-6,1,3,1,2,1,-5,1,-3,1,-13,1,-5,1,0,1
1266,-7,1,1,1,8,1,3,1,-7,1,4,1,2,1,16,1,3,1,-12,1,-1,1,2,1
1267,-8,1,1,1,9,1,3,1,-8,1,5,1,2,1,27,1,5,1,-12,1,-1,1,5,1
1268,-8,1,2,1,10,1,3,1,-9,1,6,1,1,1,43,1,11,1,-13,1,0,1,5,1
1269,-9,1,2,1,11,1,3,1,-10,1,6,1,1,1,38,1,7,1,-12,1,0,1,6,1
1270,-7,1,3,1,10,1,2,1,-8,1,6,1,0,1,58,1,10,1,-10,1,4,1,9,1
1271,-5,1,3,1,8,1,1,1,-6,1,5,1,0,1,71,1,10,1,-9,1,7,1,12,1
1272,-5,1,3,1,8,1,1,1,-6,1,5,1,0,1,72,1,9,1,-9,1,8,1,12,1
1273,-2,1,6,1,8,1,-2,1,-5,1,7,1,-2,1,83,1,15,1,-9,1,8,1,12,1
1274,-2,1,4,1,6,1,-1,1,-4,1,5,1,-1,1,63,1,6,1,-9,1,5,1,12,1
1275,-2,1,4,1,6,1,-1,1,-4,1,5,1,-1,1,76,1,8,1,-8,1,7,1,16,1
1276,-3,1,4,1,7,1,0,1,-5,1,5,1,0,1,88,1,10,1,-6,1,9,1,19,1
1277,-5,1,4,1,9,1,0,1,-7,1,6,1,0,1,90,1,7,1,-6,1,9,1,20,1
1278,-5,1,5,1,10,1,0,1,-7,1,7,1,-2,1,99,1,12,1,-7,1,9,1,19,1
1279,-5,1,3,1,8,1,1,1,-6,1,5,1,-1,1,83,1,3,1,-6,1,8,1,19,1
1280,-3,1,4,1,7,1,0,1,-5,1,5,1,-1,1,97,1,4,1,-5,1,12,1,23,1
1281,-2,1,4,1,6,1,-1,1,-4,1,5,1,0,1,106,1,4,1,-4,1,14,1,26,1
1282,-2,1,4,1,6,1,-1,1,-4,1,5,1,0,1,104,1,1,1,-3,1,14,1,27,1
1283,0,1,6,1,6,1,-3,1,-3,1,6,1,-1,1,110,1,7,1,-4,1,14,1,25,1
1284,-2,1,5,1,7,1,-1,1,-4,1,6,1,-1,1,87,1,-2,1,-3,1,11,1,25,1
1285,-2,1,5,1,7,1,-1,1,-4,1,6,1,-1,1,99,1,1,1,-1,1,14,1,27,1
1286,-3,1,6,1,9,1,-1,1,-6,1,7,1,-1,1,107,1,3,1,0,1,15,1,30,1
1287,-4,1,5,1,9,1,0,1,-6,1,7,1,-1,1,106,1,2,1,1,1,16,1,31,1
1288,-3,1,6,1,9,1,-1,1,-6,1,7,1,-3,1,114,1,9,1,0,1,17,1,30,1
1289,-3,1,6,1,9,1,-1,1,-6,1,7,1,-2,1,95,1,0,1,-1,1,15,1,29,1
1290,0,1,6,1,6,1,-3,1,-3,1,6,1,-2,1,110,1,3,1,-1,1,19,1,33,1
1291,0,1,6,1,6,1,-3,1,-3,1,6,1,-1,1,117,1,3,1,0,1,21,1,35,1
1292,0,1,6,1,6,1,-3,1,-3,1,6,1,-1,1,113,1,1,1,1,1,22,1,37,1
1293,3,1,9,1,6,1,-6,1,-1,1,8,1,-3,1,119,1,8,1,1,1,21,1,35,1
1294,1,1,7,1,6,1,-4,1,-2,1,7,1,-3,1,97,1,-1,1,1,1,20,1,34,1
1295,1,1,6,1,5,1,-3,1,-2,1,6,1,-3,1,107,1,3,1,3,1,24,1,36,1
1296,0,1,6,1,6,1,-3,1,-3,1,6,1,-4,1,115,1,5,1,5,1,25,1,38,1
1297,0,1,5,1,5,1,-2,1,-2,1,5,1,-5,1,112,1,3,1,5,1,26,1,39,1
1298,0,1,6,1,6,1,-3,1,-3,1,6,1,-6,1,120,1,11,1,4,1,26,1,37,1
1299,0,1,6,1,6,1,-3,1,-3,1,6,1,-5,1,101,1,3,1,5,1,25,1,37,1
1300,3,1,7,1,4,1,-5,1,0,1,6,1,-4,1,114,1,6,1,6,1,27,1,38,1
1301,4,1,8,1,4,1,-6,1,0,1,6,1,-4,1,121,1,6,1,7,1,29,1,41,1
1302,4,1,9,1,5,1,-6,1,0,1,7,1,-4,1,117,1,4,1,7,1,29,1,42,1
1303,6,1,11,1,5,1,-8,1,1,1,8,1,-5,1,123,1,10,1,6,1,29,1,41,1
1304,4,1,10,1,6,1,-7,1,-1,1,8,1,-4,1,100,1,1,1,6,1,27,1,41,1
1305,3,1,9,1,6,1,-6,1,-1,1,8,1,-5,1,110,1,4,1,7,1,30,1,43,1
1306,2,1,9,1,7,1,-5,1,-2,1,8,1,-6,1,118,1,7,1,9,1,33,1,45,1
1307,2,1,9,1,7,1,-5,1,-2,1,8,1,-7,1,116,1,5,1,9,1,33,1,45,1
1308,3,1,10,1,7,1,-6,1,-2,1,9,1,-8,1,120,1,11,1,8,1,33,1,43,1
1309,3,1,10,1,7,1,-6,1,-2,1,9,1,-8,1,107,1,5,1,9,1,31,1,43,1
1310,5,1,12,1,7,1,-8,1,-1,1,10,1,-8,1,119,1,7,1,10,1,34,1,45,1
1311,7,1,13,1,6,1,-10,1,1,1,10,1,-8,1,125,1,6,1,11,1,36,1,47,1
1312,8,1,13,1,5,1,-10,1,2,1,9,1,-8,1,120,1,4,1,12,1,36,1,48,1
1313,10,1,15,1,5,1,-12,1,3,1,10,1,-9,1,127,1,10,1,12,1,37,1,46,1
1314,9,1,13,1,4,1,-11,1,3,1,9,1,-9,1,103,1,2,1,12,1,35,1,46,1
1315,9,1,13,1,4,1,-11,1,3,1,9,1,-10,1,115,1,5,1,13,1,39,1,49,1
1316,8,1,13,1,5,1,-10,1,2,1,9,1,-11,1,123,1,7,1,15,1,40,1,52,1
1317,7,1,13,1,6,1,-10,1,1,1,10,1,-11,1,120,1,7,1,16,1,40,1,53,1
1318,8,1,15,1,7,1,-11,1,1,1,11,1,-13,1,128,1,15,1,16,1,40,1,51,1
1319,8,1,15,1,7,1,-11,1,1,1,11,1,-12,1,106,1,6,1,16,1,39,1,49,1
1320,11,1,16,1,5,1,-13,1,3,1,11,1,-11,1,119,1,11,1,18,1,42,1,51,1
1321,13,1,17,1,4,1,-15,1,5,1,11,1,-11,1,126,1,12,1,19,1,44,1,54,1
1322,15,1,17,1,2,1,-16,1,7,1,10,1,-12,1,122,1,10,1,20,1,45,1,55,1
1323,17,1,18,1,1,1,-17,1,8,1,10,1,-13,1,127,1,16,1,19,1,46,1,54,1
1324,17,1,17,1,0,1,-17,1,9,1,9,1,-14,1,108,1,8,1,20,1,44,1,54,1
1325,17,1,17,1,0,1,-17,1,9,1,9,1,-15,1,120,1,12,1,21,1,47,1,57,1
1326,16,1,18,1,2,1,-17,1,7,1,10,1,-16,1,129,1,14,1,22,1,49,1,59,1
1327,16,1,18,1,2,1,-17,1,7,1,10,1,-16,1,126,1,14,1,23,1,49,1,61,1
1328,16,1,19,1,3,1,-17,1,7,1,11,1,-18,1,130,1,20,1,23,1,48,1,61,1
1329,16,1,19,1,3,1,-17,1,7,1,11,1,-18,1,115,1,15,1,24,1,48,1,61,1
1330,19,1,20,1,1,1,-19,1,9,1,11,1,-18,1,126,1,19,1,26,1,52,1,64,1
1331,21,1,21,1,0,1,-21,1,11,1,11,1,-18,1,132,1,20,1,27,1,54,1,66,1
1332,23,1,22,1,-1,1,-22,1,12,1,11,1,-18,1,127,1,19,1,28,1,55,1,67,1
1333,26,1,25,1,-1,1,-25,1,14,1,12,1,-20,1,132,1,26,1,29,1,56,1,66,1
1334,25,1,24,1,-1,1,-24,1,13,1,12,1,-21,1,109,1,17,1,30,1,55,1,66,1
1335,27,1,24,1,-3,1,-25,1,15,1,11,1,-22,1,121,1,22,1,32,1,59,1,70,1
1336,26,1,25,1,-1,1,-25,1,14,1,12,1,-23,1,129,1,25,1,34,1,62,1,73,1
1337,26,1,25,1,-1,1,-25,1,14,1,12,1,-24,1,128,1,26,1,36,1,63,1,75,1
1338,28,1,27,1,-1,1,-27,1,15,1,13,1,-26,1,136,1,35,1,36,1,65,1,74,1
1339,29,1,27,1,-2,1,-28,1,16,1,13,1,-27,1,117,1,28,1,37,1,65,1,74,1
1340,33,1,29,1,-4,1,-31,1,19,1,13,1,-28,1,130,1,32,1,40,1,69,1,76,1
1341,35,1,30,1,-5,1,-32,1,20,1,13,1,-29,1,136,1,33,1,42,1,72,1,79,1
1342,37,1,32,1,-5,1,-34,1,21,1,14,1,-30,1,130,1,31,1,44,1,74,1,81,1
1343,41,1,35,1,-6,1,-38,1,24,1,15,1,-32,1,135,1,39,1,45,1,77,1,83,1
1344,41,1,35,1,-6,1,-38,1,24,1,15,1,-32,1,113,1,30,1,47,1,78,1,85,1
1345,42,1,35,1,-7,1,-38,1,25,1,14,1,-32,1,124,1,35,1,50,1,81,1,89,1
1346,43,1,35,1,-8,1,-39,1,26,1,14,1,-33,1,132,1,38,1,52,1,85,1,94,1
1347,44,1,35,1,-9,1,-39,1,27,1,13,1,-34,1,130,1,38,1,53,1,87,1,97,1
1348,47,1,38,1,-9,1,-42,1,28,1,15,1,-36,1,139,1,45,1,54,1,89,1,97,1
1349,49,1,39,1,-10,1,-44,1,30,1,15,1,-38,1,120,1,39,1,56,1,89,1,98,1
1350,53,1,42,1,-11,1,-47,1,32,1,16,1,-40,1,133,1,44,1,60,1,94,1,103,1
1351,56,1,45,1,-11,1,-50,1,34,1,17,1,-41,1,139,1,44,1,63,1,99,1,107,1
1352,57,1,47,1,-10,1,-52,1,34,1,19,1,-43,1,134,1,42,1,65,1,102,1,109,1
1353,60,1,51,1,-9,1,-55,1,35,1,21,1,-46,1,138,1,49,1,67,1,105,1,110,1
1354,60,1,50,1,-10,1,-55,1,35,1,20,1,-46,1,116,1,41,1,70,1,104,1,112,1
1355,62,1,50,1,-12,1,-56,1,37,1,19,1,-46,1,127,1,46,1,73,1,109,1,116,1
1356,62,1,51,1,-11,1,-56,1,37,1,20,1,-46,1,135,1,49,1,76,1,113,1,120,1
1357,63,1,51,1,-12,1,-57,1,38,1,20,1,-46,1,134,1,50,1,78,1,115,1,123,1
1358,66,1,53,1,-13,1,-59,1,40,1,20,1,-47,1,143,1,60,1,78,1,117,1,124,1
1359,67,1,54,1,-13,1,-60,1,40,1,21,1,-48,1,123,1,54,1,80,1,116,1,124,1
1360,70,1,57,1,-13,1,-63,1,42,1,22,1,-50,1,136,1,58,1,84,1,121,1,129,1
1361,72,1,59,1,-13,1,-65,1,43,1,23,1,-51,1,142,1,58,1,86,1,124,1,132,1
1362,72,1,61,1,-11,1,-66,1,42,1,25,1,-52,1,137,1,56,1,88,1,125,1,134,1
1363,73,1,64,1,-9,1,-68,1,41,1,28,1,-53,1,141,1,61,1,90,1,126,1,133,1
1364,71,1,63,1,-8,1,-67,1,40,1,28,1,-51,1,119,1,53,1,90,1,124,1,132,1
1365,69,1,62,1,-7,1,-65,1,38,1,28,1,-49,1,130,1,56,1,91,1,127,1,134,1
1366,66,1,62,1,-4,1,-64,1,35,1,29,1,-46,1,138,1,59,1,92,1,128,1,136,1
1367,64,1,62,1,-2,1,-63,1,33,1,30,1,-45,1,137,1,61,1,92,1,125,1,134,1
1368,62,1,63,1,1,1,-62,1,31,1,32,1,-45,1,144,1,69,1,91,1,124,1,130,1
1369,60,1,64,1,4,1,-62,1,28,1,34,1,-43,1,126,1,62,1,91,1,120,1,126,1
1370,59,1,66,1,7,1,-62,1,26,1,37,1,-41,1,140,1,64,1,91,1,120,1,125,1
1371,57,1,68,1,11,1,-62,1,23,1,40,1,-39,1,146,1,63,1,90,1,118,1,123,1
1372,53,1,69,1,16,1,-61,1,19,1,43,1,-36,1,141,1,59,1,88,1,112,1,119,1
1373,50,1,70,1,20,1,-60,1,15,1,45,1,-34,1,138,1,60,1,85,1,107,1,113,1
1374,45,1,67,1,22,1,-56,1,12,1,45,1,-30,1,121,1,53,1,81,1,101,1,106,1
1375,40,1,63,1,23,1,-51,1,9,1,43,1,-27,1,132,1,56,1,79,1,98,1,102,1
1376,35,1,61,1,26,1,-48,1,5,1,44,1,-23,1,139,1,57,1,77,1,94,1,98,1
1377,30,1,58,1,28,1,-44,1,1,1,43,1,-20,1,135,1,55,1,73,1,87,1,91,1
1378,26,1,58,1,32,1,-42,1,-3,1,45,1,-19,1,142,1,61,1,67,1,81,1,82,1
1379,21,1,55,1,34,1,-38,1,-6,1,45,1,-16,1,120,1,49,1,62,1,73,1,73,1
1380,19,1,54,1,35,1,-36,1,-8,1,45,1,-13,1,132,1,49,1,58,1,69,1,68,1
1381,17,1,52,1,35,1,-34,1,-9,1,44,1,-10,1,136,1,45,1,53,1,63,1,62,1
1382,13,1,50,1,37,1,-31,1,-12,1,44,1,-8,1,128,1,39,1,47,1,55,1,55,1
1383,10,1,49,1,39,1,-29,1,-14,1,44,1,-6,1,128,1,39,1,42,1,49,1,47,1
1384,6,1,43,1,37,1,-24,1,-15,1,40,1,-4,1,107,1,29,1,36,1,41,1,40,1
1385,3,1,39,1,36,1,-21,1,-16,1,38,1,-2,1,117,1,29,1,32,1,38,1,36,1
1386,-2,1,35,1,37,1,-16,1,-19,1,36,1,0,1,122,1,27,1,27,1,33,1,31,1
1387,-5,1,31,1,36,1,-13,1,-20,1,33,1,0,1,117,1,23,1,21,1,28,1,26,1
1388,-8,1,29,1,37,1,-10,1,-22,1,33,1,1,1,118,1,25,1,15,1,24,1,18,1
1389,-9,1,26,1,35,1,-8,1,-22,1,30,1,2,1,100,1,17,1,11,1,19,1,10,1
1390,-9,1,24,1,33,1,-7,1,-21,1,28,1,2,1,110,1,16,1,8,1,18,1,7,1
1391,-9,1,22,1,31,1,-6,1,-20,1,26,1,3,1,113,1,13,1,4,1,15,1,3,1
1392,-11,1,19,1,30,1,-4,1,-20,1,24,1,3,1,105,1,6,1,0,1,11,1,-1,1
1393,-11,1,18,1,29,1,-3,1,-20,1,23,1,3,1,101,1,6,1,-4,1,6,1,-5,1
1394,-12,1,14,1,26,1,-1,1,-19,1,20,1,3,1,84,1,-2,1,-8,1,1,1,-8,1
1395,-13,1,10,1,23,1,1,1,-18,1,16,1,4,1,92,1,-2,1,-10,1,2,1,-8,1
1396,-16,1,8,1,24,1,4,1,-20,1,16,1,4,1,97,1,-3,1,-12,1,0,1,-9,1
1397,-18,1,7,1,25,1,5,1,-21,1,16,1,5,1,92,1,-6,1,-14,1,-1,1,-12,1
1398,-20,1,8,1,28,1,6,1,-24,1,18,1,3,1,97,1,-1,1,-18,1,-3,1,-17,1
1399,-21,1,7,1,28,1,7,1,-24,1,17,1,4,1,76,1,-10,1,-20,1,-6,1,-21,1
1400,-19,1,7,1,26,1,6,1,-22,1,16,1,4,1,87,1,-8,1,-21,1,-5,1,-22,1
1401,-19,1,6,1,25,1,6,1,-22,1,15,1,4,1,90,1,-10,1,-22,1,-5,1,-23,1
1402,-19,1,5,1,24,1,7,1,-21,1,14,1,4,1,83,1,-14,1,-24,1,-8,1,-25,1
1403,-17,1,5,1,22,1,6,1,-19,1,13,1,3,1,86,1,-10,1,-26,1,-10,1,-28,1
1404,-19,1,1,1,20,1,9,1,-19,1,10,1,4,1,63,1,-20,1,-28,1,-13,1,-28,1
1405,-20,1,-1,1,19,1,10,1,-20,1,9,1,4,1,73,1,-18,1,-29,1,-12,1,-27,1
1406,-21,1,-2,1,19,1,11,1,-20,1,8,1,4,1,79,1,-18,1,-29,1,-11,1,-26,1
1407,-23,1,-3,1,20,1,13,1,-22,1,8,1,3,1,75,1,-20,1,-31,1,-13,1,-26,1
1408,-23,1,-2,1,21,1,12,1,-22,1,9,1,1,1,80,1,-15,1,-33,1,-13,1,-30,1
1409,-24,1,-3,1,21,1,13,1,-23,1,9,1,2,1,60,1,-23,1,-34,1,-15,1,-33,1
1410,-22,1,-2,1,20,1,12,1,-21,1,9,1,2,1,71,1,-20,1,-32,1,-13,1,-32,1
1411,-21,1,-2,1,19,1,11,1,-20,1,8,1,3,1,76,1,-19,1,-32,1,-13,1,-33,1
1412,-21,1,-2,1,19,1,11,1,-20,1,8,1,3,1,69,1,-22,1,-33,1,-15,1,-34,1
1413,-20,1,-1,1,19,1,10,1,-20,1,9,1,3,1,69,1,-20,1,-33,1,-17,1,-35,1
1414,-21,1,-3,1,18,1,12,1,-20,1,7,1,3,1,52,1,-27,1,-35,1,-19,1,-36,1
1415,-21,1,-5,1,16,1,13,1,-19,1,5,1,3,1,63,1,-25,1,-35,1,-17,1,-34,1
1416,-23,1,-5,1,18,1,14,1,-21,1,6,1,3,1,68,1,-25,1,-35,1,-17,1,-33,1
1417,-24,1,-6,1,18,1,15,1,-21,1,6,1,3,1,63,1,-26,1,-35,1,-17,1,-33,1
1418,-24,1,-5,1,19,1,14,1,-22,1,7,1,1,1,68,1,-20,1,-36,1,-17,1,-36,1
1419,-24,1,-5,1,19,1,14,1,-22,1,7,1,1,1,50,1,-26,1,-36,1,-20,1,-39,1
1420,-22,1,-4,1,18,1,13,1,-20,1,7,1,1,1,62,1,-23,1,-35,1,-17,1,-38,1
1421,-21,1,-4,1,17,1,12,1,-19,1,6,1,2,1,67,1,-23,1,-35,1,-17,1,-38,1
1422,-22,1,-5,1,17,1,13,1,-20,1,6,1,3,1,61,1,-26,1,-35,1,-18,1,-38,1
1423,-21,1,-3,1,18,1,12,1,-20,1,7,1,2,1,63,1,-21,1,-36,1,-20,1,-40,1
1424,-22,1,-5,1,17,1,13,1,-20,1,6,1,3,1,43,1,-30,1,-37,1,-23,1,-40,1
1425,-23,1,-7,1,16,1,15,1,-20,1,4,1,3,1,54,1,-27,1,-35,1,-20,1,-39,1
1426,-25,1,-8,1,17,1,16,1,-21,1,4,1,3,1,60,1,-26,1,-35,1,-19,1,-37,1
1427,-25,1,-8,1,17,1,16,1,-21,1,4,1,3,1,56,1,-28,1,-35,1,-19,1,-38,1
1428,-25,1,-6,1,19,1,15,1,-22,1,6,1,1,1,62,1,-22,1,-37,1,-20,1,-41,1
1429,-25,1,-7,1,18,1,16,1,-22,1,5,1,2,1,43,1,-29,1,-39,1,-23,1,-44,1
1430,-23,1,-6,1,17,1,14,1,-20,1,5,1,2,1,54,1,-26,1,-39,1,-21,1,-44,1
1431,-23,1,-5,1,18,1,14,1,-21,1,6,1,2,1,59,1,-25,1,-39,1,-21,1,-44,1
1432,-22,1,-5,1,17,1,13,1,-20,1,6,1,2,1,53,1,-28,1,-40,1,-23,1,-45,1
1433,-21,1,-4,1,17,1,12,1,-19,1,6,1,2,1,52,1,-26,1,-40,1,-26,1,-46,1
1434,-22,1,-6,1,16,1,14,1,-19,1,5,1,2,1,37,1,-31,1,-39,1,-28,1,-46,1
1435,-22,1,-8,1,14,1,15,1,-18,1,3,1,2,1,48,1,-28,1,-37,1,-25,1,-44,1
1436,-23,1,-9,1,14,1,16,1,-19,1,2,1,2,1,54,1,-27,1,-36,1,-22,1,-42,1
1437,-25,1,-9,1,16,1,17,1,-21,1,3,1,2,1,50,1,-29,1,-36,1,-22,1,-42,1
1438,-25,1,-8,1,17,1,16,1,-21,1,4,1,1,1,47,1,-28,1,-38,1,-23,1,-46,1
1439,-24,1,-8,1,16,1,16,1,-20,1,4,1,1,1,35,1,-31,1,-40,1,-26,1,-48,1
1440,-22,1,-7,1,15,1,14,1,-19,1,4,1,1,1,48,1,-29,1,-41,1,-24,1,-47,1
1441,-22,1,-6,1,16,1,14,1,-19,1,5,1,2,1,52,1,-29,1,-41,1,-24,1,-47,1
1442,-22,1,-6,1,16,1,14,1,-19,1,5,1,2,1,46,1,-31,1,-42,1,-26,1,-48,1
1443,-22,1,-5,1,17,1,13,1,-20,1,6,1,1,1,46,1,-28,1,-42,1,-27,1,-49,1
1444,-22,1,-6,1,16,1,14,1,-19,1,5,1,1,1,31,1,-34,1,-43,1,-30,1,-50,1
1445,-23,1,-8,1,15,1,15,1,-19,1,3,1,2,1,41,1,-31,1,-41,1,-28,1,-48,1
1446,-25,1,-9,1,16,1,17,1,-21,1,3,1,2,1,46,1,-31,1,-40,1,-26,1,-46,1
1447,-26,1,-10,1,16,1,18,1,-21,1,3,1,3,1,42,1,-32,1,-40,1,-26,1,-46,1
1448,-26,1,-8,1,18,1,17,1,-22,1,5,1,1,1,46,1,-27,1,-41,1,-25,1,-49,1
1449,-25,1,-9,1,16,1,17,1,-21,1,3,1,1,1,29,1,-34,1,-42,1,-29,1,-51,1
1450,-23,1,-8,1,15,1,15,1,-19,1,3,1,1,1,41,1,-31,1,-42,1,-27,1,-50,1
1451,-22,1,-8,1,14,1,15,1,-18,1,3,1,1,1,47,1,-31,1,-42,1,-26,1,-50,1
1452,-22,1,-8,1,14,1,15,1,-18,1,3,1,1,1,42,1,-34,1,-43,1,-27,1,-50,1
1453,-22,1,-6,1,16,1,14,1,-19,1,5,1,1,1,39,1,-32,1,-43,1,-28,1,-51,1
1454,-23,1,-8,1,15,1,15,1,-19,1,3,1,1,1,25,1,-36,1,-44,1,-31,1,-53,1
1455,-23,1,-10,1,13,1,16,1,-18,1,1,1,2,1,36,1,-33,1,-42,1,-28,1,-51,1
1456,-25,1,-10,1,15,1,17,1,-20,1,2,1,2,1,42,1,-32,1,-41,1,-28,1,-49,1
1457,-26,1,-10,1,16,1,18,1,-21,1,3,1,3,1,38,1,-33,1,-42,1,-28,1,-49,1
1458,-28,1,-9,1,19,1,18,1,-24,1,5,1,2,1,38,1,-30,1,-43,1,-30,1,-51,1
1459,-26,1,-9,1,17,1,17,1,-22,1,4,1,2,1,27,1,-34,1,-44,1,-32,1,-52,1
1460,-24,1,-8,1,16,1,16,1,-20,1,4,1,2,1,39,1,-31,1,-43,1,-29,1,-51,1
1461,-24,1,-8,1,16,1,16,1,-20,1,4,1,2,1,42,1,-32,1,-43,1,-29,1,-50,1
1462,-24,1,-9,1,15,1,16,1,-20,1,3,1,3,1,36,1,-35,1,-43,1,-30,1,-51,1
1463,-23,1,-7,1,16,1,15,1,-20,1,4,1,3,1,39,1,-31,1,-44,1,-31,1,-53,1
1464,-23,1,-8,1,15,1,15,1,-19,1,3,1,3,1,22,1,-36,1,-46,1,-35,1,-55,1
1465,-23,1,-10,1,13,1,16,1,-18,1,1,1,4,1,32,1,-33,1,-46,1,-33,1,-53,1
1466,-25,1,-11,1,14,1,18,1,-20,1,1,1,4,1,38,1,-31,1,-46,1,-32,1,-52,1
1467,-27,1,-12,1,15,1,19,1,-21,1,1,1,4,1,34,1,-32,1,-46,1,-33,1,-52,1
1468,-28,1,-10,1,18,1,19,1,-23,1,4,1,4,1,34,1,-29,1,-47,1,-34,1,-54,1
1469,-27,1,-11,1,16,1,19,1,-22,1,2,1,3,1,23,1,-34,1,-48,1,-36,1,-55,1
1470,-26,1,-10,1,16,1,18,1,-21,1,3,1,3,1,36,1,-31,1,-46,1,-34,1,-53,1
1471,-25,1,-9,1,16,1,17,1,-21,1,3,1,3,1,40,1,-31,1,-46,1,-34,1,-53,1
1472,-25,1,-9,1,16,1,17,1,-21,1,3,1,3,1,35,1,-33,1,-46,1,-34,1,-54,1
1473,-25,1,-7,1,18,1,16,1,-22,1,5,1,4,1,31,1,-31,1,-47,1,-35,1,-57,1
1474,-26,1,-10,1,16,1,18,1,-21,1,3,1,4,1,19,1,-34,1,-48,1,-38,1,-60,1
1475,-25,1,-11,1,14,1,18,1,-20,1,1,1,5,1,31,1,-31,1,-48,1,-35,1,-58,1
1476,-27,1,-12,1,15,1,19,1,-21,1,1,1,6,1,37,1,-29,1,-48,1,-34,1,-56,1
1477,-28,1,-13,1,15,1,20,1,-22,1,1,1,6,1,33,1,-30,1,-49,1,-34,1,-56,1
1478,-29,1,-11,1,18,1,20,1,-24,1,3,1,5,1,32,1,-27,1,-51,1,-36,1,-57,1
1479,-28,1,-12,1,16,1,20,1,-22,1,2,1,5,1,22,1,-29,1,-51,1,-38,1,-58,1
1480,-25,1,-11,1,14,1,18,1,-20,1,1,1,5,1,35,1,-25,1,-50,1,-35,1,-56,1
1481,-25,1,-11,1,14,1,18,1,-20,1,1,1,5,1,39,1,-25,1,-49,1,-34,1,-55,1
1482,-25,1,-11,1,14,1,18,1,-20,1,1,1,5,1,33,1,-27,1,-49,1,-35,1,-57,1
1483,-24,1,-9,1,15,1,16,1,-20,1,3,1,5,1,36,1,-23,1,-50,1,-36,1,-60,1
1484,-24,1,-11,1,13,1,17,1,-19,1,1,1,5,1,23,1,-27,1,-51,1,-37,1,-62,1
1485,-25,1,-12,1,13,1,18,1,-19,1,0,1,5,1,33,1,-25,1,-52,1,-35,1,-60,1
1486,-26,1,-12,1,14,1,19,1,-20,1,1,1,6,1,37,1,-25,1,-53,1,-34,1,-59,1
1487,-27,1,-13,1,14,1,20,1,-21,1,0,1,6,1,31,1,-27,1,-54,1,-35,1,-59,1
1488,-28,1,-12,1,16,1,20,1,-22,1,2,1,5,1,34,1,-23,1,-55,1,-37,1,-60,1
1489,-28,1,-14,1,14,1,21,1,-21,1,0,1,5,1,17,1,-29,1,-56,1,-39,1,-61,1
1490,-26,1,-13,1,13,1,19,1,-20,1,0,1,5,1,29,1,-26,1,-55,1,-36,1,-59,1
1491,-26,1,-12,1,14,1,19,1,-20,1,1,1,5,1,33,1,-27,1,-54,1,-34,1,-57,1
1492,-25,1,-11,1,14,1,18,1,-20,1,1,1,6,1,28,1,-28,1,-54,1,-34,1,-57,1
1493,-24,1,-8,1,16,1,16,1,-20,1,4,1,5,1,26,1,-27,1,-54,1,-35,1,-59,1
1494,-24,1,-9,1,15,1,16,1,-20,1,3,1,6,1,15,1,-31,1,-54,1,-36,1,-61,1
1495,-23,1,-10,1,13,1,16,1,-18,1,1,1,6,1,27,1,-28,1,-53,1,-34,1,-59,1
1496,-22,1,-10,1,12,1,16,1,-17,1,1,1,7,1,33,1,-27,1,-52,1,-33,1,-57,1
1497,-22,1,-9,1,13,1,15,1,-18,1,2,1,7,1,29,1,-28,1,-52,1,-32,1,-56,1
1498,-22,1,-7,1,15,1,14,1,-19,1,4,1,6,1,31,1,-23,1,-52,1,-33,1,-56,1
1499,-21,1,-5,1,16,1,13,1,-19,1,5,1,6,1,19,1,-26,1,-52,1,-33,1,-56,1
1500,-20,1,-3,1,17,1,11,1,-19,1,7,1,6,1,32,1,-22,1,-50,1,-29,1,-53,1
1501,-20,1,-3,1,17,1,11,1,-19,1,7,1,6,1,37,1,-22,1,-49,1,-28,1,-51,1
1502,-20,1,-2,1,18,1,11,1,-19,1,8,1,6,1,32,1,-25,1,-50,1,-27,1,-51,1
1503,-20,1,0,1,20,1,10,1,-20,1,10,1,5,1,28,1,-24,1,-50,1,-28,1,-52,1
1504,-20,1,0,1,20,1,10,1,-20,1,10,1,5,1,17,1,-28,1,-50,1,-28,1,-53,1
1505,-20,1,-1,1,19,1,10,1,-20,1,9,1,5,1,27,1,-26,1,-49,1,-25,1,-51,1
1506,-21,1,-1,1,20,1,11,1,-21,1,9,1,5,1,33,1,-25,1,-48,1,-23,1,-49,1
1507,-21,1,-1,1,20,1,11,1,-21,1,9,1,5,1,28,1,-26,1,-48,1,-24,1,-49,1
1508,-22,1,0,1,22,1,11,1,-22,1,11,1,3,1,31,1,-21,1,-49,1,-26,1,-51,1
1509,-22,1,0,1,22,1,11,1,-22,1,11,1,3,1,15,1,-26,1,-51,1,-29,1,-52,1
1510,-21,1,1,1,22,1,10,1,-21,1,11,1,2,1,28,1,-22,1,-49,1,-26,1,-50,1
1511,-21,1,2,1,23,1,9,1,-22,1,12,1,3,1,32,1,-22,1,-48,1,-26,1,-48,1
1512,-20,1,1,1,21,1,9,1,-20,1,11,1,3,1,28,1,-23,1,-48,1,-26,1,-48,1
1513,-19,1,1,1,20,1,9,1,-19,1,10,1,3,1,26,1,-20,1,-48,1,-28,1,-50,1
1514,-18,1,-2,1,16,1,10,1,-17,1,7,1,4,1,14,1,-24,1,-49,1,-29,1,-51,1
1515,-17,1,-5,1,12,1,11,1,-15,1,3,1,4,1,25,1,-21,1,-50,1,-25,1,-49,1
1516,-17,1,-7,1,10,1,12,1,-14,1,1,1,4,1,30,1,-21,1,-50,1,-24,1,-48,1
1517,-17,1,-8,1,9,1,12,1,-13,1,0,1,4,1,25,1,-23,1,-50,1,-25,1,-48,1
1518,-19,1,-8,1,11,1,13,1,-15,1,1,1,3,1,23,1,-21,1,-51,1,-26,1,-49,1
1519,-18,1,-8,1,10,1,13,1,-14,1,1,1,3,1,11,1,-23,1,-52,1,-27,1,-52,1
1520,-18,1,-7,1,11,1,12,1,-15,1,2,1,2,1,23,1,-20,1,-51,1,-25,1,-50,1
1521,-18,1,-7,1,11,1,12,1,-15,1,2,1,2,1,25,1,-21,1,-52,1,-25,1,-50,1
1522,-20,1,-9,1,11,1,14,1,-16,1,1,1,1,1,18,1,-25,1,-53,1,-27,1,-52,1
1523,-21,1,-9,1,12,1,15,1,-17,1,1,1,1,1,14,1,-25,1,-56,1,-29,1,-55,1
1524,-22,1,-12,1,10,1,17,1,-16,1,-1,1,2,1,3,1,-30,1,-57,1,-30,1,-56,1
1525,-23,1,-15,1,8,1,19,1,-16,1,-4,1,3,1,14,1,-29,1,-56,1,-28,1,-55,1
1526,-24,1,-16,1,8,1,20,1,-16,1,-4,1,4,1,20,1,-30,1,-56,1,-29,1,-54,1
1527,-25,1,-16,1,9,1,20,1,-17,1,-4,1,6,1,16,1,-32,1,-56,1,-29,1,-53,1
1528,-27,1,-15,1,12,1,21,1,-20,1,-2,1,6,1,19,1,-29,1,-57,1,-29,1,-55,1
1529,-27,1,-16,1,11,1,21,1,-19,1,-3,1,6,1,8,1,-33,1,-59,1,-31,1,-58,1
1530,-27,1,-15,1,12,1,21,1,-20,1,-2,1,7,1,19,1,-31,1,-58,1,-29,1,-57,1
1531,-27,1,-16,1,11,1,21,1,-19,1,-3,1,7,1,21,1,-33,1,-59,1,-31,1,-58,1
1532,-29,1,-17,1,12,1,23,1,-21,1,-3,1,7,1,14,1,-37,1,-61,1,-33,1,-59,1
1533,-29,1,-16,1,13,1,22,1,-21,1,-2,1,6,1,11,1,-36,1,-62,1,-36,1,-60,1
1534,-29,1,-18,1,11,1,23,1,-20,1,-4,1,7,1,0,1,-41,1,-63,1,-37,1,-61,1
1535,-28,1,-20,1,8,1,24,1,-18,1,-6,1,7,1,11,1,-39,1,-61,1,-36,1,-59,1
1536,-29,1,-21,1,8,1,25,1,-19,1,-7,1,8,1,17,1,-39,1,-60,1,-35,1,-58,1
1537,-29,1,-22,1,7,1,25,1,-18,1,-8,1,8,1,13,1,-41,1,-61,1,-35,1,-58,1
1538,-30,1,-21,1,9,1,25,1,-20,1,-6,1,7,1,14,1,-38,1,-62,1,-36,1,-61,1
1539,-29,1,-21,1,8,1,25,1,-19,1,-7,1,7,1,5,1,-40,1,-63,1,-38,1,-63,1
1540,-29,1,-20,1,9,1,24,1,-19,1,-6,1,6,1,17,1,-36,1,-62,1,-36,1,-61,1
1541,-29,1,-20,1,9,1,24,1,-19,1,-6,1,6,1,21,1,-36,1,-61,1,-36,1,-59,1
1542,-31,1,-19,1,12,1,25,1,-22,1,-4,1,6,1,14,1,-39,1,-61,1,-37,1,-61,1
1543,-30,1,-18,1,12,1,24,1,-21,1,-3,1,7,1,11,1,-38,1,-61,1,-38,1,-61,1
1544,-29,1,-20,1,9,1,24,1,-19,1,-6,1,8,1,0,1,-42,1,-61,1,-40,1,-62,1
1545,-29,1,-21,1,8,1,25,1,-19,1,-7,1,8,1,11,1,-40,1,-60,1,-38,1,-60,1
1546,-29,1,-22,1,7,1,25,1,-18,1,-8,1,9,1,16,1,-39,1,-59,1,-38,1,-59,1
1547,-29,1,-23,1,6,1,26,1,-18,1,-9,1,9,1,13,1,-41,1,-60,1,-38,1,-59,1
1548,-31,1,-22,1,9,1,26,1,-20,1,-7,1,9,1,9,1,-40,1,-61,1,-39,1,-62,1
1549,-31,1,-22,1,9,1,26,1,-20,1,-7,1,8,1,2,1,-41,1,-61,1,-40,1,-64,1
1550,-30,1,-20,1,10,1,25,1,-20,1,-5,1,8,1,17,1,-37,1,-60,1,-36,1,-61,1
1551,-31,1,-20,1,11,1,25,1,-21,1,-5,1,8,1,21,1,-37,1,-59,1,-35,1,-59,1
1552,-31,1,-19,1,12,1,25,1,-22,1,-4,1,8,1,16,1,-38,1,-60,1,-36,1,-59,1
1553,-31,1,-18,1,13,1,24,1,-22,1,-3,1,8,1,12,1,-37,1,-60,1,-37,1,-61,1
1554,-31,1,-20,1,11,1,25,1,-21,1,-5,1,8,1,0,1,-40,1,-60,1,-39,1,-61,1
1555,-29,1,-21,1,8,1,25,1,-19,1,-7,1,8,1,11,1,-38,1,-60,1,-37,1,-59,1
1556,-30,1,-21,1,9,1,25,1,-20,1,-6,1,8,1,18,1,-37,1,-60,1,-36,1,-58,1
1557,-29,1,-21,1,8,1,25,1,-19,1,-7,1,8,1,16,1,-38,1,-59,1,-36,1,-58,1
1558,-30,1,-20,1,10,1,25,1,-20,1,-5,1,6,1,18,1,-34,1,-60,1,-37,1,-61,1
1559,-30,1,-20,1,10,1,25,1,-20,1,-5,1,6,1,7,1,-37,1,-60,1,-38,1,-62,1
1560,-29,1,-19,1,10,1,24,1,-20,1,-5,1,7,1,20,1,-33,1,-58,1,-35,1,-59,1
1561,-29,1,-19,1,10,1,24,1,-20,1,-5,1,7,1,24,1,-33,1,-58,1,-34,1,-58,1
1562,-31,1,-20,1,11,1,25,1,-21,1,-5,1,8,1,17,1,-36,1,-58,1,-35,1,-57,1
1563,-31,1,-18,1,13,1,24,1,-22,1,-3,1,7,1,12,1,-36,1,-59,1,-37,1,-58,1
1564,-29,1,-19,1,10,1,24,1,-20,1,-5,1,7,1,2,1,-39,1,-60,1,-38,1,-60,1
1565,-28,1,-21,1,7,1,24,1,-18,1,-7,1,6,1,14,1,-36,1,-58,1,-36,1,-58,1
1566,-28,1,-20,1,8,1,24,1,-18,1,-6,1,6,1,20,1,-36,1,-57,1,-35,1,-57,1
1567,-27,1,-19,1,8,1,23,1,-18,1,-6,1,6,1,18,1,-35,1,-56,1,-35,1,-57,1
1568,-26,1,-16,1,10,1,21,1,-18,1,-3,1,5,1,20,1,-30,1,-55,1,-35,1,-57,1
1569,-23,1,-16,1,7,1,19,1,-15,1,-5,1,6,1,16,1,-27,1,-53,1,-34,1,-56,1
1570,-20,1,-13,1,7,1,16,1,-14,1,-3,1,9,1,36,1,-17,1,-46,1,-31,1,-51,1
1571,-18,1,-11,1,7,1,14,1,-13,1,-2,1,14,1,52,1,-4,1,-35,1,-29,1,-44,1
1572,-14,1,-7,1,7,1,10,1,-11,1,0,1,20,1,63,1,10,1,-21,1,-25,1,-34,1
1573,-7,1,0,1,7,1,3,1,-7,1,3,1,25,1,81,1,33,1,-1,1,-17,1,-21,1
1574,1,1,6,1,5,1,-3,1,-2,1,6,1,32,1,92,1,55,1,24,1,-2,1,-1,1
1575,15,1,16,1,1,1,-15,1,7,1,9,1,33,1,125,1,85,1,55,1,25,1,30,1
1576,32,1,31,1,-1,1,-31,1,17,1,15,1,30,1,148,1,112,1,88,1,59,1,71,1
1577,51,1,48,1,-3,1,-49,1,27,1,23,1,26,1,160,1,137,1,123,1,100,1,117,1
1578,70,1,68,1,-2,1,-69,1,36,1,33,1,20,1,172,1,163,1,156,1,145,1,166,1
1579,89,1,87,1,-2,1,-88,1,46,1,43,1,12,1,169,1,177,1,184,1,191,1,214,1
1580,107,1,109,1,2,1,-108,1,53,1,56,1,0,1,178,1,186,1,205,1,239,1,264,1
1581,120,1,133,1,13,1,-126,1,54,1,73,1,-22,1,165,1,177,1,215,1,281,1,305,1
1582,126,1,153,1,27,1,-139,1,50,1,90,1,-50,1,126,1,150,1,209,1,309,1,329,1
1583,130,1,167,1,37,1,-148,1,47,1,102,1,-81,1,79,1,115,1,189,1,324,1,336,1
1584,126,1,172,1,46,1,-149,1,40,1,109,1,-104,1,27,1,69,1,158,1,322,1,320,1
1585,113,1,169,1,56,1,-141,1,29,1,113,1,-117,1,0,1,26,1,117,1,303,1,284,1
1586,91,1,160,1,69,1,-125,1,11,1,115,1,-119,1,-30,1,-21,1,65,1,265,1,227,1
1587,58,1,139,1,81,1,-98,1,-11,1,110,1,-112,1,-65,1,-75,1,-1,1,205,1,149,1
1588,20,1,111,1,91,1,-65,1,-35,1,101,1,-98,1,-93,1,-124,1,-71,1,129,1,58,1
1589,-11,1,82,1,93,1,-35,1,-52,1,87,1,-83,1,-117,1,-163,1,-125,1,66,1,-11,1
1590,-31,1,58,1,89,1,-13,1,-60,1,73,1,-69,1,-109,1,-179,1,-155,1,22,1,-55,1
1591,-46,1,40,1,86,1,3,1,-66,1,63,1,-58,1,-101,1,-185,1,-169,1,-8,1,-80,1
1592,-54,1,26,1,80,1,14,1,-67,1,53,1,-52,1,-98,1,-182,1,-170,1,-27,1,-91,1
1593,-56,1,18,1,74,1,19,1,-65,1,46,1,-48,1,-92,1,-171,1,-162,1,-36,1,-94,1
1594,-55,1,8,1,63,1,23,1,-59,1,35,1,-44,1,-91,1,-160,1,-150,1,-39,1,-91,1
1595,-50,1,2,1,52,1,24,1,-51,1,27,1,-40,1,-68,1,-140,1,-134,1,-36,1,-83,1
1596,-45,1,1,1,46,1,22,1,-45,1,23,1,-35,1,-50,1,-120,1,-116,1,-30,1,-70,1
1597,-39,1,2,1,41,1,18,1,-40,1,21,1,-31,1,-38,1,-101,1,-97,1,-21,1,-56,1
1598,-32,1,5,1,37,1,13,1,-34,1,21,1,-28,1,-24,1,-79,1,-81,1,-14,1,-43,1
1599,-24,1,5,1,29,1,9,1,-26,1,17,1,-24,1,-19,1,-66,1,-69,1,-9,1,-33,1
1600,-18,1,6,1,24,1,6,1,-21,1,15,1,-21,1,5,1,-52,1,-60,1,-3,1,-24,1
1601,-16,1,6,1,22,1,5,1,-19,1,14,1,-18,1,15,1,-46,1,-55,1,-1,1,-18,1
1602,-14,1,7,1,21,1,3,1,-17,1,14,1,-16,1,14,1,-43,1,-51,1,0,1,-16,1
1603,-13,1,9,1,22,1,2,1,-17,1,15,1,-14,1,12,1,-38,1,-47,1,0,1,-17,1
1604,-11,1,7,1,18,1,2,1,-14,1,12,1,-11,1,6,1,-36,1,-43,1,-1,1,-17,1
1605,-10,1,6,1,16,1,2,1,-13,1,11,1,-10,1,20,1,-28,1,-38,1,2,1,-13,1
1606,-10,1,6,1,16,1,2,1,-13,1,11,1,-8,1,28,1,-23,1,-34,1,3,1,-9,1
1607,-10,1,6,1,16,1,2,1,-13,1,11,1,-8,1,28,1,-21,1,-32,1,2,1,-7,1
1608,-11,1,7,1,18,1,2,1,-14,1,12,1,-8,1,29,1,-17,1,-32,1,0,1,-8,1
1609,-10,1,7,1,17,1,1,1,-13,1,12,1,-6,1,23,1,-19,1,-32,1,-1,1,-8,1
1610,-10,1,8,1,18,1,1,1,-14,1,13,1,-6,1,37,1,-16,1,-32,1,1,1,-6,1
1611,-10,1,8,1,18,1,1,1,-14,1,13,1,-4,1,41,1,-17,1,-33,1,1,1,-5,1
1612,-11,1,7,1,18,1,2,1,-14,1,12,1,-4,1,35,1,-19,1,-33,1,0,1,-6,1
1613,-11,1,6,1,17,1,2,1,-14,1,11,1,-4,1,30,1,-17,1,-33,1,-2,1,-9,1
1614,-11,1,2,1,13,1,4,1,-12,1,7,1,-3,1,20,1,-20,1,-32,1,-2,1,-10,1
1615,-9,1,0,1,9,1,4,1,-9,1,4,1,-3,1,32,1,-15,1,-30,1,0,1,-7,1
1616,-10,1,-1,1,9,1,5,1,-10,1,4,1,-2,1,38,1,-13,1,-28,1,0,1,-4,1
1617,-9,1,-1,1,8,1,5,1,-9,1,3,1,-1,1,35,1,-13,1,-28,1,-1,1,-3,1
1618,-10,1,0,1,10,1,5,1,-10,1,5,1,-2,1,33,1,-11,1,-30,1,-3,1,-5,1
1619,-10,1,0,1,10,1,5,1,-10,1,5,1,-1,1,26,1,-15,1,-31,1,-4,1,-5,1
1620,-10,1,2,1,12,1,4,1,-11,1,7,1,0,1,40,1,-13,1,-30,1,-1,1,-3,1
1621,-11,1,2,1,13,1,4,1,-12,1,7,1,0,1,42,1,-14,1,-29,1,-1,1,-2,1
1622,-11,1,2,1,13,1,4,1,-12,1,7,1,1,1,35,1,-16,1,-29,1,-1,1,-2,1
1623,-11,1,2,1,13,1,4,1,-12,1,7,1,1,1,30,1,-15,1,-29,1,-2,1,-4,1
1624,-9,1,-1,1,8,1,5,1,-9,1,3,1,1,1,19,1,-16,1,-28,1,-3,1,-5,1
1625,-9,1,-2,1,7,1,5,1,-8,1,2,1,1,1,28,1,-12,1,-28,1,-1,1,-3,1
1626,-9,1,-4,1,5,1,6,1,-7,1,0,1,1,1,33,1,-11,1,-27,1,-1,1,0,1
1627,-9,1,-3,1,6,1,6,1,-8,1,1,1,1,1,30,1,-12,1,-27,1,-1,1,0,1
1628,-9,1,-1,1,8,1,5,1,-9,1,3,1,0,1,31,1,-9,1,-28,1,-2,1,-1,1
1629,-9,1,0,1,9,1,4,1,-9,1,4,1,0,1,25,1,-11,1,-27,1,-3,1,-1,1
1630,-8,1,1,1,9,1,3,1,-8,1,5,1,0,1,38,1,-8,1,-26,1,0,1,1,1
1631,-8,1,1,1,9,1,3,1,-8,1,5,1,1,1,41,1,-9,1,-25,1,0,1,3,1
1632,-8,1,2,1,10,1,3,1,-9,1,6,1,1,1,36,1,-11,1,-26,1,0,1,3,1
1633,-7,1,3,1,10,1,2,1,-8,1,6,1,0,1,31,1,-8,1,-26,1,0,1,1,1
1634,-7,1,0,1,7,1,3,1,-7,1,3,1,0,1,21,1,-10,1,-27,1,-1,1,0,1
1635,-6,1,0,1,6,1,3,1,-6,1,3,1,-1,1,34,1,-6,1,-26,1,1,1,2,1
1636,-6,1,-1,1,5,1,3,1,-6,1,2,1,-1,1,38,1,-5,1,-25,1,1,1,3,1
1637,-7,1,0,1,7,1,3,1,-7,1,3,1,-1,1,35,1,-5,1,-25,1,0,1,3,1
1638,-9,1,1,1,10,1,4,1,-9,1,5,1,-2,1,34,1,-3,1,-26,1,-1,1,1,1
1639,-8,1,1,1,9,1,3,1,-8,1,5,1,0,1,28,1,-6,1,-26,1,-1,1,0,1
1640,-7,1,2,1,9,1,2,1,-8,1,5,1,0,1,41,1,-4,1,-24,1,2,1,3,1
1641,-8,1,1,1,9,1,3,1,-8,1,5,1,1,1,43,1,-6,1,-23,1,4,1,5,1
1642,-7,1,2,1,9,1,2,1,-8,1,5,1,1,1,36,1,-8,1,-23,1,3,1,6,1
1643,-6,1,3,1,9,1,1,1,-7,1,6,1,0,1,32,1,-6,1,-23,1,1,1,5,1
1644,-6,1,2,1,8,1,2,1,-7,1,5,1,-1,1,21,1,-7,1,-23,1,1,1,5,1
1645,-5,1,1,1,6,1,2,1,-5,1,3,1,-1,1,32,1,-3,1,-22,1,4,1,7,1
1646,-6,1,1,1,7,1,2,1,-6,1,4,1,-2,1,37,1,-1,1,-22,1,6,1,9,1
1647,-6,1,1,1,7,1,2,1,-6,1,4,1,-2,1,34,1,-3,1,-22,1,6,1,9,1
1648,-6,1,2,1,8,1,2,1,-7,1,5,1,-2,1,32,1,-1,1,-23,1,4,1,7,1
1649,-5,1,2,1,7,1,1,1,-6,1,4,1,-2,1,25,1,-5,1,-22,1,3,1,7,1
1650,-4,1,3,1,7,1,0,1,-5,1,5,1,-1,1,38,1,-3,1,-20,1,6,1,9,1
1651,-3,1,4,1,7,1,0,1,-5,1,5,1,-1,1,42,1,-4,1,-19,1,8,1,11,1
1652,-3,1,4,1,7,1,0,1,-5,1,5,1,-1,1,35,1,-7,1,-18,1,7,1,11,1
1653,-2,1,5,1,7,1,-1,1,-4,1,6,1,-2,1,29,1,-6,1,-20,1,5,1,9,1
1654,-1,1,2,1,3,1,0,1,-2,1,2,1,-2,1,21,1,-8,1,-18,1,4,1,10,1
1655,-1,1,2,1,3,1,0,1,-2,1,2,1,-3,1,32,1,-4,1,-17,1,8,1,13,1
1656,-2,1,3,1,5,1,0,1,-3,1,4,1,-3,1,36,1,-3,1,-16,1,10,1,15,1
1657,-2,1,3,1,5,1,0,1,-3,1,4,1,-3,1,33,1,-4,1,-15,1,10,1,15,1
1658,-4,1,4,1,8,1,0,1,-6,1,6,1,-4,1,26,1,-6,1,-15,1,9,1,14,1
1659,-3,1,4,1,7,1,0,1,-5,1,5,1,-3,1,21,1,-9,1,-15,1,8,1,14,1
1660,-2,1,5,1,7,1,-1,1,-4,1,6,1,-4,1,36,1,-6,1,-14,1,10,1,16,1
1661,-2,1,5,1,7,1,-1,1,-4,1,6,1,-3,1,39,1,-7,1,-13,1,12,1,17,1
1662,-1,1,5,1,6,1,-2,1,-3,1,5,1,-3,1,33,1,-9,1,-13,1,11,1,17,1
1663,0,1,7,1,7,1,-3,1,-3,1,7,1,-4,1,27,1,-7,1,-13,1,10,1,16,1
1664,1,1,5,1,4,1,-3,1,-1,1,5,1,-5,1,17,1,-8,1,-12,1,11,1,15,1
1665,1,1,4,1,3,1,-2,1,-1,1,4,1,-6,1,28,1,-4,1,-11,1,14,1,17,1
1666,0,1,4,1,4,1,-2,1,-2,1,4,1,-6,1,32,1,-2,1,-10,1,16,1,20,1
1667,0,1,5,1,5,1,-2,1,-2,1,5,1,-6,1,29,1,-1,1,-10,1,16,1,21,1
1668,-1,1,7,1,8,1,-3,1,-4,1,7,1,-7,1,27,1,1,1,-10,1,14,1,19,1
1669,0,1,7,1,7,1,-3,1,-3,1,7,1,-7,1,20,1,-1,1,-8,1,14,1,20,1
1670,1,1,9,1,8,1,-5,1,-3,1,9,1,-6,1,34,1,1,1,-5,1,17,1,23,1
1671,2,1,9,1,7,1,-5,1,-2,1,8,1,-6,1,37,1,0,1,-4,1,17,1,25,1
1672,2,1,10,1,8,1,-6,1,-3,1,9,1,-6,1,32,1,-2,1,-3,1,17,1,25,1
1673,3,1,11,1,8,1,-7,1,-2,1,10,1,-7,1,25,1,-1,1,-3,1,15,1,24,1
1674,3,1,8,1,5,1,-5,1,-1,1,7,1,-8,1,17,1,-3,1,-2,1,16,1,25,1
1675,5,1,8,1,3,1,-6,1,1,1,6,1,-9,1,29,1,2,1,0,1,20,1,28,1
1676,4,1,8,1,4,1,-6,1,0,1,6,1,-9,1,34,1,5,1,0,1,22,1,30,1
1677,4,1,9,1,5,1,-6,1,0,1,7,1,-10,1,31,1,6,1,2,1,22,1,30,1
1678,3,1,10,1,7,1,-6,1,-2,1,9,1,-11,1,28,1,8,1,2,1,20,1,28,1
1679,4,1,10,1,6,1,-7,1,-1,1,8,1,-11,1,21,1,5,1,4,1,20,1,29,1
1680,5,1,12,1,7,1,-8,1,-1,1,10,1,-11,1,36,1,8,1,6,1,23,1,33,1
1681,6,1,12,1,6,1,-9,1,0,1,9,1,-10,1,39,1,8,1,8,1,25,1,36,1
1682,6,1,12,1,6,1,-9,1,0,1,9,1,-11,1,33,1,6,1,9,1,24,1,37,1
1683,7,1,14,1,7,1,-10,1,0,1,11,1,-11,1,28,1,8,1,9,1,23,1,35,1
1684,8,1,12,1,4,1,-10,1,2,1,8,1,-12,1,20,1,7,1,10,1,22,1,35,1
1685,9,1,12,1,3,1,-10,1,3,1,8,1,-12,1,31,1,12,1,13,1,26,1,37,1
1686,9,1,12,1,3,1,-10,1,3,1,8,1,-13,1,36,1,14,1,15,1,28,1,39,1
1687,9,1,13,1,4,1,-11,1,3,1,9,1,-13,1,34,1,14,1,16,1,29,1,40,1
1688,8,1,14,1,6,1,-11,1,1,1,10,1,-14,1,33,1,16,1,16,1,28,1,38,1
1689,9,1,14,1,5,1,-11,1,2,1,10,1,-14,1,26,1,13,1,17,1,28,1,39,1
1690,11,1,15,1,4,1,-13,1,4,1,10,1,-15,1,40,1,16,1,20,1,32,1,43,1
1691,12,1,15,1,3,1,-13,1,5,1,9,1,-15,1,43,1,15,1,22,1,32,1,47,1
1692,13,1,16,1,3,1,-14,1,5,1,10,1,-15,1,37,1,14,1,24,1,32,1,48,1
1693,15,1,19,1,4,1,-17,1,6,1,12,1,-16,1,31,1,16,1,26,1,31,1,48,1
1694,15,1,18,1,3,1,-16,1,6,1,11,1,-16,1,23,1,15,1,27,1,32,1,48,1
1695,16,1,18,1,2,1,-17,1,7,1,10,1,-17,1,36,1,21,1,28,1,36,1,50,1
1696,15,1,19,1,4,1,-17,1,6,1,12,1,-17,1,41,1,23,1,30,1,39,1,53,1
1697,16,1,19,1,3,1,-17,1,7,1,11,1,-17,1,40,1,24,1,32,1,39,1,54,1
1698,15,1,20,1,5,1,-17,1,5,1,13,1,-18,1,39,1,26,1,33,1,38,1,53,1
1699,16,1,19,1,3,1,-17,1,7,1,11,1,-19,1,33,1,23,1,35,1,39,1,55,1
1700,18,1,20,1,2,1,-19,1,8,1,11,1,-21,1,48,1,26,1,39,1,43,1,59,1
1701,19,1,20,1,1,1,-19,1,9,1,11,1,-22,1,50,1,25,1,41,1,44,1,62,1
1702,20,1,21,1,1,1,-20,1,10,1,11,1,-22,1,44,1,24,1,43,1,45,1,64,1
1703,22,1,23,1,1,1,-22,1,11,1,12,1,-23,1,39,1,27,1,45,1,45,1,65,1
1704,24,1,23,1,-1,1,-23,1,13,1,11,1,-23,1,31,1,26,1,48,1,46,1,66,1
1705,26,1,23,1,-3,1,-24,1,15,1,10,1,-23,1,42,1,31,1,51,1,50,1,70,1
1706,27,1,24,1,-3,1,-25,1,15,1,11,1,-23,1,46,1,33,1,54,1,53,1,72,1
1707,28,1,25,1,-3,1,-26,1,16,1,11,1,-23,1,45,1,34,1,56,1,55,1,74,1
1708,29,1,27,1,-2,1,-28,1,16,1,13,1,-25,1,44,1,38,1,57,1,55,1,74,1
1709,30,1,27,1,-3,1,-28,1,17,1,12,1,-27,1,36,1,35,1,59,1,57,1,76,1
1710,32,1,28,1,-4,1,-30,1,18,1,12,1,-28,1,50,1,38,1,64,1,61,1,81,1
1711,34,1,29,1,-5,1,-31,1,20,1,12,1,-29,1,52,1,38,1,68,1,64,1,86,1
1712,35,1,31,1,-4,1,-33,1,20,1,14,1,-30,1,46,1,37,1,70,1,65,1,88,1
1713,37,1,34,1,-3,1,-35,1,20,1,16,1,-32,1,41,1,40,1,72,1,65,1,90,1
1714,39,1,33,1,-6,1,-36,1,23,1,14,1,-33,1,35,1,40,1,76,1,67,1,93,1
1715,42,1,34,1,-8,1,-38,1,25,1,13,1,-34,1,50,1,47,1,79,1,73,1,97,1
1716,43,1,35,1,-8,1,-39,1,26,1,14,1,-35,1,55,1,50,1,82,1,77,1,101,1
1717,44,1,36,1,-8,1,-40,1,26,1,14,1,-36,1,55,1,53,1,83,1,80,1,104,1
1718,45,1,38,1,-7,1,-41,1,26,1,16,1,-39,1,51,1,57,1,85,1,81,1,105,1
1719,48,1,39,1,-9,1,-43,1,29,1,15,1,-40,1,44,1,56,1,89,1,83,1,108,1
1720,50,1,41,1,-9,1,-45,1,30,1,16,1,-41,1,58,1,62,1,94,1,89,1,114,1
1721,52,1,42,1,-10,1,-47,1,31,1,16,1,-43,1,61,1,63,1,98,1,91,1,120,1
1722,53,1,44,1,-9,1,-48,1,31,1,18,1,-44,1,56,1,63,1,102,1,94,1,124,1
1723,55,1,47,1,-8,1,-51,1,32,1,20,1,-45,1,51,1,66,1,104,1,96,1,126,1
1724,57,1,47,1,-10,1,-52,1,34,1,19,1,-45,1,44,1,66,1,107,1,99,1,128,1
1725,59,1,48,1,-11,1,-53,1,35,1,19,1,-46,1,55,1,72,1,109,1,105,1,132,1
1726,60,1,49,1,-11,1,-54,1,36,1,19,1,-47,1,61,1,76,1,111,1,109,1,137,1
1727,61,1,49,1,-12,1,-55,1,37,1,19,1,-48,1,60,1,78,1,114,1,112,1,139,1
1728,62,1,51,1,-11,1,-56,1,37,1,20,1,-50,1,58,1,81,1,115,1,113,1,140,1
1729,63,1,51,1,-12,1,-57,1,38,1,20,1,-50,1,51,1,80,1,118,1,113,1,142,1
1730,65,1,53,1,-12,1,-59,1,39,1,21,1,-50,1,66,1,85,1,122,1,117,1,147,1
1731,65,1,55,1,-10,1,-60,1,38,1,23,1,-50,1,69,1,86,1,125,1,120,1,151,1
1732,64,1,57,1,-7,1,-60,1,36,1,25,1,-49,1,63,1,86,1,127,1,121,1,153,1
1733,64,1,60,1,-4,1,-62,1,34,1,28,1,-49,1,58,1,89,1,127,1,121,1,152,1
1734,64,1,59,1,-5,1,-61,1,35,1,27,1,-49,1,52,1,87,1,128,1,122,1,153,1
1735,63,1,60,1,-3,1,-61,1,33,1,29,1,-48,1,65,1,92,1,129,1,125,1,155,1
1736,62,1,61,1,-1,1,-61,1,32,1,30,1,-46,1,70,1,94,1,129,1,126,1,155,1
1737,60,1,61,1,1,1,-60,1,30,1,31,1,-45,1,69,1,95,1,129,1,125,1,154,1
1738,58,1,63,1,5,1,-60,1,27,1,34,1,-44,1,67,1,97,1,127,1,120,1,149,1
1739,56,1,63,1,7,1,-59,1,25,1,35,1,-43,1,60,1,94,1,126,1,118,1,146,1
1740,54,1,65,1,11,1,-59,1,22,1,38,1,-42,1,73,1,97,1,127,1,118,1,145,1
1741,50,1,65,1,15,1,-57,1,18,1,40,1,-39,1,74,1,96,1,126,1,116,1,143,1
1742,46,1,64,1,18,1,-55,1,14,1,41,1,-37,1,69,1,92,1,123,1,111,1,138,1
1743,43,1,65,1,22,1,-54,1,11,1,44,1,-35,1,61,1,90,1,120,1,105,1,132,1
1744,39,1,62,1,23,1,-50,1,8,1,43,1,-31,1,53,1,86,1,117,1,100,1,127,1
1745,35,1,61,1,26,1,-48,1,5,1,44,1,-28,1,65,1,87,1,114,1,98,1,125,1
1746,31,1,60,1,29,1,-45,1,1,1,45,1,-24,1,69,1,84,1,110,1,92,1,121,1
1747,28,1,59,1,31,1,-43,1,-1,1,45,1,-21,1,66,1,80,1,105,1,86,1,115,1
1748,24,1,58,1,34,1,-41,1,-5,1,46,1,-19,1,64,1,80,1,98,1,78,1,105,1
1749,20,1,56,1,36,1,-38,1,-8,1,46,1,-17,1,56,1,74,1,94,1,71,1,96,1
1750,18,1,54,1,36,1,-36,1,-9,1,45,1,-15,1,63,1,72,1,90,1,67,1,90,1
1751,14,1,50,1,36,1,-32,1,-11,1,43,1,-12,1,52,1,64,1,86,1,60,1,83,1
1752,10,1,46,1,36,1,-28,1,-13,1,41,1,-10,1,32,1,55,1,80,1,52,1,74,1
1753,7,1,45,1,38,1,-26,1,-15,1,42,1,-8,1,12,1,50,1,74,1,42,1,64,1
1754,4,1,40,1,36,1,-22,1,-16,1,38,1,-6,1,-9,1,42,1,69,1,35,1,56,1
1755,2,1,37,1,35,1,-19,1,-16,1,36,1,-4,1,-9,1,41,1,64,1,32,1,50,1
1756,-1,1,33,1,34,1,-16,1,-17,1,33,1,-2,1,-15,1,38,1,59,1,26,1,44,1
1757,-4,1,31,1,35,1,-13,1,-19,1,33,1,-2,1,-26,1,33,1,53,1,20,1,36,1
1758,-7,1,29,1,36,1,-11,1,-21,1,32,1,-2,1,-36,1,31,1,46,1,13,1,27,1
1759,-9,1,26,1,35,1,-8,1,-22,1,30,1,-2,1,-52,1,24,1,42,1,7,1,20,1
1760,-9,1,23,1,32,1,-7,1,-20,1,27,1,-1,1,-48,1,23,1,39,1,5,1,16,1
1761,-11,1,20,1,31,1,-4,1,-21,1,25,1,-1,1,-54,1,18,1,36,1,1,1,13,1
1762,-13,1,16,1,29,1,-1,1,-21,1,22,1,-1,1,-68,1,12,1,33,1,-4,1,8,1
1763,-13,1,15,1,28,1,-1,1,-20,1,21,1,-1,1,-81,1,10,1,28,1,-8,1,2,1
1764,-14,1,12,1,26,1,1,1,-20,1,19,1,0,1,-93,1,6,1,26,1,-11,1,-2,1
1765,-15,1,10,1,25,1,2,1,-20,1,17,1,0,1,-84,1,8,1,25,1,-10,1,-3,1
1766,-17,1,9,1,26,1,4,1,-21,1,17,1,1,1,-82,1,7,1,23,1,-11,1,-4,1
1767,-18,1,8,1,26,1,5,1,-22,1,17,1,0,1,-86,1,5,1,21,1,-13,1,-8,1
1768,-22,1,7,1,29,1,7,1,-25,1,18,1,0,1,-97,1,2,1,17,1,-18,1,-13,1
1769,-22,1,6,1,28,1,8,1,-25,1,17,1,1,1,-106,1,-1,1,15,1,-21,1,-16,1
1770,-22,1,4,1,26,1,9,1,-24,1,15,1,1,1,-95,1,1,1,15,1,-21,1,-17,1
1771,-22,1,2,1,24,1,10,1,-23,1,13,1,1,1,-97,1,0,1,14,1,-24,1,-18,1
