TS,Reading,Flag,TS2,Reading2,Flag2
1,-20,5,2000,-19,5
2,-20,5,2001,-19,5
3,-20,5,2002,-17,5
4,-21,5,2003,-20,5
5,-22,5,2004,-23,5
6,-23,5,2005,-23,5
7,-21,5,2006,-22,5
8,-18,5,2007,-22,5
9,-17,5,2008,-23,5
10,-18,5,2009,-24,5
11,-17,5,2010,-21,5
12,-17,5,2011,-19,5
13,-19,5,2012,-19,5
14,-19,5,2013,-19,5
15,-20,5,2014,-20,5
16,-20,5,2015,-19,5
17,-23,5,2016,-18,5
18,-25,5,2017,-18,5
19,-25,5,2018,-18,5
20,-23,5,2019,-19,5
21,-23,5,2020,-20,5
22,-22,5,2021,-17,5
23,-20,5,2022,-17,5
24,-14,5,2023,-17,5
25,-13,5,2024,-18,5
26,-18,5,2025,-18,5
27,-19,5,2026,-16,5
28,-19,5,2027,-15,5
29,-19,5,2028,-15,5
30,-18,5,2029,-12,5
31,-18,5,2030,-9,5
32,-18,5,2031,-11,5
33,-22,5,2032,-17,5
34,-24,5,2033,-22,5
35,-22,5,2034,-23,5
36,-21,5,2035,-21,5
37,-21,5,2036,-19,5
38,-18,5,2037,-19,5
39,-15,5,2038,-20,5
40,-13,5,2039,-22,5
41,-12,5,2040,-21,5
42,-15,5,2041,-21,5
43,-16,5,2042,-21,5
44,-16,5,2043,-19,5
45,-17,5,2044,-16,5
46,-19,5,2045,-14,5
47,-21,5,2046,-15,5
48,-21,5,2047,-18,5
49,-20,5,2048,-21,5
50,-21,5,2049,-22,5
51,-21,5,2050,-22,5
52,-19,5,2051,-22,5
53,-16,5,2052,-22,5
54,-16,5,2053,-20,5
55,-16,5,2054,-19,5
56,-16,5,2055,-20,5
57,-15,5,2056,-22,5
58,-16,5,2057,-23,5
59,-19,5,2058,-23,5
60,-21,5,2059,-22,5
61,-19,5,2060,-19,5
62,-17,5,2061,-20,5
63,-13,5,2062,-22,5
64,-10,5,2063,-23,5
65,-10,5,2064,-21,5
66,-10,5,2065,-21,5
67,-9,5,2066,-20,5
68,-3,5,2067,-20,5
69,-1,5,2068,-21,5
70,-2,5,2069,-23,5
71,-3,5,2070,-20,5
72,-3,5,2071,-17,5
73,0,5,2072,-17,5
74,5,5,2073,-17,5
75,6,5,2074,-20,5
76,5,5,2075,-19,5
77,5,5,2076,-16,5
78,4,5,2077,-15,5
79,5,5,2078,-15,5
80,8,5,2079,-17,5
81,8,5,2080,-15,5
82,5,5,2081,-16,5
83,4,5,2082,-16,5
84,5,5,2083,-16,5
85,3,5,2084,-18,5
86,2,5,2085,-20,5
87,3,5,2086,-18,5
88,4,5,2087,-19,5
89,7,5,2088,-22,5
90,8,5,2089,-20,5
91,8,5,2090,-19,5
92,9,5,2091,-18,5
93,8,5,2092,-19,5
94,6,5,2093,-18,5
95,4,5,2094,-15,5
96,2,5,2095,-14,5
97,1,5,2096,-12,5
98,1,5,2097,-10,5
99,1,5,2098,-11,5
100,-1,5,2099,-12,5
101,-4,5,2100,-11,5
102,-7,5,2101,-10,5
103,-7,5,2102,-10,5
104,-8,5,2103,-10,5
105,-8,5,2104,-10,5
106,-10,5,2105,-9,5
107,-13,5,2106,-6,5
108,-14,5,2107,-6,5
109,-15,5,2108,-5,5
110,-16,5,2109,-3,5
111,-17,5,2110,0,5
112,-21,5,2111,1,5
113,-25,5,2112,1,5
114,-25,5,2113,5,5
115,-25,5,2114,7,5
116,-25,5,2115,5,5
117,-24,5,2116,4,5
118,-21,5,2117,6,5
119,-20,5,2118,8,5
120,-20,5,2119,9,5
121,-20,5,2120,9,5
122,-20,5,2121,9,5
123,-21,5,2122,7,5
124,-19,5,2123,5,5
125,-19,5,2124,1,5
126,-22,5,2125,1,5
127,-23,5,2126,3,5
128,-24,5,2127,5,5
129,-24,5,2128,7,5
130,-25,5,2129,5,5
131,-25,5,2130,2,5
132,-25,5,2131,-5,5
133,-25,5,2132,-8,5
134,-25,5,2133,-10,5
135,-25,5,2134,-11,5
136,-25,5,2135,-12,5
137,-25,5,2136,-14,5
138,-25,5,2137,-18,5
139,-25,5,2138,-19,5
140,-25,5,2139,-21,5
141,-25,5,2140,-20,5
142,-22,5,2141,-19,5
143,-16,5,2142,-18,5
144,-7,5,2143,-20,5
145,3,5,2144,-24,5
146,18,5,2145,-24,5
147,34,5,2146,-22,5
148,52,5,2147,-23,5
149,74,5,2148,-23,5
150,90,5,2149,-24,5
151,90,5,2150,-22,5
152,90,5,2151,-21,5
153,90,5,2152,-23,5
154,90,5,2153,-24,5
155,90,5,2154,-24,5
156,90,5,2155,-25,5
157,90,5,2156,-25,5
158,90,5,2157,-25,5
159,90,5,2158,-25,5
160,61,5,2159,-25,5
161,31,5,2160,-25,5
162,5,5,2161,-23,5
163,-13,5,2162,-23,5
164,-24,5,2163,-25,5
165,-25,5,2164,-25,5
166,-25,5,2165,-25,5
167,-25,5,2166,-22,5
168,-25,5,2167,-19,5
169,-25,5,2168,-20,5
170,-25,5,2169,-22,5
171,-25,5,2170,-23,5
172,-24,5,2171,-23,5
173,-22,5,2172,-22,5
174,-19,5,2173,-20,5
175,-16,5,2174,-14,5
176,-17,5,2175,-6,5
177,-25,5,2176,3,5
178,-25,5,2177,12,5
179,-25,5,2178,24,5
180,-25,5,2179,41,5
181,-24,5,2180,62,5
182,-23,5,2181,90,5
183,-23,5,2182,90,5
184,-23,5,2183,90,5
185,-24,5,2184,90,5
186,-23,5,2185,90,5
187,-19,5,2186,90,5
188,-19,5,2187,90,5
189,-20,5,2188,90,5
190,-20,5,2189,90,5
191,-20,5,2190,90,5
192,-20,5,2191,90,5
193,-21,5,2192,60,5
194,-23,5,2193,33,5
195,-23,5,2194,14,5
196,-22,5,2195,2,5
197,-21,5,2196,-6,5
198,-24,5,2197,-12,5
199,-25,5,2198,-15,5
200,-23,5,2199,-20,5
201,-21,5,2200,-22,5
202,-22,5,2201,-21,5
203,-20,5,2202,-20,5
204,-20,5,2203,-18,5
205,-19,5,2204,-18,5
206,-18,5,2205,-18,5
207,-19,5,2206,-15,5
208,-19,5,2207,-13,5
209,-18,5,2208,-11,5
210,-18,5,2209,-11,5
211,-17,5,2210,-10,5
212,-17,5,2211,-10,5
213,-16,5,2212,-11,5
214,-16,5,2213,-12,5
215,-17,5,2214,-13,5
216,-19,5,2215,-15,5
217,-19,5,2216,-14,5
218,-18,5,2217,-14,5
219,-21,5,2218,-16,5
220,-22,5,2219,-15,5
221,-25,5,2220,-12,5
222,-25,5,2221,-11,5
223,-25,5,2222,-11,5
224,-25,5,2223,-11,5
225,-25,5,2224,-12,5
226,-25,5,2225,-13,5
227,-24,5,2226,-12,5
228,-25,5,2227,-12,5
229,-25,5,2228,-14,5
230,-25,5,2229,-16,5
231,-25,5,2230,-15,5
232,-25,5,2231,-13,5
233,-25,5,2232,-10,5
234,-25,5,2233,-10,5
235,-24,5,2234,-9,5
236,-21,5,2235,-8,5
237,-17,5,2236,-11,5
238,-16,5,2237,-12,5
239,-17,5,2238,-12,5
240,-19,5,2239,-14,5
241,-18,5,2240,-12,5
242,-17,5,2241,-10,5
243,-14,5,2242,-11,5
244,-13,5,2243,-14,5
245,-14,5,2244,-14,5
246,-14,5,2245,-11,5
247,-12,5,2246,-8,5
248,-14,5,2247,-7,5
249,-16,5,2248,-10,5
250,-18,5,2249,-14,5
251,-19,5,2250,-17,5
252,-18,5,2251,-19,5
253,-18,5,2252,-15,5
254,-16,5,2253,-12,5
255,-11,5,2254,-12,5
256,-10,5,2255,-14,5
257,-11,5,2256,-12,5
258,-12,5,2257,-11,5
259,-12,5,2258,-10,5
260,-11,5,2259,-11,5
261,-10,5,2260,-15,5
262,-9,5,2261,-19,5
263,-9,5,2262,-18,5
264,-8,5,2263,-13,5
265,-7,5,2264,-9,5
266,-5,5,2265,-7,5
267,-4,5,2266,-6,5
268,0,5,2267,-4,5
269,3,5,2268,-4,5
270,4,5,2269,-5,5
271,6,5,2270,-7,5
272,4,5,2271,-8,5
273,0,5,2272,-9,5
274,-3,5,2273,-10,5
275,-3,5,2274,-11,5
276,-1,5,2275,-12,5
277,2,5,2276,-14,5
278,4,5,2277,-16,5
279,3,5,2278,-16,5
280,2,5,2279,-12,5
281,2,5,2280,-8,5
282,4,5,2281,-5,5
283,4,5,2282,-4,5
284,3,5,2283,-2,5
285,4,5,2284,-2,5
286,8,5,2285,-4,5
287,10,5,2286,-3,5
288,10,5,2287,-1,5
289,11,5,2288,-1,5
290,11,5,2289,-1,5
291,15,5,2290,-3,5
292,16,5,2291,-2,5
293,15,5,2292,-1,5
294,15,5,2293,-1,5
295,17,5,2294,2,5
296,16,5,2295,3,5
297,14,5,2296,3,5
298,10,5,2297,4,5
299,8,5,2298,5,5
300,7,5,2299,7,5
301,9,5,2300,7,5
302,11,5,2301,6,5
303,12,5,2302,5,5
304,11,5,2303,9,5
305,10,5,2304,11,5
306,10,5,2305,9,5
307,13,5,2306,8,5
308,15,5,2307,8,5
309,17,5,2308,8,5
310,19,5,2309,8,5
311,18,5,2310,10,5
312,14,5,2311,11,5
313,10,5,2312,13,5
314,9,5,2313,15,5
315,8,5,2314,18,5
316,6,5,2315,21,5
317,5,5,2316,21,5
318,5,5,2317,22,5
319,4,5,2318,20,5
320,3,5,2319,20,5
321,1,5,2320,22,5
322,-2,5,2321,25,5
323,-4,5,2322,26,5
324,-6,5,2323,26,5
325,-7,5,2324,30,5
326,-8,5,2325,31,5
327,-9,5,2326,30,5
328,-9,5,2327,28,5
329,-11,5,2328,25,5
330,-15,5,2329,29,5
331,-19,5,2330,33,5
332,-21,5,2331,34,5
333,-21,5,2332,34,5
334,-19,5,2333,35,5
335,-16,5,2334,36,5
336,-14,5,2335,37,5
337,-12,5,2336,34,5
338,-14,5,2337,35,5
339,-16,5,2338,37,5
340,-18,5,2339,36,5
341,-17,5,2340,34,5
342,-13,5,2341,30,5
343,-16,5,2342,26,5
344,-19,5,2343,28,5
345,-21,5,2344,26,5
346,-25,5,2345,21,5
347,-25,5,2346,17,5
348,-25,5,2347,16,5
349,-25,5,2348,16,5
350,-25,5,2349,18,5
351,-25,5,2350,16,5
352,-25,5,2351,11,5
353,-24,5,2352,8,5
354,-22,5,2353,7,5
355,-22,5,2354,6,5
356,-25,5,2355,5,5
357,-25,5,2356,5,5
358,-25,5,2357,6,5
359,-25,5,2358,6,5
360,-25,5,2359,5,5
361,-25,5,2360,5,5
362,-25,5,2361,4,5
363,-25,5,2362,2,5
364,-25,5,2363,-1,5
365,-25,5,2364,-7,5
366,-25,5,2365,-13,5
367,-24,5,2366,-15,5
368,-22,5,2367,-17,5
369,-22,5,2368,-17,5
370,-23,5,2369,-14,5
371,-23,5,2370,-11,5
372,-22,5,2371,-8,5
373,-25,5,2372,-8,5
374,-25,5,2373,-8,5
375,-25,5,2374,-9,5
376,-25,5,2375,-11,5
377,-25,5,2376,-13,5
378,-25,5,2377,-13,5
379,-24,5,2378,-13,5
380,-21,5,2379,-12,5
381,-22,5,2380,-11,5
382,-23,5,2381,-11,5
383,-22,5,2382,-11,5
384,-21,5,2383,-13,5
385,-20,5,2384,-17,5
386,-19,5,2385,-20,5
387,-20,5,2386,-17,5
388,-21,5,2387,-14,5
389,-20,5,2388,-15,5
390,-19,5,2389,-17,5
391,-16,5,2390,-17,5
392,-16,5,2391,-17,5
393,-17,5,2392,-18,5
394,-18,5,2393,-16,5
395,-16,5,2394,-13,5
396,-15,5,2395,-13,5
397,-16,5,2396,-12,5
398,-20,5,2397,-13,5
399,-21,5,2398,-17,5
400,-20,5,2399,-19,5
401,-19,5,2400,-22,5
402,-18,5,2401,-20,5
403,-17,5,2402,-19,5
404,-18,5,2403,-20,5
405,-17,5,2404,-18,5
406,-17,5,2405,-18,5
407,-16,5,2406,-18,5
408,-18,5,2407,-18,5
409,-21,5,2408,-17,5
410,-22,5,2409,-15,5
411,-22,5,2410,-15,5
412,-21,5,2411,-16,5
413,-21,5,2412,-19,5
414,-19,5,2413,-20,5
415,-17,5,2414,-18,5
416,-18,5,2415,-15,5
417,-18,5,2416,-13,5
418,-14,5,2417,-10,5
419,-9,5,2418,-7,5
420,-8,5,2419,-5,5
421,-11,5,2420,-8,5
422,-15,5,2421,-10,5
423,-18,5,2422,-13,5
424,-19,5,2423,-14,5
425,-20,5,2424,-16,5
426,-20,5,2425,-18,5
427,-19,5,2426,-17,5
428,-18,5,2427,-14,5
429,-21,5,2428,-11,5
430,-24,5,2429,-12,5
431,-24,5,2430,-13,5
432,-20,5,2431,-16,5
433,-17,5,2432,-18,5
434,-17,5,2433,-18,5
435,-18,5,2434,-17,5
436,-16,5,2435,-15,5
437,-14,5,2436,-11,5
438,-13,5,2437,-10,5
439,-15,5,2438,-10,5
440,-17,5,2439,-8,5
441,-19,5,2440,-9,5
442,-22,5,2441,-14,5
443,-25,5,2442,-15,5
444,-25,5,2443,-12,5
445,-25,5,2444,-11,5
446,-24,5,2445,-12,5
447,-19,5,2446,-13,5
448,-16,5,2447,-15,5
449,-16,5,2448,-14,5
450,-18,5,2449,-12,5
451,-17,5,2450,-11,5
452,-17,5,2451,-11,5
453,-16,5,2452,-12,5
454,-16,5,2453,-14,5
455,-20,5,2454,-14,5
456,-22,5,2455,-13,5
457,-23,5,2456,-10,5
458,-24,5,2457,-7,5
459,-23,5,2458,-7,5
460,-21,5,2459,-8,5
461,-22,5,2460,-13,5
462,-25,5,2461,-18,5
463,-25,5,2462,-22,5
464,-25,5,2463,-22,5
465,-25,5,2464,-24,5
466,-25,5,2465,-23,5
467,-22,5,2466,-18,5
468,-18,5,2467,-14,5
469,-18,5,2468,-10,5
470,-18,5,2469,-9,5
471,-19,5,2470,-6,5
472,-18,5,2471,-7,5
473,-18,5,2472,-9,5
474,-17,5,2473,-11,5
475,-17,5,2474,-13,5
476,-18,5,2475,-15,5
477,-19,5,2476,-18,5
478,-18,5,2477,-22,5
479,-17,5,2478,-24,5
480,-18,5,2479,-22,5
481,-18,5,2480,-20,5
482,-18,5,2481,-17,5
483,-18,5,2482,-17,5
484,-18,5,2483,-16,5
485,-20,5,2484,-16,5
486,-20,5,2485,-14,5
487,-21,5,2486,-13,5
488,-22,5,2487,-14,5
489,-22,5,2488,-15,5
490,-21,5,2489,-14,5
491,-19,5,2490,-15,5
492,-18,5,2491,-14,5
493,-22,5,2492,-14,5
494,-21,5,2493,-15,5
495,-19,5,2494,-15,5
496,-15,5,2495,-14,5
497,-13,5,2496,-13,5
498,-16,5,2497,-16,5
499,-19,5,2498,-18,5
500,-22,5,2499,-17,5
501,-23,5,2500,-18,5
502,-22,5,2501,-22,5
503,-21,5,2502,-21,5
504,-22,5,2503,-22,5
505,-21,5,2504,-23,5
506,-23,5,2505,-22,5
507,-25,5,2506,-24,5
508,-25,5,2507,-23,5
509,-24,5,2508,-20,5
510,-21,5,2509,-17,5
511,-19,5,2510,-15,5
512,-19,5,2511,-15,5
513,-19,5,2512,-16,5
514,-19,5,2513,-16,5
515,-19,5,2514,-15,5
516,-18,5,2515,-14,5
517,-18,5,2516,-14,5
518,-16,5,2517,-17,5
519,-15,5,2518,-19,5
520,-16,5,2519,-19,5
521,-17,5,2520,-16,5
522,-16,5,2521,-15,5
523,-14,5,2522,-13,5
524,-12,5,2523,-11,5
525,-11,5,2524,-11,5
526,-14,5,2525,-18,5
527,-17,5,2526,-21,5
528,-19,5,2527,-20,5
529,-20,5,2528,-20,5
530,-18,5,2529,-20,5
531,-17,5,2530,-19,5
532,-15,5,2531,-18,5
533,-13,5,2532,-17,5
534,-15,5,2533,-16,5
535,-20,5,2534,-13,5
536,-23,5,2535,-15,5
537,-21,5,2536,-15,5
538,-20,5,2537,-13,5
539,-24,5,2538,-11,5
540,-25,5,2539,-15,5
541,-23,5,2540,-16,5
542,-22,5,2541,-16,5
543,-22,5,2542,-15,5
544,-23,5,2543,-15,5
545,-22,5,2544,-18,5
546,-21,5,2545,-19,5
547,-21,5,2546,-18,5
548,-20,5,2547,-15,5
549,-20,5,2548,-13,5
550,-21,5,2549,-11,5
551,-20,5,2550,-8,5
552,-20,5,2551,-6,5
553,-17,5,2552,-9,5
554,-15,5,2553,-13,5
555,-16,5,2554,-14,5
556,-18,5,2555,-11,5
557,-16,5,2556,-11,5
558,-16,5,2557,-13,5
559,-14,5,2558,-12,5
560,-13,5,2559,-11,5
561,-15,5,2560,-10,5
562,-17,5,2561,-11,5
563,-17,5,2562,-14,5
564,-17,5,2563,-14,5
565,-20,5,2564,-14,5
566,-20,5,2565,-14,5
567,-18,5,2566,-14,5
568,-16,5,2567,-12,5
569,-16,5,2568,-10,5
570,-16,5,2569,-7,5
571,-15,5,2570,-4,5
572,-16,5,2571,-5,5
573,-16,5,2572,-5,5
574,-15,5,2573,-5,5
575,-16,5,2574,-9,5
576,-12,5,2575,-9,5
577,-7,5,2576,-8,5
578,-6,5,2577,-8,5
579,-8,5,2578,-10,5
580,-8,5,2579,-10,5
581,-10,5,2580,-9,5
582,-9,5,2581,-7,5
583,-6,5,2582,-6,5
584,-4,5,2583,-9,5
585,-2,5,2584,-11,5
586,-2,5,2585,-10,5
587,0,5,2586,-11,5
588,4,5,2587,-12,5
589,8,5,2588,-11,5
590,6,5,2589,-10,5
591,4,5,2590,-9,5
592,3,5,2591,-8,5
593,1,5,2592,-10,5
594,0,5,2593,-9,5
595,-1,5,2594,-9,5
596,1,5,2595,-11,5
597,4,5,2596,-14,5
598,6,5,2597,-15,5
599,8,5,2598,-16,5
600,8,5,2599,-16,5
601,9,5,2600,-17,5
602,8,5,2601,-16,5
603,7,5,2602,-15,5
604,4,5,2603,-15,5
605,4,5,2604,-17,5
606,3,5,2605,-17,5
607,2,5,2606,-12,5
608,0,5,2607,-8,5
609,-2,5,2608,-7,5
610,-2,5,2609,-9,5
611,-3,5,2610,-11,5
612,-4,5,2611,-13,5
613,-4,5,2612,-13,5
614,-7,5,2613,-15,5
615,-12,5,2614,-15,5
616,-16,5,2615,-13,5
617,-16,5,2616,-10,5
618,-18,5,2617,-7,5
619,-20,5,2618,-5,5
620,-22,5,2619,-5,5
621,-24,5,2620,-4,5
622,-24,5,2621,-4,5
623,-23,5,2622,-5,5
624,-25,5,2623,-5,5
625,-25,5,2624,-4,5
626,-25,5,2625,-2,5
627,-25,5,2626,0,5
628,-25,5,2627,1,5
629,-25,5,2628,-3,5
630,-25,5,2629,-6,5
631,-25,5,2630,-5,5
632,-25,5,2631,-2,5
633,-25,5,2632,-3,5
634,-25,5,2633,-5,5
635,-25,5,2634,-7,5
636,-25,5,2635,-9,5
637,-24,5,2636,-10,5
638,-25,5,2637,-11,5
639,-24,5,2638,-13,5
640,-23,5,2639,-16,5
641,-24,5,2640,-18,5
642,-24,5,2641,-19,5
643,-23,5,2642,-20,5
644,-22,5,2643,-19,5
645,-22,5,2644,-21,5
646,-24,5,2645,-19,5
647,-22,5,2646,-20,5
648,-21,5,2647,-23,5
649,-22,5,2648,-25,5
650,-23,5,2649,-25,5
651,-25,5,2650,-25,5
652,-24,5,2651,-25,5
653,-17,5,2652,-25,5
654,-9,5,2653,-25,5
655,1,5,2654,-25,5
656,14,5,2655,-25,5
657,30,5,2656,-25,5
658,50,5,2657,-25,5
659,73,5,2658,-25,5
660,90,5,2659,-25,5
661,90,5,2660,-25,5
662,90,5,2661,-25,5
663,90,5,2662,-25,5
664,90,5,2663,-25,5
665,90,5,2664,-25,5
666,90,5,2665,-25,5
667,90,5,2666,-25,5
668,90,5,2667,-25,5
669,90,5,2668,-25,5
670,84,5,2669,-25,5
671,52,5,2670,-25,5
672,24,5,2671,-25,5
673,5,5,2672,-25,5
674,-5,5,2673,-25,5
675,-11,5,2674,-25,5
676,-13,5,2675,-25,5
677,-16,5,2676,-25,5
678,-19,5,2677,-25,5
679,-16,5,2678,-25,5
680,-18,5,2679,-25,5
681,-19,5,2680,-25,5
682,-15,5,2681,-25,5
683,-11,5,2682,-25,5
684,-11,5,2683,-25,5
685,-13,5,2684,-25,5
686,-15,5,2685,-25,5
687,-18,5,2686,-14,5
688,-19,5,2687,5,5
689,-19,5,2688,26,5
690,-20,5,2689,45,5
691,-19,5,2690,67,5
692,-20,5,2691,90,5
693,-20,5,2692,90,5
694,-18,5,2693,90,5
695,-15,5,2694,90,5
696,-13,5,2695,90,5
697,-13,5,2696,90,5
698,-13,5,2697,90,5
699,-14,5,2698,90,5
700,-13,5,2699,73,5
701,-12,5,2700,41,5
702,-14,5,2701,12,5
703,-16,5,2702,-9,5
704,-17,5,2703,-23,5
705,-17,5,2704,-25,5
706,-17,5,2705,-25,5
707,-17,5,2706,-25,5
708,-17,5,2707,-25,5
709,-19,5,2708,-25,5
710,-21,5,2709,-25,5
711,-20,5,2710,-25,5
712,-18,5,2711,-25,5
713,-17,5,2712,-25,5
714,-17,5,2713,-25,5
715,-16,5,2714,-25,5
716,-13,5,2715,-25,5
717,-13,5,2716,-25,5
718,-12,5,2717,-25,5
719,-12,5,2718,-25,5
720,-11,5,2719,-25,5
721,-14,5,2720,-25,5
722,-15,5,2721,-25,5
723,-13,5,2722,-25,5
724,-11,5,2723,-25,5
725,-8,5,2724,-25,5
726,-8,5,2725,-25,5
727,-13,5,2726,-25,5
728,-16,5,2727,-25,5
729,-17,5,2728,-25,5
730,-17,5,2729,-25,5
731,-17,5,2730,-25,5
732,-17,5,2731,-25,5
733,-19,5,2732,-25,5
734,-17,5,2733,-25,5
735,-15,5,2734,-25,5
736,-14,5,2735,-25,5
737,-14,5,2736,-25,5
738,-14,5,2737,-25,5
739,-13,5,2738,-25,5
740,-11,5,2739,-25,5
741,-10,5,2740,-25,5
742,-10,5,2741,-25,5
743,-12,5,2742,-25,5
744,-9,5,2743,-25,5
745,-9,5,2744,-25,5
746,-9,5,2745,-25,5
747,-8,5,2746,-25,5
748,-7,5,2747,-25,5
749,-10,5,2748,-25,5
750,-11,5,2749,-25,5
751,-16,5,2750,-25,5
752,-17,5,2751,-25,5
753,-14,5,2752,-25,5
754,-13,5,2753,-25,5
755,-13,5,2754,-25,5
756,-13,5,2755,-25,5
757,-12,5,2756,-25,5
758,-12,5,2757,-25,5
759,-11,5,2758,-25,5
760,-10,5,2759,-25,5
761,-10,5,2760,-25,5
762,-10,5,2761,-25,5
763,-11,5,2762,-25,5
764,-10,5,2763,-25,5
765,-7,5,2764,-25,5
766,-6,5,2765,-25,5
767,-5,5,2766,-25,5
768,-4,5,2767,-25,5
769,-2,5,2768,-25,5
770,1,5,2769,-25,5
771,1,5,2770,-25,5
772,0,5,2771,-25,5
773,1,5,2772,-25,5
774,3,5,2773,-25,5
775,3,5,2774,-23,5
776,2,5,2775,-23,5
777,4,5,2776,-25,5
778,8,5,2777,-25,5
779,10,5,2778,-25,5
780,9,5,2779,-25,5
781,7,5,2780,-25,5
782,7,5,2781,-25,5
783,11,5,2782,-25,5
784,15,5,2783,-25,5
785,14,5,2784,-25,5
786,11,5,2785,-25,5
787,10,5,2786,-25,5
788,11,5,2787,-23,5
789,11,5,2788,-22,5
790,13,5,2789,-23,5
791,13,5,2790,-24,5
792,18,5,2791,-24,5
793,23,5,2792,-24,5
794,26,5,2793,-24,5
795,28,5,2794,-22,5
796,28,5,2795,-21,5
797,26,5,2796,-19,5
798,26,5,2797,-18,5
799,27,5,2798,-16,5
800,26,5,2799,-14,5
801,24,5,2800,-12,5
802,24,5,2801,-11,5
803,23,5,2802,-12,5
804,24,5,2803,-12,5
805,26,5,2804,-11,5
806,27,5,2805,-12,5
807,28,5,2806,-12,5
808,28,5,2807,-10,5
809,26,5,2808,-6,5
810,24,5,2809,-5,5
811,25,5,2810,-4,5
812,26,5,2811,-4,5
813,28,5,2812,-4,5
814,30,5,2813,-5,5
815,30,5,2814,-6,5
816,28,5,2815,-4,5
817,29,5,2816,-3,5
818,29,5,2817,-5,5
819,28,5,2818,-5,5
820,28,5,2819,-3,5
821,29,5,2820,-2,5
822,28,5,2821,0,5
823,25,5,2822,2,5
824,23,5,2823,5,5
825,23,5,2824,5,5
826,21,5,2825,4,5
827,19,5,2826,4,5
828,20,5,2827,4,5
829,19,5,2828,4,5
830,14,5,2829,7,5
831,7,5,2830,10,5
832,4,5,2831,7,5
833,2,5,2832,7,5
834,0,5,2833,9,5
835,0,5,2834,10,5
836,0,5,2835,11,5
837,1,5,2836,12,5
838,1,5,2837,14,5
839,0,5,2838,15,5
840,0,5,2839,16,5
841,2,5,2840,17,5
842,-2,5,2841,19,5
843,-7,5,2842,21,5
844,-11,5,2843,21,5
845,-15,5,2844,19,5
846,-18,5,2845,19,5
847,-18,5,2846,19,5
848,-17,5,2847,21,5
849,-16,5,2848,18,5
850,-16,5,2849,13,5
851,-14,5,2850,9,5
852,-14,5,2851,6,5
853,-14,5,2852,5,5
854,-13,5,2853,4,5
855,-15,5,2854,4,5
856,-16,5,2855,6,5
857,-16,5,2856,6,5
858,-15,5,2857,4,5
859,-15,5,2858,2,5
860,-14,5,2859,0,5
861,-14,5,2860,-2,5
862,-16,5,2861,-4,5
863,-15,5,2862,-5,5
864,-15,5,2863,-6,5
865,-18,5,2864,-5,5
866,-19,5,2865,-2,5
867,-18,5,2866,-3,5
868,-16,5,2867,-8,5
869,-14,5,2868,-14,5
870,-11,5,2869,-14,5
871,-11,5,2870,-13,5
872,-14,5,2871,-17,5
873,-15,5,2872,-19,5
874,-11,5,2873,-18,5
875,-11,5,2874,-21,5
876,-16,5,2875,-23,5
877,-18,5,2876,-23,5
878,-19,5,2877,-22,5
879,-20,5,2878,-21,5
880,-19,5,2879,-21,5
881,-17,5,2880,-21,5
882,-17,5,2881,-19,5
883,-15,5,2882,-18,5
884,-16,5,2883,-20,5
885,-17,5,2884,-22,5
886,-17,5,2885,-25,5
887,-16,5,2886,-25,5
888,-16,5,2887,-24,5
889,-15,5,2888,-23,5
890,-14,5,2889,-21,5
891,-11,5,2890,-22,5
892,-11,5,2891,-25,5
893,-11,5,2892,-25,5
894,-10,5,2893,-25,5
895,-11,5,2894,-25,5
896,-12,5,2895,-25,5
897,-10,5,2896,-25,5
898,-8,5,2897,-25,5
899,-9,5,2898,-25,5
900,-12,5,2899,-24,5
901,-14,5,2900,-25,5
902,-17,5,2901,-25,5
903,-17,5,2902,-25,5
904,-15,5,2903,-25,5
905,-11,5,2904,-25,5
906,-9,5,2905,-25,5
907,-12,5,2906,-25,5
908,-13,5,2907,-25,5
909,-11,5,2908,-25,5
910,-9,5,2909,-25,5
911,-10,5,2910,-24,5
912,-11,5,2911,-23,5
913,-11,5,2912,-21,5
914,-12,5,2913,-19,5
915,-12,5,2914,-20,5
916,-11,5,2915,-24,5
917,-9,5,2916,-25,5
918,-10,5,2917,-25,5
919,-14,5,2918,-25,5
920,-15,5,2919,-25,5
921,-13,5,2920,-25,5
922,-12,5,2921,-21,5
923,-13,5,2922,-20,5
924,-14,5,2923,-20,5
925,-14,5,2924,-18,5
926,-15,5,2925,-15,5
927,-13,5,2926,-16,5
928,-9,5,2927,-18,5
929,-8,5,2928,-21,5
930,-8,5,2929,-22,5
931,-8,5,2930,-24,5
932,-7,5,2931,-22,5
933,-6,5,2932,-20,5
934,-8,5,2933,-20,5
935,-10,5,2934,-20,5
936,-9,5,2935,-18,5
937,-9,5,2936,-15,5
938,-8,5,2937,-13,5
939,-8,5,2938,-12,5
940,-11,5,2939,-12,5
941,-13,5,2940,-14,5
942,-15,5,2941,-16,5
943,-15,5,2942,-16,5
944,-15,5,2943,-16,5
945,-16,5,2944,-18,5
946,-15,5,2945,-16,5
947,-13,5,2946,-16,5
948,-14,5,2947,-15,5
949,-12,5,2948,-13,5
950,-11,5,2949,-10,5
951,-11,5,2950,-6,5
952,-11,5,2951,-3,5
953,-12,5,2952,-3,5
954,-13,5,2953,-8,5
955,-13,5,2954,-14,5
956,-11,5,2955,-15,5
957,-10,5,2956,-14,5
958,-10,5,2957,-15,5
959,-11,5,2958,-18,5
960,-13,5,2959,-21,5
961,-14,5,2960,-23,5
962,-13,5,2961,-22,5
963,-14,5,2962,-18,5
964,-13,5,2963,-15,5
965,-15,5,2964,-12,5
966,-17,5,2965,-11,5
967,-14,5,2966,-12,5
968,-11,5,2967,-16,5
969,-11,5,2968,-18,5
970,-10,5,2969,-19,5
971,-12,5,2970,-19,5
972,-16,5,2971,-15,5
973,-19,5,2972,-11,5
974,-19,5,2973,-10,5
975,-19,5,2974,-10,5
976,-19,5,2975,-12,5
977,-19,5,2976,-10,5
978,-17,5,2977,-8,5
979,-17,5,2978,-8,5
980,-18,5,2979,-13,5
981,-19,5,2980,-15,5
982,-21,5,2981,-17,5
983,-20,5,2982,-18,5
984,-19,5,2983,-18,5
985,-17,5,2984,-17,5
986,-18,5,2985,-17,5
987,-21,5,2986,-16,5
988,-22,5,2987,-14,5
989,-22,5,2988,-13,5
990,-21,5,2989,-13,5
991,-21,5,2990,-14,5
992,-22,5,2991,-10,5
993,-21,5,2992,-6,5
994,-20,5,2993,-5,5
995,-21,5,2994,-7,5
996,-23,5,2995,-11,5
997,-22,5,2996,-14,5
998,-22,5,2997,-16,5
999,-24,5,2998,-20,5
1000,-25,5,2999,-22,5
1001,-22,5,3000,-23,5
1002,-17,5,3001,-25,5
1003,-13,5,3002,-25,5
1004,-13,5,3003,-24,5
1005,-14,5,3004,-22,5
1006,-13,5,3005,-20,5
1007,-17,5,3006,-18,5
1008,-23,5,3007,-18,5
1009,-22,5,3008,-18,5
1010,-19,5,3009,-17,5
1011,-15,5,3010,-16,5
1012,-12,5,3011,-16,5
1013,-9,5,3012,-14,5
1014,-11,5,3013,-14,5
1015,-16,5,3014,-14,5
1016,-18,5,3015,-13,5
1017,-21,5,3016,-15,5
1018,-21,5,3017,-17,5
1019,-19,5,3018,-18,5
1020,-18,5,3019,-20,5
1021,-21,5,3020,-20,5
1022,-23,5,3021,-21,5
1023,-25,5,3022,-20,5
1024,-25,5,3023,-17,5
1025,-25,5,3024,-15,5
1026,-21,5,3025,-13,5
1027,-17,5,3026,-14,5
1028,-15,5,3027,-13,5
1029,-13,5,3028,-8,5
1030,-17,5,3029,-8,5
1031,-21,5,3030,-11,5
1032,-17,5,3031,-14,5
1033,-13,5,3032,-17,5
1034,-13,5,3033,-19,5
1035,-17,5,3034,-17,5
1036,-19,5,3035,-13,5
1037,-20,5,3036,-11,5
1038,-15,5,3037,-14,5
1039,-16,5,3038,-15,5
1040,-19,5,3039,-15,5
1041,-18,5,3040,-17,5
1042,-17,5,3041,-17,5
1043,-18,5,3042,-17,5
1044,-19,5,3043,-18,5
1045,-20,5,3044,-16,5
1046,-21,5,3045,-16,5
1047,-22,5,3046,-18,5
1048,-22,5,3047,-18,5
1049,-21,5,3048,-16,5
1050,-21,5,3049,-13,5
1051,-21,5,3050,-13,5
1052,-21,5,3051,-14,5
1053,-21,5,3052,-14,5
1054,-20,5,3053,-14,5
1055,-20,5,3054,-13,5
1056,-18,5,3055,-14,5
1057,-14,5,3056,-19,5
1058,-13,5,3057,-22,5
1059,-14,5,3058,-17,5
1060,-13,5,3059,-13,5
1061,-13,5,3060,-11,5
1062,-15,5,3061,-10,5
1063,-14,5,3062,-11,5
1064,-14,5,3063,-13,5
1065,-12,5,3064,-15,5
1066,-11,5,3065,-13,5
1067,-13,5,3066,-11,5
1068,-14,5,3067,-15,5
1069,-16,5,3068,-17,5
1070,-18,5,3069,-16,5
1071,-20,5,3070,-14,5
1072,-21,5,3071,-14,5
1073,-17,5,3072,-13,5
1074,-14,5,3073,-10,5
1075,-13,5,3074,-11,5
1076,-11,5,3075,-9,5
1077,-10,5,3076,-9,5
1078,-9,5,3077,-12,5
1079,-7,5,3078,-13,5
1080,-6,5,3079,-16,5
1081,-7,5,3080,-16,5
1082,-4,5,3081,-16,5
1083,-1,5,3082,-17,5
1084,1,5,3083,-18,5
1085,1,5,3084,-17,5
1086,-3,5,3085,-17,5
1087,-6,5,3086,-16,5
1088,-6,5,3087,-15,5
1089,-4,5,3088,-13,5
1090,-2,5,3089,-14,5
1091,0,5,3090,-15,5
1092,3,5,3091,-17,5
1093,7,5,3092,-16,5
1094,10,5,3093,-14,5
1095,14,5,3094,-14,5
1096,21,5,3095,-15,5
1097,24,5,3096,-15,5
1098,26,5,3097,-15,5
1099,29,5,3098,-16,5
1100,28,5,3099,-15,5
1101,26,5,3100,-12,5
1102,26,5,3101,-9,5
1103,26,5,3102,-11,5
1104,23,5,3103,-13,5
1105,19,5,3104,-14,5
1106,15,5,3105,-16,5
1107,13,5,3106,-19,5
1108,15,5,3107,-20,5
1109,14,5,3108,-18,5
1110,9,5,3109,-15,5
1111,4,5,3110,-12,5
1112,0,5,3111,-11,5
1113,-2,5,3112,-10,5
1114,-5,5,3113,-9,5
1115,-10,5,3114,-6,5
1116,-11,5,3115,-3,5
1117,-11,5,3116,-4,5
1118,-12,5,3117,-4,5
1119,-14,5,3118,-4,5
1120,-14,5,3119,-3,5
1121,-14,5,3120,-2,5
1122,-15,5,3121,-3,5
1123,-17,5,3122,-2,5
1124,-18,5,3123,0,5
1125,-18,5,3124,0,5
1126,-21,5,3125,-2,5
1127,-21,5,3126,-4,5
1128,-21,5,3127,-3,5
1129,-21,5,3128,1,5
1130,-20,5,3129,4,5
1131,-20,5,3130,5,5
1132,-21,5,3131,9,5
1133,-19,5,3132,14,5
1134,-17,5,3133,15,5
1135,-18,5,3134,15,5
1136,-20,5,3135,16,5
1137,-22,5,3136,17,5
1138,-24,5,3137,17,5
1139,-25,5,3138,15,5
1140,-24,5,3139,12,5
1141,-24,5,3140,10,5
1142,-23,5,3141,9,5
1143,-25,5,3142,11,5
1144,-25,5,3143,10,5
1145,-25,5,3144,7,5
1146,-25,5,3145,5,5
1147,-25,5,3146,3,5
1148,-25,5,3147,1,5
1149,-25,5,3148,0,5
1150,-24,5,3149,0,5
1151,-23,5,3150,5,5
1152,-24,5,3151,9,5
1153,-23,5,3152,7,5
1154,-22,5,3153,3,5
1155,-21,5,3154,0,5
1156,-20,5,3155,-3,5
1157,-19,5,3156,-8,5
1158,-17,5,3157,-10,5
1159,-11,5,3158,-9,5
1160,0,5,3159,-9,5
1161,12,5,3160,-9,5
1162,28,5,3161,-14,5
1163,45,5,3162,-18,5
1164,67,5,3163,-20,5
1165,90,5,3164,-19,5
1166,90,5,3165,-20,5
1167,90,5,3166,-18,5
1168,90,5,3167,-16,5
1169,90,5,3168,-17,5
1170,90,5,3169,-19,5
1171,90,5,3170,-21,5
1172,90,5,3171,-24,5
1173,90,5,3172,-25,5
1174,90,5,3173,-25,5
1175,58,5,3174,-25,5
1176,27,5,3175,-25,5
1177,5,5,3176,-25,5
1178,-8,5,3177,-25,5
1179,-14,5,3178,-25,5
1180,-19,5,3179,-25,5
1181,-24,5,3180,-23,5
1182,-25,5,3181,-20,5
1183,-23,5,3182,-20,5
1184,-24,5,3183,-21,5
1185,-24,5,3184,-20,5
1186,-25,5,3185,-20,5
1187,-25,5,3186,-22,5
1188,-25,5,3187,-25,5
1189,-25,5,3188,-25,5
1190,-24,5,3189,-23,5
1191,-22,5,3190,-23,5
1192,-21,5,3191,-23,5
1193,-19,5,3192,-22,5
1194,-19,5,3193,-22,5
1195,-18,5,3194,-25,5
1196,-16,5,3195,-20,5
1197,-16,5,3196,-8,5
1198,-18,5,3197,3,5
1199,-16,5,3198,14,5
1200,-15,5,3199,31,5
1201,-15,5,3200,50,5
1202,-17,5,3201,73,5
1203,-16,5,3202,90,5
1204,-14,5,3203,90,5
1205,-15,5,3204,90,5
1206,-16,5,3205,90,5
1207,-16,5,3206,90,5
1208,-17,5,3207,90,5
1209,-17,5,3208,90,5
1210,-16,5,3209,90,5
1211,-12,5,3210,90,5
1212,-11,5,3211,90,5
1213,-13,5,3212,85,5
1214,-13,5,3213,57,5
1215,-13,5,3214,33,5
1216,-13,5,3215,16,5
1217,-15,5,3216,4,5
1218,-16,5,3217,-4,5
1219,-17,5,3218,-11,5
1220,-17,5,3219,-15,5
1221,-18,5,3220,-17,5
1222,-20,5,3221,-19,5
1223,-20,5,3222,-18,5
1224,-19,5,3223,-19,5
1225,-18,5,3224,-22,5
1226,-16,5,3225,-21,5
1227,-12,5,3226,-17,5
1228,-13,5,3227,-17,5
1229,-12,5,3228,-15,5
1230,-9,5,3229,-13,5
1231,-10,5,3230,-15,5
1232,-11,5,3231,-18,5
1233,-15,5,3232,-17,5
1234,-18,5,3233,-14,5
1235,-19,5,3234,-15,5
1236,-16,5,3235,-14,5
1237,-12,5,3236,-15,5
1238,-11,5,3237,-16,5
1239,-15,5,3238,-15,5
1240,-19,5,3239,-14,5
1241,-19,5,3240,-14,5
1242,-21,5,3241,-15,5
1243,-20,5,3242,-16,5
1244,-16,5,3243,-17,5
1245,-15,5,3244,-16,5
1246,-16,5,3245,-15,5
1247,-16,5,3246,-15,5
1248,-16,5,3247,-15,5
1249,-17,5,3248,-14,5
1250,-16,5,3249,-13,5
1251,-16,5,3250,-12,5
1252,-16,5,3251,-12,5
1253,-14,5,3252,-13,5
1254,-12,5,3253,-13,5
1255,-9,5,3254,-11,5
1256,-5,5,3255,-10,5
1257,-6,5,3256,-12,5
1258,-10,5,3257,-14,5
1259,-11,5,3258,-17,5
1260,-9,5,3259,-18,5
1261,-7,5,3260,-18,5
1262,-6,5,3261,-14,5
1263,-5,5,3262,-8,5
1264,-5,5,3263,-7,5
1265,-7,5,3264,-9,5
1266,-8,5,3265,-7,5
1267,-8,5,3266,-7,5
1268,-10,5,3267,-10,5
1269,-11,5,3268,-15,5
1270,-8,5,3269,-15,5
1271,-7,5,3270,-13,5
1272,-8,5,3271,-16,5
1273,-7,5,3272,-17,5
1274,-7,5,3273,-15,5
1275,-7,5,3274,-15,5
1276,-6,5,3275,-17,5
1277,-6,5,3276,-15,5
1278,-7,5,3277,-13,5
1279,-5,5,3278,-11,5
1280,-2,5,3279,-7,5
1281,-1,5,3280,-6,5
1282,0,5,3281,-8,5
1283,0,5,3282,-10,5
1284,-1,5,3283,-12,5
1285,0,5,3284,-14,5
1286,1,5,3285,-15,5
1287,3,5,3286,-16,5
1288,5,5,3287,-16,5
1289,6,5,3288,-17,5
1290,9,5,3289,-18,5
1291,12,5,3290,-18,5
1292,13,5,3291,-13,5
1293,13,5,3292,-8,5
1294,14,5,3293,-6,5
1295,14,5,3294,-8,5
1296,13,5,3295,-9,5
1297,15,5,3296,-11,5
1298,14,5,3297,-13,5
1299,13,5,3298,-12,5
1300,13,5,3299,-9,5
1301,13,5,3300,-6,5
1302,11,5,3301,-6,5
1303,10,5,3302,-6,5
1304,13,5,3303,-9,5
1305,15,5,3304,-9,5
1306,17,5,3305,-7,5
1307,18,5,3306,-5,5
1308,16,5,3307,-9,5
1309,16,5,3308,-8,5
1310,14,5,3309,-6,5
1311,14,5,3310,-4,5
1312,16,5,3311,-2,5
1313,17,5,3312,-2,5
1314,17,5,3313,0,5
1315,17,5,3314,0,5
1316,20,5,3315,1,5
1317,23,5,3316,0,5
1318,23,5,3317,0,5
1319,21,5,3318,2,5
1320,21,5,3319,4,5
1321,22,5,3320,4,5
1322,23,5,3321,2,5
1323,23,5,3322,2,5
1324,23,5,3323,3,5
1325,21,5,3324,4,5
1326,21,5,3325,6,5
1327,20,5,3326,7,5
1328,20,5,3327,7,5
1329,19,5,3328,10,5
1330,18,5,3329,11,5
1331,18,5,3330,10,5
1332,19,5,3331,11,5
1333,18,5,3332,11,5
1334,15,5,3333,13,5
1335,10,5,3334,17,5
1336,8,5,3335,22,5
1337,6,5,3336,25,5
1338,5,5,3337,27,5
1339,2,5,3338,28,5
1340,1,5,3339,29,5
1341,2,5,3340,30,5
1342,-1,5,3341,28,5
1343,-4,5,3342,26,5
1344,-5,5,3343,27,5
1345,-6,5,3344,27,5
1346,-5,5,3345,28,5
1347,-8,5,3346,29,5
1348,-10,5,3347,30,5
1349,-11,5,3348,30,5
1350,-12,5,3349,31,5
1351,-13,5,3350,30,5
1352,-10,5,3351,29,5
1353,-9,5,3352,31,5
1354,-10,5,3353,33,5
1355,-12,5,3354,34,5
1356,-14,5,3355,35,5
1357,-15,5,3356,35,5
1358,-11,5,3357,37,5
1359,-9,5,3358,39,5
1360,-7,5,3359,38,5
1361,-8,5,3360,37,5
1362,-10,5,3361,32,5
1363,-12,5,3362,26,5
1364,-12,5,3363,21,5
1365,-15,5,3364,17,5
1366,-17,5,3365,18,5
1367,-19,5,3366,19,5
1368,-21,5,3367,19,5
1369,-24,5,3368,15,5
1370,-22,5,3369,10,5
1371,-20,5,3370,10,5
1372,-21,5,3371,11,5
1373,-20,5,3372,11,5
1374,-16,5,3373,12,5
1375,-17,5,3374,11,5
1376,-16,5,3375,9,5
1377,-13,5,3376,7,5
1378,-11,5,3377,-1,5
1379,-13,5,3378,-4,5
1380,-15,5,3379,-2,5
1381,-14,5,3380,-2,5
1382,-13,5,3381,-2,5
1383,-8,5,3382,-5,5
1384,-3,5,3383,-8,5
1385,-2,5,3384,-7,5
1386,-3,5,3385,-6,5
1387,-8,5,3386,-7,5
1388,-12,5,3387,-9,5
1389,-11,5,3388,-11,5
1390,-8,5,3389,-14,5
1391,-8,5,3390,-16,5
1392,-8,5,3391,-18,5
1393,-9,5,3392,-18,5
1394,-12,5,3393,-17,5
1395,-9,5,3394,-18,5
1396,-7,5,3395,-18,5
1397,-10,5,3396,-17,5
1398,-10,5,3397,-18,5
1399,-9,5,3398,-18,5
1400,-11,5,3399,-18,5
1401,-13,5,3400,-16,5
1402,-14,5,3401,-16,5
1403,-14,5,3402,-17,5
1404,-12,5,3403,-15,5
1405,-8,5,3404,-13,5
1406,-9,5,3405,-12,5
1407,-9,5,3406,-17,5
1408,-7,5,3407,-20,5
1409,-5,5,3408,-21,5
1410,-4,5,3409,-23,5
1411,-5,5,3410,-22,5
1412,-6,5,3411,-22,5
1413,-4,5,3412,-23,5
1414,-1,5,3413,-24,5
1415,0,5,3414,-24,5
1416,-4,5,3415,-19,5
1417,-8,5,3416,-17,5
1418,-5,5,3417,-17,5
1419,-6,5,3418,-18,5
1420,-7,5,3419,-20,5
1421,-6,5,3420,-20,5
1422,-6,5,3421,-19,5
1423,-5,5,3422,-18,5
1424,-2,5,3423,-18,5
1425,0,5,3424,-21,5
1426,0,5,3425,-18,5
1427,0,5,3426,-16,5
1428,2,5,3427,-15,5
1429,4,5,3428,-16,5
1430,1,5,3429,-14,5
1431,-3,5,3430,-12,5
1432,-3,5,3431,-12,5
1433,-2,5,3432,-15,5
1434,-3,5,3433,-17,5
1435,-5,5,3434,-17,5
1436,-5,5,3435,-17,5
1437,-4,5,3436,-18,5
1438,-4,5,3437,-19,5
1439,-5,5,3438,-19,5
1440,-5,5,3439,-18,5
1441,-4,5,3440,-16,5
1442,-6,5,3441,-13,5
1443,-5,5,3442,-12,5
1444,-4,5,3443,-13,5
1445,-7,5,3444,-14,5
1446,-10,5,3445,-11,5
1447,-11,5,3446,-9,5
1448,-9,5,3447,-12,5
1449,-5,5,3448,-11,5
1450,-3,5,3449,-10,5
1451,0,5,3450,-9,5
1452,1,5,3451,-12,5
1453,0,5,3452,-19,5
1454,-2,5,3453,-18,5
1455,-5,5,3454,-16,5
1456,-6,5,3455,-15,5
1457,-3,5,3456,-12,5
1458,-2,5,3457,-11,5
1459,-2,5,3458,-11,5
1460,-7,5,3459,-12,5
1461,-10,5,3460,-13,5
1462,-12,5,3461,-13,5
1463,-11,5,3462,-11,5
1464,-9,5,3463,-9,5
1465,-7,5,3464,-9,5
1466,-8,5,3465,-9,5
1467,-11,5,3466,-8,5
1468,-10,5,3467,-8,5
1469,-11,5,3468,-10,5
1470,-14,5,3469,-12,5
1471,-14,5,3470,-13,5
1472,-12,5,3471,-15,5
1473,-9,5,3472,-12,5
1474,-5,5,3473,-8,5
1475,-3,5,3474,-4,5
1476,-3,5,3475,-4,5
1477,-2,5,3476,-6,5
1478,-5,5,3477,-7,5
1479,-6,5,3478,-11,5
1480,-6,5,3479,-10,5
1481,-5,5,3480,-6,5
1482,-6,5,3481,-3,5
1483,-8,5,3482,-5,5
1484,-8,5,3483,-8,5
1485,-11,5,3484,-10,5
1486,-10,5,3485,-9,5
1487,-10,5,3486,-11,5
1488,-10,5,3487,-11,5
1489,-11,5,3488,-13,5
1490,-12,5,3489,-15,5
1491,-13,5,3490,-17,5
1492,-17,5,3491,-17,5
1493,-18,5,3492,-18,5
1494,-18,5,3493,-18,5
1495,-17,5,3494,-12,5
1496,-18,5,3495,-7,5
1497,-20,5,3496,-3,5
1498,-19,5,3497,-1,5
1499,-14,5,3498,-2,5
1500,-9,5,3499,-10,5
1501,-9,5,3500,-16,5
1502,-12,5,3501,-20,5
1503,-11,5,3502,-20,5
1504,-8,5,3503,-19,5
1505,-6,5,3504,-17,5
1506,-9,5,3505,-16,5
1507,-13,5,3506,-14,5
1508,-19,5,3507,-14,5
1509,-23,5,3508,-13,5
1510,-25,5,3509,-15,5
1511,-23,5,3510,-19,5
1512,-24,5,3511,-18,5
1513,-22,5,3512,-17,5
1514,-20,5,3513,-17,5
1515,-20,5,3514,-19,5
1516,-20,5,3515,-19,5
1517,-20,5,3516,-16,5
1518,-20,5,3517,-15,5
1519,-19,5,3518,-15,5
1520,-17,5,3519,-16,5
1521,-20,5,3520,-17,5
1522,-22,5,3521,-15,5
1523,-23,5,3522,-17,5
1524,-21,5,3523,-18,5
1525,-19,5,3524,-18,5
1526,-20,5,3525,-18,5
1527,-23,5,3526,-19,5
1528,-24,5,3527,-18,5
1529,-25,5,3528,-19,5
1530,-24,5,3529,-19,5
1531,-22,5,3530,-18,5
1532,-19,5,3531,-15,5
1533,-19,5,3532,-12,5
1534,-22,5,3533,-13,5
1535,-25,5,3534,-13,5
1536,-25,5,3535,-15,5
1537,-25,5,3536,-17,5
1538,-23,5,3537,-19,5
1539,-22,5,3538,-20,5
1540,-22,5,3539,-22,5
1541,-25,5,3540,-24,5
1542,-25,5,3541,-24,5
1543,-22,5,3542,-24,5
1544,-20,5,3543,-24,5
1545,-24,5,3544,-24,5
1546,-25,5,3545,-22,5
1547,-25,5,3546,-21,5
1548,-25,5,3547,-18,5
1549,-25,5,3548,-18,5
1550,-25,5,3549,-16,5
1551,-25,5,3550,-14,5
1552,-25,5,3551,-14,5
1553,-25,5,3552,-18,5
1554,-25,5,3553,-20,5
1555,-25,5,3554,-22,5
1556,-25,5,3555,-21,5
1557,-23,5,3556,-20,5
1558,-25,5,3557,-19,5
1559,-25,5,3558,-19,5
1560,-24,5,3559,-17,5
1561,-25,5,3560,-18,5
1562,-25,5,3561,-22,5
1563,-24,5,3562,-24,5
1564,-20,5,3563,-21,5
1565,-20,5,3564,-22,5
1566,-20,5,3565,-21,5
1567,-21,5,3566,-17,5
1568,-20,5,3567,-17,5
1569,-18,5,3568,-17,5
1570,-17,5,3569,-18,5
1571,-15,5,3570,-20,5
1572,-14,5,3571,-20,5
1573,-16,5,3572,-20,5
1574,-18,5,3573,-21,5
1575,-18,5,3574,-20,5
1576,-18,5,3575,-18,5
1577,-22,5,3576,-15,5
1578,-25,5,3577,-17,5
1579,-25,5,3578,-19,5
1580,-23,5,3579,-22,5
1581,-19,5,3580,-23,5
1582,-17,5,3581,-22,5
1583,-13,5,3582,-21,5
1584,-8,5,3583,-21,5
1585,-3,5,3584,-20,5
1586,-1,5,3585,-19,5
1587,-3,5,3586,-18,5
1588,-9,5,3587,-18,5
1589,-13,5,3588,-18,5
1590,-13,5,3589,-18,5
1591,-12,5,3590,-17,5
1592,-7,5,3591,-15,5
1593,-4,5,3592,-15,5
1594,-2,5,3593,-17,5
1595,1,5,3594,-16,5
1596,3,5,3595,-15,5
1597,6,5,3596,-18,5
1598,7,5,3597,-21,5
1599,4,5,3598,-20,5
1600,2,5,3599,-18,5
1601,0,5,3600,-18,5
1602,0,5,3601,-16,5
1603,-1,5,3602,-16,5
1604,0,5,3603,-18,5
1605,5,5,3604,-20,5
1606,11,5,3605,-18,5
1607,12,5,3606,-18,5
1608,12,5,3607,-18,5
1609,11,5,3608,-18,5
1610,10,5,3609,-17,5
1611,9,5,3610,-17,5
1612,7,5,3611,-19,5
1613,2,5,3612,-20,5
1614,0,5,3613,-22,5
1615,0,5,3614,-23,5
1616,-4,5,3615,-21,5
1617,-5,5,3616,-19,5
1618,-9,5,3617,-16,5
1619,-14,5,3618,-13,5
1620,-17,5,3619,-9,5
1621,-19,5,3620,-11,5
1622,-19,5,3621,-17,5
1623,-20,5,3622,-20,5
1624,-22,5,3623,-18,5
1625,-21,5,3624,-16,5
1626,-19,5,3625,-15,5
1627,-18,5,3626,-13,5
1628,-17,5,3627,-14,5
1629,-16,5,3628,-12,5
1630,-16,5,3629,-10,5
1631,-18,5,3630,-10,5
1632,-20,5,3631,-15,5
1633,-21,5,3632,-15,5
1634,-22,5,3633,-12,5
1635,-21,5,3634,-6,5
1636,-20,5,3635,0,5
1637,-20,5,3636,2,5
1638,-23,5,3637,1,5
1639,-24,5,3638,-2,5
1640,-24,5,3639,-5,5
1641,-24,5,3640,-6,5
1642,-23,5,3641,-6,5
1643,-24,5,3642,-6,5
1644,-25,5,3643,-4,5
1645,-25,5,3644,0,5
1646,-25,5,3645,4,5
1647,-24,5,3646,9,5
1648,-24,5,3647,10,5
1649,-22,5,3648,6,5
1650,-21,5,3649,3,5
1651,-19,5,3650,3,5
1652,-19,5,3651,3,5
1653,-18,5,3652,4,5
1654,-18,5,3653,5,5
1655,-20,5,3654,6,5
1656,-22,5,3655,5,5
1657,-22,5,3656,5,5
1658,-21,5,3657,10,5
1659,-20,5,3658,13,5
1660,-15,5,3659,15,5
1661,-3,5,3660,16,5
1662,8,5,3661,14,5
1663,24,5,3662,13,5
1664,42,5,3663,8,5
1665,67,5,3664,4,5
1666,90,5,3665,1,5
1667,90,5,3666,1,5
1668,90,5,3667,0,5
1669,90,5,3668,-1,5
1670,90,5,3669,-1,5
1671,90,5,3670,-4,5
1672,90,5,3671,-8,5
1673,90,5,3672,-11,5
1674,90,5,3673,-13,5
1675,90,5,3674,-15,5
1676,90,5,3675,-16,5
1677,58,5,3676,-16,5
1678,29,5,3677,-18,5
1679,9,5,3678,-18,5
1680,-2,5,3679,-19,5
1681,-12,5,3680,-24,5
1682,-19,5,3681,-24,5
1683,-24,5,3682,-24,5
1684,-25,5,3683,-24,5
1685,-25,5,3684,-23,5
1686,-25,5,3685,-21,5
1687,-23,5,3686,-22,5
1688,-22,5,3687,-25,5
1689,-22,5,3688,-25,5
1690,-18,5,3689,-25,5
1691,-15,5,3690,-24,5
1692,-15,5,3691,-22,5
1693,-16,5,3692,-21,5
1694,-13,5,3693,-20,5
1695,-13,5,3694,-21,5
1696,-15,5,3695,-22,5
1697,-16,5,3696,-23,5
1698,-17,5,3697,-23,5
1699,-18,5,3698,-23,5
1700,-17,5,3699,-25,5
1701,-17,5,3700,-25,5
1702,-16,5,3701,-25,5
1703,-14,5,3702,-24,5
1704,-10,5,3703,-24,5
1705,-9,5,3704,-24,5
1706,-11,5,3705,-24,5
1707,-11,5,3706,-23,5
1708,-13,5,3707,-23,5
1709,-14,5,3708,-24,5
1710,-15,5,3709,-24,5
1711,-17,5,3710,-24,5
1712,-17,5,3711,-20,5
1713,-17,5,3712,-6,5
1714,-15,5,3713,12,5
1715,-14,5,3714,30,5
1716,-15,5,3715,48,5
1717,-18,5,3716,64,5
1718,-20,5,3717,85,5
1719,-17,5,3718,90,5
1720,-15,5,3719,90,5
1721,-13,5,3720,90,5
1722,-12,5,3721,90,5
1723,-11,5,3722,90,5
1724,-11,5,3723,90,5
1725,-12,5,3724,90,5
1726,-9,5,3725,90,5
1727,-8,5,3726,90,5
1728,-12,5,3727,71,5
1729,-12,5,3728,40,5
1730,-12,5,3729,15,5
1731,-13,5,3730,0,5
1732,-11,5,3731,-9,5
1733,-9,5,3732,-19,5
1734,-8,5,3733,-25,5
1735,-11,5,3734,-25,5
1736,-14,5,3735,-25,5
1737,-16,5,3736,-25,5
1738,-16,5,3737,-25,5
1739,-16,5,3738,-25,5
1740,-20,5,3739,-25,5
1741,-20,5,3740,-23,5
1742,-16,5,3741,-19,5
1743,-12,5,3742,-17,5
1744,-15,5,3743,-19,5
1745,-20,5,3744,-20,5
1746,-19,5,3745,-17,5
1747,-16,5,3746,-15,5
1748,-15,5,3747,-13,5
1749,-18,5,3748,-11,5
1750,-18,5,3749,-8,5
1751,-16,5,3750,-10,5
1752,-14,5,3751,-13,5
1753,-13,5,3752,-17,5
1754,-14,5,3753,-19,5
1755,-16,5,3754,-19,5
1756,-16,5,3755,-16,5
1757,-17,5,3756,-14,5
1758,-16,5,3757,-14,5
1759,-14,5,3758,-16,5
1760,-14,5,3759,-18,5
1761,-14,5,3760,-17,5
1762,-15,5,3761,-16,5
1763,-14,5,3762,-16,5
1764,-14,5,3763,-14,5
1765,-12,5,3764,-12,5
1766,-10,5,3765,-16,5
1767,-8,5,3766,-18,5
1768,-5,5,3767,-18,5
1769,-3,5,3768,-18,5
1770,0,5,3769,-16,5
1771,-1,5,3770,-12,5
1772,-6,5,3771,-11,5
1773,-7,5,3772,-10,5
1774,-5,5,3773,-12,5
1775,-4,5,3774,-16,5
1776,-6,5,3775,-14,5
1777,-7,5,3776,-12,5
1778,-3,5,3777,-12,5
1779,-2,5,3778,-13,5
1780,-2,5,3779,-12,5
1781,-2,5,3780,-12,5
1782,-3,5,3781,-15,5
1783,-3,5,3782,-17,5
1784,-2,5,3783,-21,5
1785,0,5,3784,-22,5
1786,2,5,3785,-19,5
1787,0,5,3786,-17,5
1788,0,5,3787,-15,5
1789,1,5,3788,-15,5
1790,4,5,3789,-15,5
1791,8,5,3790,-16,5
1792,8,5,3791,-17,5
1793,9,5,3792,-17,5
1794,13,5,3793,-16,5
1795,14,5,3794,-15,5
1796,11,5,3795,-16,5
1797,10,5,3796,-17,5
1798,8,5,3797,-17,5
1799,9,5,3798,-17,5
1800,13,5,3799,-18,5
1801,18,5,3800,-16,5
1802,21,5,3801,-13,5
1803,22,5,3802,-12,5
1804,22,5,3803,-12,5
1805,23,5,3804,-10,5
1806,21,5,3805,-7,5
1807,21,5,3806,-8,5
1808,22,5,3807,-13,5
1809,26,5,3808,-18,5
1810,32,5,3809,-19,5
1811,37,5,3810,-18,5
1812,32,5,3811,-18,5
1813,27,5,3812,-18,5
1814,24,5,3813,-19,5
1815,23,5,3814,-21,5
1816,25,5,3815,-18,5
1817,26,5,3816,-15,5
1818,27,5,3817,-15,5
1819,31,5,3818,-15,5
1820,30,5,3819,-12,5
1821,26,5,3820,-9,5
1822,25,5,3821,-7,5
1823,25,5,3822,-5,5
1824,26,5,3823,-5,5
1825,25,5,3824,-5,5
1826,25,5,3825,-5,5
1827,24,5,3826,-2,5
1828,24,5,3827,-3,5
1829,22,5,3828,-7,5
1830,20,5,3829,-8,5
1831,20,5,3830,-10,5
1832,18,5,3831,-8,5
1833,13,5,3832,-5,5
1834,11,5,3833,-2,5
1835,13,5,3834,-4,5
1836,13,5,3835,-7,5
1837,12,5,3836,-7,5
1838,8,5,3837,-6,5
1839,4,5,3838,-4,5
1840,1,5,3839,0,5
1841,-3,5,3840,2,5
1842,-3,5,3841,5,5
1843,0,5,3842,6,5
1844,0,5,3843,6,5
1845,-4,5,3844,7,5
1846,-6,5,3845,6,5
1847,-6,5,3846,5,5
1848,-6,5,3847,4,5
1849,-7,5,3848,3,5
1850,-9,5,3849,2,5
1851,-13,5,3850,2,5
1852,-17,5,3851,3,5
1853,-15,5,3852,4,5
1854,-15,5,3853,6,5
1855,-15,5,3854,10,5
1856,-13,5,3855,14,5
1857,-11,5,3856,16,5
1858,-11,5,3857,15,5
1859,-13,5,3858,17,5
1860,-14,5,3859,17,5
1861,-12,5,3860,13,5
1862,-12,5,3861,12,5
1863,-12,5,3862,10,5
1864,-14,5,3863,10,5
1865,-17,5,3864,12,5
1866,-18,5,3865,15,5
1867,-17,5,3866,16,5
1868,-17,5,3867,16,5
1869,-18,5,3868,19,5
1870,-19,5,3869,20,5
1871,-20,5,3870,20,5
1872,-18,5,3871,20,5
1873,-14,5,3872,18,5
1874,-14,5,3873,17,5
1875,-16,5,3874,17,5
1876,-16,5,3875,16,5
1877,-15,5,3876,16,5
1878,-15,5,3877,17,5
1879,-18,5,3878,16,5
1880,-21,5,3879,16,5
1881,-21,5,3880,17,5
1882,-18,5,3881,17,5
1883,-17,5,3882,16,5
1884,-18,5,3883,14,5
1885,-19,5,3884,14,5
1886,-19,5,3885,11,5
1887,-17,5,3886,5,5
1888,-16,5,3887,2,5
1889,-14,5,3888,1,5
1890,-13,5,3889,-3,5
1891,-18,5,3890,-5,5
1892,-20,5,3891,-3,5
1893,-21,5,3892,0,5
1894,-19,5,3893,0,5
1895,-17,5,3894,-4,5
1896,-13,5,3895,-8,5
1897,-12,5,3896,-13,5
1898,-13,5,3897,-15,5
1899,-15,5,3898,-16,5
1900,-18,5,3899,-16,5
1901,-19,5,3900,-18,5
1902,-21,5,3901,-19,5
1903,-23,5,3902,-18,5
1904,-20,5,3903,-18,5
1905,-16,5,3904,-17,5
1906,-12,5,3905,-13,5
1907,-10,5,3906,-9,5
1908,-9,5,3907,-7,5
1909,-9,5,3908,-11,5
1910,-10,5,3909,-15,5
1911,-10,5,3910,-17,5
1912,-10,5,3911,-18,5
1913,-10,5,3912,-19,5
1914,-10,5,3913,-22,5
1915,-14,5,3914,-24,5
1916,-14,5,3915,-22,5
1917,-14,5,3916,-20,5
1918,-13,5,3917,-19,5
1919,-13,5,3918,-18,5
1920,-13,5,3919,-15,5
1921,-11,5,3920,-15,5
1922,-11,5,3921,-15,5
1923,-12,5,3922,-16,5
1924,-14,5,3923,-18,5
1925,-13,5,3924,-20,5
1926,-11,5,3925,-19,5
1927,-9,5,3926,-20,5
1928,-9,5,3927,-20,5
1929,-12,5,3928,-19,5
1930,-12,5,3929,-19,5
1931,-11,5,3930,-20,5
1932,-11,5,3931,-20,5
1933,-13,5,3932,-22,5
1934,-15,5,3933,-23,5
1935,-16,5,3934,-23,5
1936,-17,5,3935,-21,5
1937,-16,5,3936,-17,5
1938,-13,5,3937,-17,5
1939,-13,5,3938,-20,5
1940,-15,5,3939,-20,5
1941,-16,5,3940,-18,5
1942,-13,5,3941,-14,5
1943,-7,5,3942,-12,5
1944,-3,5,3943,-13,5
1945,-1,5,3944,-14,5
1946,-3,5,3945,-15,5
1947,-7,5,3946,-16,5
1948,-12,5,3947,-18,5
1949,-13,5,3948,-17,5
1950,-10,5,3949,-17,5
1951,-6,5,3950,-20,5
1952,-6,5,3951,-22,5
1953,-13,5,3952,-21,5
1954,-19,5,3953,-20,5
1955,-20,5,3954,-17,5
1956,-20,5,3955,-11,5
1957,-21,5,3956,-11,5
1958,-21,5,3957,-13,5
1959,-19,5,3958,-13,5
1960,-19,5,3959,-13,5
1961,-20,5,3960,-15,5
1962,-17,5,3961,-16,5
1963,-16,5,3962,-12,5
1964,-17,5,3963,-8,5
1965,-15,5,3964,-8,5
1966,-12,5,3965,-9,5
1967,-12,5,3966,-7,5
1968,-13,5,3967,-6,5
1969,-15,5,3968,-9,5
1970,-16,5,3969,-10,5
1971,-15,5,3970,-10,5
1972,-16,5,3971,-11,5
1973,-17,5,3972,-13,5
1974,-21,5,3973,-13,5
1975,-22,5,3974,-13,5
1976,-21,5,3975,-11,5
1977,-19,5,3976,-9,5
1978,-18,5,3977,-9,5
1979,-16,5,3978,-11,5
1980,-17,5,3979,-10,5
1981,-16,5,3980,-9,5
1982,-15,5,3981,-7,5
1983,-16,5,3982,-5,5
1984,-18,5,3983,-5,5
1985,-18,5,3984,-6,5
1986,-18,5,3985,-8,5
1987,-18,5,3986,-11,5
1988,-19,5,3987,-9,5
1989,-19,5,3988,-7,5
1990,-19,5,3989,-4,5
1991,-18,5,3990,-3,5
1992,-15,5,3991,-8,5
1993,-13,5,3992,-14,5
1994,-13,5,3993,-17,5
1995,-15,5,3994,-17,5
1996,-14,5,3995,-16,5
1997,-18,5,3996,-12,5
1998,-18,5,3997,-9,5
1999,-18,5,3998,-9,5
2000,-19,5,3999,-11,5
2001,-19,5,4000,-11,5
2002,-19,5,4001,-11,5
2003,-17,5,4002,-12,5
2004,-20,5,4003,-13,5
2005,-23,5,4004,-13,5
2006,-23,5,4005,-15,5
2007,-22,5,4006,-15,5
2008,-22,5,4007,-17,5
2009,-23,5,4008,-17,5
2010,-24,5,4009,-15,5
2011,-21,5,4010,-13,5
2012,-19,5,4011,-10,5
2013,-19,5,4012,-8,5
2014,-19,5,4013,-6,5
2015,-20,5,4014,-7,5
2016,-19,5,4015,-10,5
2017,-18,5,4016,-12,5
2018,-18,5,4017,-12,5
2019,-18,5,4018,-10,5
2020,-19,5,4019,-10,5
2021,-20,5,4020,-11,5
2022,-17,5,4021,-13,5
2023,-17,5,4022,-14,5
2024,-17,5,4023,-14,5
2025,-18,5,4024,-16,5
2026,-18,5,4025,-18,5
2027,-16,5,4026,-19,5
2028,-15,5,4027,-19,5
2029,-15,5,4028,-18,5
2030,-12,5,4029,-13,5
2031,-9,5,4030,-11,5
2032,-11,5,4031,-11,5
2033,-17,5,4032,-13,5
2034,-22,5,4033,-12,5
2035,-23,5,4034,-12,5
2036,-21,5,4035,-12,5
2037,-19,5,4036,-16,5
2038,-19,5,4037,-18,5
2039,-20,5,4038,-18,5
2040,-22,5,4039,-20,5
2041,-21,5,4040,-20,5
2042,-21,5,4041,-19,5
2043,-21,5,4042,-19,5
2044,-19,5,4043,-17,5
2045,-16,5,4044,-16,5
2046,-14,5,4045,-13,5
2047,-15,5,4046,-11,5
2048,-18,5,4047,-12,5
2049,-21,5,4048,-16,5
2050,-22,5,4049,-16,5
2051,-22,5,4050,-15,5
2052,-22,5,4051,-15,5
2053,-22,5,4052,-15,5
2054,-20,5,4053,-14,5
2055,-19,5,4054,-13,5
2056,-20,5,4055,-14,5
2057,-22,5,4056,-16,5
2058,-23,5,4057,-16,5
2059,-23,5,4058,-16,5
2060,-22,5,4059,-15,5
2061,-19,5,4060,-14,5
2062,-20,5,4061,-13,5
2063,-22,5,4062,-11,5
2064,-23,5,4063,-12,5
2065,-21,5,4064,-13,5
2066,-21,5,4065,-11,5
2067,-20,5,4066,-6,5
2068,-20,5,4067,-5,5
2069,-21,5,4068,-5,5
2070,-23,5,4069,-9,5
2071,-20,5,4070,-13,5
2072,-17,5,4071,-20,5
2073,-17,5,4072,-24,5
2074,-17,5,4073,-24,5
2075,-20,5,4074,-23,5
2076,-19,5,4075,-21,5
2077,-16,5,4076,-20,5
2078,-15,5,4077,-21,5
2079,-15,5,4078,-22,5
2080,-17,5,4079,-20,5
2081,-15,5,4080,-18,5
2082,-16,5,4081,-15,5
2083,-16,5,4082,-13,5
2084,-16,5,4083,-13,5
2085,-18,5,4084,-12,5
2086,-20,5,4085,-12,5
2087,-18,5,4086,-16,5
2088,-19,5,4087,-17,5
2089,-22,5,4088,-16,5
2090,-20,5,4089,-16,5
2091,-19,5,4090,-16,5
2092,-18,5,4091,-15,5
2093,-19,5,4092,-16,5
2094,-18,5,4093,-14,5
2095,-15,5,4094,-12,5
2096,-14,5,4095,-14,5
2097,-12,5,4096,-16,5
2098,-10,5,4097,-18,5
2099,-11,5,4098,-20,5
2100,-12,5,4099,-21,5
2101,-11,5,4100,-22,5
2102,-10,5,4101,-23,5
2103,-10,5,4102,-24,5
2104,-10,5,4103,-23,5
2105,-10,5,4104,-17,5
2106,-9,5,4105,-14,5
2107,-6,5,4106,-13,5
2108,-6,5,4107,-12,5
2109,-5,5,4108,-9,5
2110,-3,5,4109,-5,5
2111,0,5,4110,-6,5
2112,1,5,4111,-14,5
2113,1,5,4112,-19,5
2114,5,5,4113,-24,5
2115,7,5,4114,-25,5
2116,5,5,4115,-22,5
2117,4,5,4116,-19,5
2118,6,5,4117,-18,5
2119,8,5,4118,-19,5
2120,9,5,4119,-16,5
2121,9,5,4120,-14,5
2122,9,5,4121,-12,5
2123,7,5,4122,-12,5
2124,5,5,4123,-13,5
2125,1,5,4124,-14,5
2126,1,5,4125,-14,5
2127,3,5,4126,-13,5
2128,5,5,4127,-14,5
2129,7,5,4128,-16,5
2130,5,5,4129,-18,5
2131,2,5,4130,-17,5
2132,-5,5,4131,-17,5
2133,-8,5,4132,-16,5
2134,-10,5,4133,-12,5
2135,-11,5,4134,-8,5
2136,-12,5,4135,-6,5
2137,-14,5,4136,-6,5
2138,-18,5,4137,-6,5
2139,-19,5,4138,-9,5
2140,-21,5,4139,-7,5
2141,-20,5,4140,-4,5
2142,-19,5,4141,-4,5
2143,-18,5,4142,-4,5
2144,-20,5,4143,-2,5
2145,-24,5,4144,-1,5
2146,-24,5,4145,-2,5
2147,-22,5,4146,-3,5
2148,-23,5,4147,-5,5
2149,-23,5,4148,-4,5
2150,-24,5,4149,0,5
2151,-22,5,4150,3,5
2152,-21,5,4151,5,5
2153,-23,5,4152,7,5
2154,-24,5,4153,8,5
2155,-24,5,4154,10,5
2156,-25,5,4155,12,5
2157,-25,5,4156,13,5
2158,-25,5,4157,14,5
2159,-25,5,4158,17,5
2160,-25,5,4159,15,5
2161,-25,5,4160,8,5
2162,-23,5,4161,8,5
2163,-23,5,4162,10,5
2164,-25,5,4163,9,5
2165,-25,5,4164,9,5
2166,-25,5,4165,11,5
2167,-22,5,4166,13,5
2168,-19,5,4167,15,5
2169,-20,5,4168,13,5
2170,-22,5,4169,9,5
2171,-23,5,4170,5,5
2172,-23,5,4171,5,5
2173,-22,5,4172,3,5
2174,-20,5,4173,2,5
2175,-14,5,4174,0,5
2176,-6,5,4175,-1,5
2177,3,5,4176,-5,5
2178,12,5,4177,-11,5
2179,24,5,4178,-14,5
2180,41,5,4179,-17,5
2181,62,5,4180,-19,5
2182,90,5,4181,-19,5
2183,90,5,4182,-19,5
2184,90,5,4183,-21,5
2185,90,5,4184,-20,5
2186,90,5,4185,-19,5
2187,90,5,4186,-19,5
2188,90,5,4187,-18,5
2189,90,5,4188,-17,5
2190,90,5,4189,-17,5
2191,90,5,4190,-18,5
2192,90,5,4191,-20,5
2193,60,5,4192,-23,5
2194,33,5,4193,-22,5
2195,14,5,4194,-21,5
2196,2,5,4195,-22,5
2197,-6,5,4196,-24,5
2198,-12,5,4197,-24,5
2199,-15,5,4198,-22,5
2200,-20,5,4199,-23,5
2201,-22,5,4200,-21,5
2202,-21,5,4201,-17,5
2203,-20,5,4202,-15,5
2204,-18,5,4203,-18,5
2205,-18,5,4204,-24,5
2206,-18,5,4205,-25,5
2207,-15,5,4206,-25,5
2208,-13,5,4207,-23,5
2209,-11,5,4208,-19,5
2210,-11,5,4209,-17,5
2211,-10,5,4210,-16,5
2212,-10,5,4211,-18,5
2213,-11,5,4212,-19,5
2214,-12,5,4213,-21,5
2215,-13,5,4214,-19,5
2216,-15,5,4215,-14,5
2217,-14,5,4216,-4,5
2218,-14,5,4217,8,5
2219,-16,5,4218,23,5
2220,-15,5,4219,41,5
2221,-12,5,4220,59,5
2222,-11,5,4221,78,5
2223,-11,5,4222,90,5
2224,-11,5,4223,90,5
2225,-12,5,4224,90,5
2226,-13,5,4225,90,5
2227,-12,5,4226,90,5
2228,-12,5,4227,90,5
2229,-14,5,4228,90,5
2230,-16,5,4229,90,5
2231,-15,5,4230,90,5
2232,-13,5,4231,90,5
2233,-10,5,4232,70,5
2234,-10,5,4233,39,5
2235,-9,5,4234,16,5
2236,-8,5,4235,0,5
2237,-11,5,4236,-9,5
2238,-12,5,4237,-14,5
2239,-12,5,4238,-15,5
2240,-14,5,4239,-16,5
2241,-12,5,4240,-15,5
2242,-10,5,4241,-13,5
2243,-11,5,4242,-10,5
2244,-14,5,4243,-11,5
2245,-14,5,4244,-8,5
2246,-11,5,4245,-9,5
2247,-8,5,4246,-16,5
2248,-7,5,4247,-18,5
2249,-10,5,4248,-17,5
2250,-14,5,4249,-19,5
2251,-17,5,4250,-19,5
2252,-19,5,4251,-16,5
2253,-15,5,4252,-17,5
2254,-12,5,4253,-17,5
2255,-12,5,4254,-17,5
2256,-14,5,4255,-15,5
2257,-12,5,4256,-12,5
2258,-11,5,4257,-12,5
2259,-10,5,4258,-11,5
2260,-11,5,4259,-8,5
2261,-15,5,4260,-6,5
2262,-19,5,4261,-10,5
2263,-18,5,4262,-14,5
2264,-13,5,4263,-17,5
2265,-9,5,4264,-16,5
2266,-7,5,4265,-16,5
2267,-6,5,4266,-14,5
2268,-4,5,4267,-9,5
2269,-4,5,4268,-7,5
2270,-5,5,4269,-9,5
2271,-7,5,4270,-10,5
2272,-8,5,4271,-11,5
2273,-9,5,4272,-10,5
2274,-10,5,4273,-11,5
2275,-11,5,4274,-14,5
2276,-12,5,4275,-16,5
2277,-14,5,4276,-14,5
2278,-16,5,4277,-11,5
2279,-16,5,4278,-10,5
2280,-12,5,4279,-9,5
2281,-8,5,4280,-8,5
2282,-5,5,4281,-9,5
2283,-4,5,4282,-8,5
2284,-2,5,4283,-4,5
2285,-2,5,4284,-6,5
2286,-4,5,4285,-8,5
2287,-3,5,4286,-9,5
2288,-1,5,4287,-10,5
2289,-1,5,4288,-11,5
2290,-1,5,4289,-10,5
2291,-3,5,4290,-12,5
2292,-2,5,4291,-14,5
2293,-1,5,4292,-14,5
2294,-1,5,4293,-15,5
2295,2,5,4294,-15,5
2296,3,5,4295,-14,5
2297,3,5,4296,-12,5
2298,4,5,4297,-11,5
2299,5,5,4298,-12,5
2300,7,5,4299,-15,5
2301,7,5,4300,-18,5
2302,6,5,4301,-16,5
2303,5,5,4302,-15,5
2304,9,5,4303,-14,5
2305,11,5,4304,-14,5
2306,9,5,4305,-14,5
2307,8,5,4306,-14,5
2308,8,5,4307,-12,5
2309,8,5,4308,-13,5
2310,8,5,4309,-16,5
2311,10,5,4310,-15,5
2312,11,5,4311,-14,5
2313,13,5,4312,-13,5
2314,15,5,4313,-11,5
2315,18,5,4314,-9,5
2316,21,5,4315,-8,5
2317,21,5,4316,-10,5
2318,22,5,4317,-12,5
2319,20,5,4318,-14,5
2320,20,5,4319,-12,5
2321,22,5,4320,-9,5
2322,25,5,4321,-4,5
2323,26,5,4322,0,5
2324,26,5,4323,0,5
2325,30,5,4324,-4,5
2326,31,5,4325,-9,5
2327,30,5,4326,-10,5
2328,28,5,4327,-7,5
2329,25,5,4328,-4,5
2330,29,5,4329,-1,5
2331,33,5,4330,0,5
2332,34,5,4331,1,5
2333,34,5,4332,0,5
2334,35,5,4333,-1,5
2335,36,5,4334,-1,5
2336,37,5,4335,-3,5
2337,34,5,4336,-6,5
2338,35,5,4337,-7,5
2339,37,5,4338,-3,5
2340,36,5,4339,0,5
2341,34,5,4340,2,5
2342,30,5,4341,4,5
2343,26,5,4342,7,5
2344,28,5,4343,9,5
2345,26,5,4344,8,5
2346,21,5,4345,7,5
2347,17,5,4346,8,5
2348,16,5,4347,10,5
2349,16,5,4348,11,5
2350,18,5,4349,12,5
2351,16,5,4350,10,5
2352,11,5,4351,11,5
2353,8,5,4352,13,5
2354,7,5,4353,13,5
2355,6,5,4354,13,5
2356,5,5,4355,16,5
2357,5,5,4356,20,5
2358,6,5,4357,22,5
2359,6,5,4358,22,5
2360,5,5,4359,24,5
2361,5,5,4360,26,5
2362,4,5,4361,25,5
2363,2,5,4362,24,5
2364,-1,5,4363,26,5
2365,-7,5,4364,27,5
2366,-13,5,4365,26,5
2367,-15,5,4366,27,5
2368,-17,5,4367,29,5
2369,-17,5,4368,30,5
2370,-14,5,4369,30,5
2371,-11,5,4370,30,5
2372,-8,5,4371,28,5
2373,-8,5,4372,29,5
2374,-8,5,4373,32,5
2375,-9,5,4374,32,5
2376,-11,5,4375,33,5
2377,-13,5,4376,32,5
2378,-13,5,4377,30,5
2379,-13,5,4378,30,5
2380,-12,5,4379,29,5
2381,-11,5,4380,28,5
2382,-11,5,4381,27,5
2383,-11,5,4382,27,5
2384,-13,5,4383,26,5
2385,-17,5,4384,25,5
2386,-20,5,4385,23,5
2387,-17,5,4386,20,5
2388,-14,5,4387,19,5
2389,-15,5,4388,18,5
2390,-17,5,4389,16,5
2391,-17,5,4390,10,5
2392,-17,5,4391,5,5
2393,-18,5,4392,4,5
2394,-16,5,4393,1,5
2395,-13,5,4394,-3,5
2396,-13,5,4395,-7,5
2397,-12,5,4396,-9,5
2398,-13,5,4397,-6,5
2399,-17,5,4398,-6,5
2400,-19,5,4399,-7,5
2401,-22,5,4400,-8,5
2402,-20,5,4401,-6,5
2403,-19,5,4402,-6,5
2404,-20,5,4403,-7,5
2405,-18,5,4404,-9,5
2406,-18,5,4405,-16,5
2407,-18,5,4406,-17,5
2408,-18,5,4407,-13,5
2409,-17,5,4408,-15,5
2410,-15,5,4409,-16,5
2411,-15,5,4410,-16,5
2412,-16,5,4411,-16,5
2413,-19,5,4412,-19,5
2414,-20,5,4413,-23,5
2415,-18,5,4414,-23,5
2416,-15,5,4415,-20,5
2417,-13,5,4416,-19,5
2418,-10,5,4417,-20,5
2419,-7,5,4418,-18,5
2420,-5,5,4419,-17,5
2421,-8,5,4420,-19,5
2422,-10,5,4421,-21,5
2423,-13,5,4422,-23,5
2424,-14,5,4423,-21,5
2425,-16,5,4424,-18,5
2426,-18,5,4425,-18,5
2427,-17,5,4426,-24,5
2428,-14,5,4427,-25,5
2429,-11,5,4428,-25,5
2430,-12,5,4429,-24,5
2431,-13,5,4430,-23,5
2432,-16,5,4431,-24,5
2433,-18,5,4432,-25,5
2434,-18,5,4433,-25,5
2435,-17,5,4434,-25,5
2436,-15,5,4435,-25,5
2437,-11,5,4436,-25,5
2438,-10,5,4437,-25,5
2439,-10,5,4438,-25,5
2440,-8,5,4439,-25,5
2441,-9,5,4440,-25,5
2442,-14,5,4441,-25,5
2443,-15,5,4442,-25,5
2444,-12,5,4443,-25,5
2445,-11,5,4444,-25,5
2446,-12,5,4445,-25,5
2447,-13,5,4446,-25,5
2448,-15,5,4447,-25,5
2449,-14,5,4448,-24,5
2450,-12,5,4449,-25,5
2451,-11,5,4450,-25,5
2452,-11,5,4451,-25,5
2453,-12,5,4452,-25,5
2454,-14,5,4453,-25,5
2455,-14,5,4454,-25,5
2456,-13,5,4455,-25,5
2457,-10,5,4456,-25,5
2458,-7,5,4457,-25,5
2459,-7,5,4458,-25,5
2460,-8,5,4459,-25,5
2461,-13,5,4460,-25,5
2462,-18,5,4461,-25,5
2463,-22,5,4462,-23,5
2464,-22,5,4463,-21,5
2465,-24,5,4464,-20,5
2466,-23,5,4465,-20,5
2467,-18,5,4466,-20,5
2468,-14,5,4467,-20,5
2469,-10,5,4468,-23,5
2470,-9,5,4469,-25,5
2471,-6,5,4470,-25,5
2472,-7,5,4471,-25,5
2473,-9,5,4472,-24,5
2474,-11,5,4473,-23,5
2475,-13,5,4474,-19,5
2476,-15,5,4475,-17,5
2477,-18,5,4476,-18,5
2478,-22,5,4477,-18,5
2479,-24,5,4478,-19,5
2480,-22,5,4479,-21,5
2481,-20,5,4480,-25,5
2482,-17,5,4481,-25,5
2483,-17,5,4482,-25,5
2484,-16,5,4483,-21,5
2485,-16,5,4484,-18,5
2486,-14,5,4485,-16,5
2487,-13,5,4486,-17,5
2488,-14,5,4487,-19,5
2489,-15,5,4488,-18,5
2490,-14,5,4489,-20,5
2491,-15,5,4490,-22,5
2492,-14,5,4491,-24,5
2493,-14,5,4492,-25,5
2494,-15,5,4493,-25,5
2495,-15,5,4494,-25,5
2496,-14,5,4495,-25,5
2497,-13,5,4496,-24,5
2498,-16,5,4497,-24,5
2499,-18,5,4498,-25,5
2500,-17,5,4499,-25,5
2501,-18,5,4500,-25,5
2502,-22,5,4501,-25,5
2503,-21,5,4502,-23,5
2504,-22,5,4503,-21,5
2505,-23,5,4504,-22,5
2506,-22,5,4505,-23,5
2507,-24,5,4506,-24,5
2508,-23,5,4507,-22,5
2509,-20,5,4508,-20,5
2510,-17,5,4509,-20,5
2511,-15,5,4510,-22,5
2512,-15,5,4511,-22,5
2513,-16,5,4512,-22,5
2514,-16,5,4513,-22,5
2515,-15,5,4514,-22,5
2516,-14,5,4515,-22,5
2517,-14,5,4516,-25,5
2518,-17,5,4517,-25,5
2519,-19,5,4518,-25,5
2520,-19,5,4519,-25,5
2521,-16,5,4520,-25,5
2522,-15,5,4521,-23,5
2523,-13,5,4522,-25,5
2524,-11,5,4523,-25,5
2525,-11,5,4524,-25,5
2526,-18,5,4525,-25,5
2527,-21,5,4526,-25,5
2528,-20,5,4527,-25,5
2529,-20,5,4528,-25,5
2530,-20,5,4529,-21,5
2531,-19,5,4530,-23,5
2532,-18,5,4531,-24,5
2533,-17,5,4532,-22,5
2534,-16,5,4533,-22,5
2535,-13,5,4534,-25,5
2536,-15,5,4535,-25,5
2537,-15,5,4536,-25,5
2538,-13,5,4537,-25,5
2539,-11,5,4538,-25,5
2540,-15,5,4539,-25,5
2541,-16,5,4540,-25,5
2542,-16,5,4541,-25,5
2543,-15,5,4542,-25,5
2544,-15,5,4543,-25,5
2545,-18,5,4544,-25,5
2546,-19,5,4545,-25,5
2547,-18,5,4546,-25,5
2548,-15,5,4547,-25,5
2549,-13,5,4548,-23,5
2550,-11,5,4549,-22,5
2551,-8,5,4550,-22,5
2552,-6,5,4551,-23,5
2553,-9,5,4552,-24,5
2554,-13,5,4553,-25,5
2555,-14,5,4554,-25,5
2556,-11,5,4555,-25,5
2557,-11,5,4556,-25,5
2558,-13,5,4557,-25,5
2559,-12,5,4558,-25,5
2560,-11,5,4559,-25,5
2561,-10,5,4560,-25,5
2562,-11,5,4561,-25,5
2563,-14,5,4562,-25,5
2564,-14,5,4563,-25,5
2565,-14,5,4564,-25,5
2566,-14,5,4565,-25,5
2567,-14,5,4566,-25,5
2568,-12,5,4567,-25,5
2569,-10,5,4568,-25,5
2570,-7,5,4569,-25,5
2571,-4,5,4570,-25,5
2572,-5,5,4571,-25,5
2573,-5,5,4572,-25,5
2574,-5,5,4573,-25,5
2575,-9,5,4574,-25,5
2576,-9,5,4575,-25,5
2577,-8,5,4576,-25,5
2578,-8,5,4577,-25,5
2579,-10,5,4578,-25,5
2580,-10,5,4579,-25,5
2581,-9,5,4580,-25,5
2582,-7,5,4581,-25,5
2583,-6,5,4582,-25,5
2584,-9,5,4583,-25,5
2585,-11,5,4584,-25,5
2586,-10,5,4585,-25,5
2587,-11,5,4586,-25,5
2588,-12,5,4587,-25,5
2589,-11,5,4588,-25,5
2590,-10,5,4589,-25,5
2591,-9,5,4590,-25,5
2592,-8,5,4591,-25,5
2593,-10,5,4592,-25,5
2594,-9,5,4593,-25,5
2595,-9,5,4594,-25,5
2596,-11,5,4595,-23,5
2597,-14,5,4596,-25,5
2598,-15,5,4597,-25,5
2599,-16,5,4598,-25,5
2600,-16,5,4599,-25,5
2601,-17,5,4600,-25,5
2602,-16,5,4601,-25,5
2603,-15,5,4602,-25,5
2604,-15,5,4603,-25,5
2605,-17,5,4604,-25,5
2606,-17,5,4605,-25,5
2607,-12,5,4606,-25,5
2608,-8,5,4607,-25,5
2609,-7,5,4608,-25,5
2610,-9,5,4609,-25,5
2611,-11,5,4610,-25,5
2612,-13,5,4611,-25,5
2613,-13,5,4612,-25,5
2614,-15,5,4613,-25,5
2615,-15,5,4614,-25,5
2616,-13,5,4615,-25,5
2617,-10,5,4616,-25,5
2618,-7,5,4617,-25,5
2619,-5,5,4618,-25,5
2620,-5,5,4619,-25,5
2621,-4,5,4620,-25,5
2622,-4,5,4621,-25,5
2623,-5,5,4622,-22,5
2624,-5,5,4623,-20,5
2625,-4,5,4624,-21,5
2626,-2,5,4625,-22,5
2627,0,5,4626,-23,5
2628,1,5,4627,-25,5
2629,-3,5,4628,-25,5
2630,-6,5,4629,-25,5
2631,-5,5,4630,-25,5
2632,-2,5,4631,-25,5
2633,-3,5,4632,-25,5
2634,-5,5,4633,-25,5
2635,-7,5,4634,-25,5
2636,-9,5,4635,-21,5
2637,-10,5,4636,-20,5
2638,-11,5,4637,-22,5
2639,-13,5,4638,-25,5
2640,-16,5,4639,-25,5
2641,-18,5,4640,-25,5
2642,-19,5,4641,-25,5
2643,-20,5,4642,-25,5
2644,-19,5,4643,-25,5
2645,-21,5,4644,-25,5
2646,-19,5,4645,-25,5
2647,-20,5,4646,-25,5
2648,-23,5,4647,-25,5
2649,-25,5,4648,-25,5
2650,-25,5,4649,-25,5
2651,-25,5,4650,-20,5
2652,-25,5,4651,-22,5
2653,-25,5,4652,-25,5
2654,-25,5,4653,-25,5
2655,-25,5,4654,-23,5
2656,-25,5,4655,-20,5
2657,-25,5,4656,-18,5
2658,-25,5,4657,-16,5
2659,-25,5,4658,-18,5
2660,-25,5,4659,-20,5
2661,-25,5,4660,-18,5
2662,-25,5,4661,-16,5
2663,-25,5,4662,-15,5
2664,-25,5,4663,-15,5
2665,-25,5,4664,-13,5
2666,-25,5,4665,-10,5
2667,-25,5,4666,-9,5
2668,-25,5,4667,-8,5
2669,-25,5,4668,-6,5
2670,-25,5,4669,-4,5
2671,-25,5,4670,-1,5
2672,-25,5,4671,-1,5
2673,-25,5,4672,0,5
2674,-25,5,4673,0,5
2675,-25,5,4674,0,5
2676,-25,5,4675,-1,5
2677,-25,5,4676,-3,5
2678,-25,5,4677,-5,5
2679,-25,5,4678,-5,5
2680,-25,5,4679,-5,5
2681,-25,5,4680,-5,5
2682,-25,5,4681,-2,5
2683,-25,5,4682,-1,5
2684,-25,5,4683,-4,5
2685,-25,5,4684,-8,5
2686,-25,5,4685,-10,5
2687,-14,5,4686,-9,5
2688,5,5,4687,-12,5
2689,26,5,4688,-14,5
2690,45,5,4689,-14,5
2691,67,5,4690,-14,5
2692,90,5,4691,-14,5
2693,90,5,4692,-16,5
2694,90,5,4693,-17,5
2695,90,5,4694,-19,5
2696,90,5,4695,-21,5
2697,90,5,4696,-23,5
2698,90,5,4697,-23,5
2699,90,5,4698,-25,5
2700,73,5,4699,-25,5
2701,41,5,4700,-25,5
2702,12,5,4701,-25,5
2703,-9,5,4702,-25,5
2704,-23,5,4703,-25,5
2705,-25,5,4704,-25,5
2706,-25,5,4705,-25,5
2707,-25,5,4706,-25,5
2708,-25,5,4707,-25,5
2709,-25,5,4708,-25,5
2710,-25,5,4709,-25,5
2711,-25,5,4710,-25,5
2712,-25,5,4711,-25,5
2713,-25,5,4712,-25,5
2714,-25,5,4713,-25,5
2715,-25,5,4714,-25,5
2716,-25,5,4715,-25,5
2717,-25,5,4716,-25,5
2718,-25,5,4717,-25,5
2719,-25,5,4718,-25,5
2720,-25,5,4719,-25,5
2721,-25,5,4720,-25,5
2722,-25,5,4721,-25,5
2723,-25,5,4722,-25,5
2724,-25,5,4723,-25,5
2725,-25,5,4724,-25,5
2726,-25,5,4725,-25,5
2727,-25,5,4726,-25,5
2728,-25,5,4727,-25,5
2729,-25,5,4728,-25,5
2730,-25,5,4729,-25,5
2731,-25,5,4730,-25,5
2732,-25,5,4731,-25,5
2733,-25,5,4732,-25,5
2734,-25,5,4733,-19,5
2735,-25,5,4734,-11,5
2736,-25,5,4735,-3,5
2737,-25,5,4736,8,5
2738,-25,5,4737,25,5
2739,-25,5,4738,45,5
2740,-25,5,4739,71,5
2741,-25,5,4740,90,5
2742,-25,5,4741,90,5
2743,-25,5,4742,90,5
2744,-25,5,4743,90,5
2745,-25,5,4744,90,5
2746,-25,5,4745,90,5
2747,-25,5,4746,90,5
2748,-25,5,4747,90,5
2749,-25,5,4748,90,5
2750,-25,5,4749,88,5
2751,-25,5,4750,58,5
2752,-25,5,4751,32,5
2753,-25,5,4752,14,5
2754,-25,5,4753,0,5
2755,-25,5,4754,-10,5
2756,-25,5,4755,-17,5
2757,-25,5,4756,-22,5
2758,-25,5,4757,-23,5
2759,-25,5,4758,-21,5
2760,-25,5,4759,-21,5
2761,-25,5,4760,-23,5
2762,-25,5,4761,-24,5
2763,-25,5,4762,-25,5
2764,-25,5,4763,-25,5
2765,-25,5,4764,-25,5
2766,-25,5,4765,-25,5
2767,-25,5,4766,-25,5
2768,-25,5,4767,-25,5
2769,-25,5,4768,-25,5
2770,-25,5,4769,-23,5
2771,-25,5,4770,-22,5
2772,-25,5,4771,-20,5
2773,-25,5,4772,-18,5
2774,-25,5,4773,-18,5
2775,-23,5,4774,-20,5
2776,-23,5,4775,-21,5
2777,-25,5,4776,-21,5
2778,-25,5,4777,-24,5
2779,-25,5,4778,-25,5
2780,-25,5,4779,-25,5
2781,-25,5,4780,-25,5
2782,-25,5,4781,-25,5
2783,-25,5,4782,-22,5
2784,-25,5,4783,-21,5
2785,-25,5,4784,-21,5
2786,-25,5,4785,-19,5
2787,-25,5,4786,-19,5
2788,-23,5,4787,-18,5
2789,-22,5,4788,-16,5
2790,-23,5,4789,-18,5
2791,-24,5,4790,-20,5
2792,-24,5,4791,-18,5
2793,-24,5,4792,-15,5
2794,-24,5,4793,-14,5
2795,-22,5,4794,-16,5
2796,-21,5,4795,-17,5
2797,-19,5,4796,-18,5
2798,-18,5,4797,-21,5
2799,-16,5,4798,-23,5
2800,-14,5,4799,-23,5
2801,-12,5,4800,-24,5
2802,-11,5,4801,-24,5
2803,-12,5,4802,-24,5
2804,-12,5,4803,-24,5
2805,-11,5,4804,-22,5
2806,-12,5,4805,-18,5
2807,-12,5,4806,-16,5
2808,-10,5,4807,-18,5
2809,-6,5,4808,-17,5
2810,-5,5,4809,-16,5
2811,-4,5,4810,-17,5
2812,-4,5,4811,-15,5
2813,-4,5,4812,-12,5
2814,-5,5,4813,-10,5
2815,-6,5,4814,-12,5
2816,-4,5,4815,-15,5
2817,-3,5,4816,-20,5
2818,-5,5,4817,-23,5
2819,-5,5,4818,-24,5
2820,-3,5,4819,-23,5
2821,-2,5,4820,-24,5
2822,0,5,4821,-24,5
2823,2,5,4822,-24,5
2824,5,5,4823,-25,5
2825,5,5,4824,-25,5
2826,4,5,4825,-25,5
2827,4,5,4826,-20,5
2828,4,5,4827,-18,5
2829,4,5,4828,-14,5
2830,7,5,4829,-13,5
2831,10,5,4830,-13,5
2832,7,5,4831,-15,5
2833,7,5,4832,-15,5
2834,9,5,4833,-15,5
2835,10,5,4834,-16,5
2836,11,5,4835,-14,5
2837,12,5,4836,-14,5
2838,14,5,4837,-15,5
2839,15,5,4838,-14,5
2840,16,5,4839,-13,5
2841,17,5,4840,-13,5
2842,19,5,4841,-12,5
2843,21,5,4842,-11,5
2844,21,5,4843,-13,5
2845,19,5,4844,-14,5
2846,19,5,4845,-15,5
2847,19,5,4846,-15,5
2848,21,5,4847,-13,5
2849,18,5,4848,-12,5
2850,13,5,4849,-10,5
2851,9,5,4850,-7,5
2852,6,5,4851,-6,5
2853,5,5,4852,-5,5
2854,4,5,4853,-4,5
2855,4,5,4854,-2,5
2856,6,5,4855,2,5
2857,6,5,4856,5,5
2858,4,5,4857,4,5
2859,2,5,4858,4,5
2860,0,5,4859,5,5
2861,-2,5,4860,3,5
2862,-4,5,4861,3,5
2863,-5,5,4862,3,5
2864,-6,5,4863,4,5
2865,-5,5,4864,4,5
2866,-2,5,4865,6,5
2867,-3,5,4866,7,5
2868,-8,5,4867,7,5
2869,-14,5,4868,6,5
2870,-14,5,4869,4,5
2871,-13,5,4870,3,5
2872,-17,5,4871,4,5
2873,-19,5,4872,6,5
2874,-18,5,4873,9,5
2875,-21,5,4874,12,5
2876,-23,5,4875,14,5
2877,-23,5,4876,16,5
2878,-22,5,4877,16,5
2879,-21,5,4878,14,5
2880,-21,5,4879,14,5
2881,-21,5,4880,15,5
2882,-19,5,4881,19,5
2883,-18,5,4882,21,5
2884,-20,5,4883,19,5
2885,-22,5,4884,19,5
2886,-25,5,4885,20,5
2887,-25,5,4886,21,5
2888,-24,5,4887,23,5
2889,-23,5,4888,24,5
2890,-21,5,4889,24,5
2891,-22,5,4890,26,5
2892,-25,5,4891,23,5
2893,-25,5,4892,21,5
2894,-25,5,4893,20,5
2895,-25,5,4894,24,5
2896,-25,5,4895,28,5
2897,-25,5,4896,28,5
2898,-25,5,4897,25,5
2899,-25,5,4898,24,5
2900,-24,5,4899,23,5
2901,-25,5,4900,22,5
2902,-25,5,4901,22,5
2903,-25,5,4902,21,5
2904,-25,5,4903,20,5
2905,-25,5,4904,20,5
2906,-25,5,4905,18,5
2907,-25,5,4906,14,5
2908,-25,5,4907,12,5
2909,-25,5,4908,15,5
2910,-25,5,4909,17,5
2911,-24,5,4910,14,5
2912,-23,5,4911,9,5
2913,-21,5,4912,8,5
2914,-19,5,4913,6,5
2915,-20,5,4914,4,5
2916,-24,5,4915,0,5
2917,-25,5,4916,-3,5
2918,-25,5,4917,-8,5
2919,-25,5,4918,-14,5
2920,-25,5,4919,-16,5
2921,-25,5,4920,-17,5
2922,-21,5,4921,-19,5
2923,-20,5,4922,-20,5
2924,-20,5,4923,-21,5
2925,-18,5,4924,-19,5
2926,-15,5,4925,-15,5
2927,-16,5,4926,-12,5
2928,-18,5,4927,-10,5
2929,-21,5,4928,-12,5
2930,-22,5,4929,-17,5
2931,-24,5,4930,-17,5
2932,-22,5,4931,-16,5
2933,-20,5,4932,-17,5
2934,-20,5,4933,-19,5
2935,-20,5,4934,-19,5
2936,-18,5,4935,-17,5
2937,-15,5,4936,-16,5
2938,-13,5,4937,-15,5
2939,-12,5,4938,-15,5
2940,-12,5,4939,-16,5
2941,-14,5,4940,-18,5
2942,-16,5,4941,-20,5
2943,-16,5,4942,-20,5
2944,-16,5,4943,-19,5
2945,-18,5,4944,-18,5
2946,-16,5,4945,-19,5
2947,-16,5,4946,-18,5
2948,-15,5,4947,-18,5
2949,-13,5,4948,-18,5
2950,-10,5,4949,-18,5
2951,-6,5,4950,-17,5
2952,-3,5,4951,-16,5
2953,-3,5,4952,-19,5
2954,-8,5,4953,-19,5
2955,-14,5,4954,-18,5
2956,-15,5,4955,-18,5
2957,-14,5,4956,-16,5
2958,-15,5,4957,-15,5
2959,-18,5,4958,-14,5
2960,-21,5,4959,-14,5
2961,-23,5,4960,-17,5
2962,-22,5,4961,-19,5
2963,-18,5,4962,-20,5
2964,-15,5,4963,-17,5
2965,-12,5,4964,-15,5
2966,-11,5,4965,-13,5
2967,-12,5,4966,-11,5
2968,-16,5,4967,-8,5
2969,-18,5,4968,-8,5
2970,-19,5,4969,-12,5
2971,-19,5,4970,-17,5
2972,-15,5,4971,-20,5
2973,-11,5,4972,-22,5
2974,-10,5,4973,-20,5
2975,-10,5,4974,-19,5
2976,-12,5,4975,-17,5
2977,-10,5,4976,-15,5
2978,-8,5,4977,-14,5
2979,-8,5,4978,-15,5
2980,-13,5,4979,-18,5
2981,-15,5,4980,-18,5
2982,-17,5,4981,-14,5
2983,-18,5,4982,-12,5
2984,-18,5,4983,-12,5
2985,-17,5,4984,-10,5
2986,-17,5,4985,-8,5
2987,-16,5,4986,-8,5
2988,-14,5,4987,-11,5
2989,-13,5,4988,-16,5
2990,-13,5,4989,-18,5
2991,-14,5,4990,-17,5
2992,-10,5,4991,-15,5
2993,-6,5,4992,-13,5
2994,-5,5,4993,-13,5
2995,-7,5,4994,-13,5
2996,-11,5,4995,-13,5
2997,-14,5,4996,-12,5
2998,-16,5,4997,-9,5
2999,-20,5,4998,-9,5
3000,-22,5,4999,-8,5
