TS,Reading
1,-0.5
2,-0.1
3,-0.1
4,-0.2
5,-0.3
6,-0.3
7,-0.3
8,-0.3
9,-0.4
10,-0.4
11,-0.4
12,-0.4
13,-0.4
14,-0.3
15,-0.1
16,-0.2
17,-0.4
18,-0.4
19,-0.6
20,-0.5
21,-0.3
22,-0.2
23,-0.4
24,-0.5
25,-0.4
26,-0.4
27,-0.3
28,-0.2
29,-0.2
30,-0.3
31,-0.6
32,-0.5
33,-0.5
34,-0.5
35,-0.3
36,-0.4
37,-0.1
38,-0.1
39,-0.4
40,-0.4
41,-0.5
42,-0.6
43,-0.6
44,-0.7
45,-0.5
46,-0.3
47,0
48,0.2
49,0.2
50,0.2
51,0.3
52,0.3
53,0.2
54,0
55,0
56,0.3
57,0.1
58,0.2
59,0.5
60,0.6
61,0.6
62,0.6
63,0.1
64,0
65,0
66,0
67,0
68,-0.2
69,-0.5
70,-0.7
71,-0.9
72,-0.9
73,-0.8
74,-0.8
75,-0.8
76,-1
77,-0.8
78,-0.8
79,-1
80,-1.1
81,-1
82,-1.1
83,-0.9
84,-0.7
85,-0.7
86,-0.8
87,-0.8
88,-0.7
89,-0.6
90,-0.6
91,-0.5
92,-0.4
93,-0.3
94,-0.6
95,-0.7
96,-0.4
97,-0.4
98,-0.5
99,-0.7
100,-0.7
101,-0.9
102,-0.9
103,-0.8
104,-0.8
105,-0.8
106,-0.8
107,-0.7
108,-0.5
109,-0.5
110,-0.5
111,-0.5
112,-0.5
113,-0.6
114,-0.7
115,-0.6
116,-0.4
117,-0.4
118,-0.4
119,-0.1
120,0.4
121,1.1
122,1.8
123,2.1
124,2.2
125,2.2
126,1.8
127,1.8
128,1.4
129,0.1
130,-1.5
131,-3.5
132,-5.5
133,-7.4
134,-9.3
135,-10.9
136,-12.9
137,-15
138,-16.8
139,-17.9
140,-18.3
141,-18.4
142,-18.4
143,-18.4
144,-18.2
145,-17.7
146,-17
147,-16
148,-14.9
149,-13.4
150,-11.7
151,-9.5
152,-7.7
153,-6.4
154,-5.4
155,-4.6
156,-3.8
157,-3.1
158,-2.5
159,-1.8
160,-1.4
161,-0.9
162,-0.7
163,-0.6
164,-0.6
165,-0.4
166,-0.4
167,-0.4
168,-0.2
169,0
170,0.1
171,0
172,0
173,0.1
174,0.1
175,0.2
176,0.4
177,0.3
178,0.1
179,0.1
180,0.2
181,0.3
182,0.3
183,0.5
184,0.4
185,0.4
186,0.3
187,0.1
188,0.2
189,0.5
190,0.6
191,0.5
192,0.7
193,0.7
194,0.6
195,0.8
196,0.6
197,0.6
198,0.7
199,0.8
200,0.8
201,0.7
202,0.6
203,0.7
204,0.8
205,0.9
206,0.9
207,0.9
208,1.2
209,1.3
210,1.1
211,1.2
212,1.3
213,1.2
214,0.9
215,0.8
216,1.1
217,1.2
218,1.1
219,1.2
220,1.3
221,1.3
222,1.2
223,1.2
224,1.1
225,1.2
226,1.1
227,1.1
228,1.3
229,1.5
230,1.6
231,1.5
232,1.5
233,1.6
234,1.4
235,1.5
236,1.6
237,1.8
238,1.8
239,1.7
240,1.7
241,1.7
242,1.7
243,1.6
244,1.6
245,1.8
246,1.8
247,1.8
248,2.1
249,2.4
250,2.5
251,2.5
252,2.3
253,2.1
254,2.1
255,2.2
256,2.2
257,2.1
258,1.9
259,1.9
260,1.8
261,1.8
262,2
263,2.1
264,1.9
265,1.7
266,1.7
267,1.7
268,1.7
269,1.7
270,1.6
271,1.4
272,1.5
273,1.4
274,1.3
275,1.3
276,1.2
277,1.1
278,1.1
279,1.2
280,1.2
281,1.3
282,1.2
283,1.2
284,1
285,1
286,0.9
287,0.8
288,0.6
289,0.8
290,0.9
291,0.9
292,1
293,0.9
294,0.6
295,0.6
296,0.8
297,0.8
298,0.6
299,0.5
300,0.6
301,0.8
302,0.8
303,0.8
304,0.8
305,0.6
306,0.4
307,0.3
308,0.3
309,0.4
310,0.5
311,0.7
312,0.7
313,0.4
314,0.2
315,0.1
316,0.2
317,0.3
318,0.2
319,0
320,-0.1
321,0
322,0.1
323,0
324,0.1
325,0.3
326,0.4
327,0.5
328,0.3
329,0.1
330,-0.1
331,-0.1
332,-0.2
333,-0.2
334,-0.1
335,0
336,0
337,0.1
338,0
339,0.1
340,-0.1
341,-0.2
342,-0.1
343,-0.3
344,-0.2
345,-0.2
346,-0.2
347,-0.1
348,0
349,-0.1
350,-0.1
351,-0.1
352,-0.2
353,0
354,0
355,0
356,0
357,0.2
358,0
359,0
360,0
361,0
362,0
363,-0.1
364,-0.3
365,-0.2
366,-0.1
367,-0.2
368,-0.1
369,-0.2
370,-0.2
371,-0.1
372,-0.2
373,-0.2
374,-0.3
375,-0.3
376,-0.2
377,-0.1
378,0.1
379,0
380,0
381,0.1
382,0.1
383,0.2
384,0.2
385,0
386,-0.1
387,0
388,0.1
389,0
390,0
391,-0.1
392,0
393,0
394,-0.1
395,-0.1
396,-0.3
397,-0.3
398,-0.2
399,-0.1
400,0
401,-0.1
402,-0.3
403,-0.3
404,-0.3
405,-0.3
406,-0.1
407,-0.2
408,-0.3
409,-0.3
410,-0.3
411,-0.3
412,-0.2
413,-0.2
414,-0.3
415,-0.5
416,-0.4
417,-0.4
418,-0.4
419,-0.2
420,0
421,0
422,-0.1
423,-0.1
424,-0.2
425,-0.4
426,-0.2
427,-0.4
428,-0.4
429,-0.3
430,-0.2
431,-0.4
432,-0.4
433,-0.6
434,-0.8
435,-0.7
436,-0.6
437,-0.5
438,-0.5
439,-0.4
440,-0.3
441,-0.4
442,-0.6
443,-0.6
444,-0.6
445,-0.6
446,-0.4
447,-0.3
448,-0.3
449,-0.5
450,-0.7
451,-0.6
452,-0.4
453,-0.4
454,-0.5
455,-0.6
456,-0.6
457,-0.5
458,-0.7
459,-1
460,-1
461,-0.9
462,-0.7
463,-0.5
464,-0.5
465,-0.5
466,-0.3
467,-0.3
468,-0.5
469,-0.6
470,-0.7
471,-0.7
472,-0.7
473,-0.7
474,-0.9
475,-0.9
476,-0.8
477,-0.7
478,-0.7
479,-0.9
480,-1
481,-0.9
482,-0.8
483,-0.9
484,-0.7
485,-0.7
486,-0.7
487,-0.8
488,-0.7
489,-0.6
490,-0.7
491,-0.6
492,-0.6
493,-0.6
494,-0.7
495,-0.8
496,-0.8
497,-0.7
498,-0.7
499,-0.7
500,-0.7
501,-0.8
502,-0.8
503,-0.8
504,-0.8
505,-0.8
506,-0.8
507,-0.9
508,-0.6
509,-0.7
510,-0.8
511,-0.9
512,-1
513,-0.8
514,-0.8
515,-0.9
516,-1.1
517,-1
518,-1.1
519,-0.9
520,-0.9
521,-1.1
522,-1.1
523,-1.2
524,-1.2
525,-1
526,-1
527,-0.9
528,-0.9
529,-0.9
530,-0.7
531,-0.7
532,-0.6
533,-0.4
534,-0.5
535,-0.2
536,-0.2
537,-0.1
538,0
539,0
540,0.2
541,0
542,-0.1
543,-0.3
544,-0.2
545,-0.2
546,-0.1
547,-0.1
548,-0.2
549,-0.3
550,-0.4
551,-0.7
552,-1
553,-1.3
554,-1.5
555,-1.2
556,-1.2
557,-1.2
558,-1.3
559,-1.4
560,-1.3
561,-1.3
562,-1.5
563,-1.5
564,-1.5
565,-1.4
566,-1.2
567,-1.1
568,-1
569,-1
570,-1.3
571,-1.5
572,-1.5
573,-1.4
574,-1.3
575,-1.2
576,-1
577,-0.8
578,-0.8
579,-0.9
580,-1.1
581,-1.3
582,-1.1
583,-1.1
584,-1.2
585,-1.3
586,-1.3
587,-1.2
588,-1.1
589,-0.9
590,-0.8
591,-1.1
592,-1.2
593,-1.4
594,-1.3
595,-1
596,-1.1
597,-1.3
598,-1.4
599,-1.2
600,-1.1
601,-0.8
602,-0.6
603,-0.4
604,0.1
605,0.9
606,1.4
607,1.8
608,1.9
609,1.8
610,1.6
611,1.6
612,0.8
613,-0.6
614,-2.2
615,-4.7
616,-6.8
617,-8.8
618,-10.7
619,-12.7
620,-14.8
621,-17
622,-18.7
623,-19.9
624,-20.3
625,-20.3
626,-20.3
627,-20.5
628,-20.2
629,-19.5
630,-18.7
631,-17.4
632,-16
633,-14.4
634,-12.9
635,-10.8
636,-8.8
637,-6.9
638,-5.6
639,-4.8
640,-3.8
641,-3.3
642,-2.8
643,-2.2
644,-1.9
645,-1.5
646,-1.3
647,-1.2
648,-0.9
649,-0.7
650,-0.6
651,-0.6
652,-0.6
653,-0.6
654,-0.6
655,-0.4
656,-0.2
657,-0.2
658,-0.1
659,0
660,0
661,0
662,0
663,0.2
664,0.3
665,0.3
666,0.2
667,0.2
668,0.1
669,0
670,0.1
671,0.1
672,0.1
673,0.1
674,0.1
675,0.1
676,0.2
677,0.1
678,0.1
679,0.4
680,0.7
681,0.7
682,0.5
683,0.5
684,0.3
685,0.3
686,0.4
687,0.2
688,0.2
689,0.3
690,0.5
691,0.6
692,0.6
693,0.7
694,0.8
695,0.8
696,0.8
697,0.8
698,0.7
699,0.8
700,0.9
701,1.1
702,1
703,1.1
704,1.2
705,1.2
706,1.2
707,1.1
708,1.1
709,1.1
710,1
711,1
712,1
713,1.1
714,1.2
715,1.3
716,1.2
717,1.3
718,1.5
719,1.6
720,1.6
721,1.6
722,1.4
723,1.4
724,1.6
725,1.5
726,1.5
727,1.6
728,1.7
729,1.8
730,2.1
731,2.1
732,2.2
733,2.1
734,2
735,1.9
736,1.9
737,2
738,2.1
739,1.9
740,1.8
741,1.8
742,1.8
743,1.8
744,1.8
745,1.8
746,1.7
747,1.5
748,1.5
749,1.6
750,1.8
751,1.7
752,1.6
753,1.5
754,1.3
755,1.1
756,1.2
757,1.3
758,1.1
759,1
760,1.1
761,1.1
762,0.9
763,0.9
764,0.9
765,0.9
766,0.8
767,0.6
768,0.4
769,0.6
770,0.8
771,0.8
772,0.8
773,0.6
774,0.4
775,0.4
776,0.5
777,0.5
778,0.3
779,0.4
780,0.4
781,0.6
782,0.6
783,0.6
784,0.6
785,0.6
786,0.5
787,0.5
788,0.4
789,0.2
790,0.2
791,0.3
792,0.4
793,0.3
794,0.1
795,0.3
796,0.3
797,0.3
798,0.1
799,0
800,0
801,0.1
802,0.5
803,0.5
804,0.5
805,0.3
806,0.1
807,0
808,-0.1
809,-0.2
810,-0.2
811,0
812,0
813,0
814,0
815,0
816,0
817,-0.1
818,0
819,0
820,-0.1
821,0
822,-0.2
823,-0.2
824,0
825,0
826,-0.2
827,-0.2
828,-0.2
829,-0.1
830,-0.1
831,-0.1
832,-0.1
833,-0.1
834,-0.1
835,0
836,0
837,0.1
838,0.1
839,0.1
840,0
841,0.1
842,0
843,0
844,0.2
845,0.1
846,0.2
847,0.4
848,0.3
849,0.4
850,0.2
851,0.1
852,0
853,0
854,0.1
855,0.1
856,0
857,0.2
858,0.3
859,0.2
860,0.3
861,0.6
862,0.6
863,0.5
864,0.3
865,0.1
866,0.1
867,0.2
868,0
869,-0.1
870,0.2
871,0.4
872,0.4
873,0.7
874,0.6
875,0.4
876,0.3
877,0.4
878,0.3
879,0.4
880,0.4
881,0.4
882,0.5
883,0.3
884,0.2
885,0.2
886,0.4
887,0.5
888,0.5
889,0.3
890,0.1
891,0.3
892,0.4
893,0.3
894,0.3
895,0.3
896,0.3
897,0.4
898,0.4
899,0.4
900,0.4
901,0.4
902,0.2
903,0.2
904,0.2
905,0.2
906,0.2
907,0.2
908,0.2
909,0
910,-0.1
911,0
912,-0.1
913,0
914,0.1
915,0.3
916,0.2
917,0.2
918,0.2
919,0.3
920,0.3
921,0.1
922,0
923,0.1
924,0
925,0.1
926,0.2
927,0.2
928,0.1
929,0.1
930,0
931,0
932,0.1
933,0.1
934,0.1
935,0.2
936,0.2
937,0.2
938,0
939,0.1
940,0.1
941,0
942,0
943,0.1
944,0.2
945,0.1
946,0
947,0
948,0.1
949,-0.1
950,-0.2
951,0
952,0.1
953,0
954,0
955,0
956,0
957,0
958,0.1
959,0.1
960,0
961,-0.2
962,-0.2
963,-0.2
964,-0.2
965,-0.1
966,0
967,0
968,0
969,0
970,0.1
971,0
972,-0.1
973,-0.1
974,-0.2
975,-0.3
976,-0.1
977,0.1
978,0.1
979,0.1
980,0.1
981,0.1
982,0.1
983,0.1
984,0
985,-0.1
986,-0.2
987,-0.2
988,-0.3
989,-0.2
990,-0.2
991,0
992,0
993,0
994,-0.1
995,0
996,0
997,0
998,-0.1
999,0
1000,0
1001,0.2
1002,0.2
1003,0.2
1004,0
1005,-0.3
1006,-0.2
1007,0.1
1008,0.1
1009,-0.1
1010,-0.1
1011,0
1012,0
1013,-0.2
1014,-0.5
1015,-0.3
1016,-0.2
1017,-0.1
1018,-0.1
1019,0
1020,0
1021,0
1022,0.1
1023,0.2
1024,0.3
1025,0.4
1026,0.3
1027,0.5
1028,0.5
1029,0.7
1030,0.6
1031,0.9
1032,1
1033,0.7
1034,0.5
1035,0.7
1036,0.8
1037,0.8
1038,0.7
1039,0.8
1040,0.8
1041,0.7
1042,0.5
1043,0
1044,-0.3
1045,-0.5
1046,-0.9
1047,-0.9
1048,-0.8
1049,-0.8
1050,-0.7
1051,-0.8
1052,-0.7
1053,-0.6
1054,-0.3
1055,-0.2
1056,-0.1
1057,-0.2
1058,-0.3
1059,-0.3
1060,-0.4
1061,-0.5
1062,-0.3
1063,-0.3
1064,-0.3
1065,-0.2
1066,-0.2
1067,-0.2
1068,-0.1
1069,-0.1
1070,-0.3
1071,-0.2
1072,-0.2
1073,-0.2
1074,-0.2
1075,-0.2
1076,-0.4
1077,-0.3
1078,-0.4
1079,-0.4
1080,-0.4
1081,-0.4
1082,-0.5
1083,-0.4
1084,-0.4
1085,-0.4
1086,-0.5
1087,-0.4
1088,-0.4
1089,-0.2
1090,-0.2
1091,-0.1
1092,-0.1
1093,0
1094,0.2
1095,0.4
1096,1.3
1097,2.2
1098,2.4
1099,2.1
1100,2
1101,1.8
1102,1.6
1103,0.9
1104,-0.4
1105,-2.1
1106,-4.2
1107,-6.2
1108,-8.3
1109,-10.2
1110,-12.1
1111,-14
1112,-15.9
1113,-17.5
1114,-18.6
1115,-19.3
1116,-19.5
1117,-19.4
1118,-19.6
1119,-19.3
1120,-18.8
1121,-18
1122,-16.9
1123,-15.4
1124,-13.8
1125,-11.8
1126,-9.7
1127,-8
1128,-6.4
1129,-5.2
1130,-4.3
1131,-3.5
1132,-2.7
1133,-2
1134,-1.5
1135,-1.1
1136,-0.6
1137,-0.4
1138,-0.3
1139,-0.1
1140,-0.1
1141,-0.1
1142,0.1
1143,0.2
1144,0.2
1145,0.1
1146,0.2
1147,0.2
1148,0.3
1149,0.3
1150,0.3
1151,0.2
1152,0.3
1153,0.4
1154,0.3
1155,0.3
1156,0.2
1157,0.5
1158,0.5
1159,0.6
1160,0.7
1161,0.5
1162,0.5
1163,0.7
1164,0.8
1165,0.9
1166,0.7
1167,0.7
1168,1
1169,0.8
1170,0.5
1171,0.6
1172,0.7
1173,0.8
1174,0.9
1175,0.8
1176,0.7
1177,0.7
1178,0.7
1179,0.9
1180,1
1181,1.2
1182,1.1
1183,0.8
1184,0.6
1185,0.6
1186,0.8
1187,0.9
1188,1.1
1189,1.2
1190,1.3
1191,1.3
1192,1.1
1193,1.1
1194,1
1195,1
1196,1
1197,1
1198,1
1199,1.3
1200,1.3
1201,1.3
1202,1.5
1203,1.7
1204,1.5
1205,1.3
1206,1.4
1207,1.3
1208,1.4
1209,1.4
1210,1.5
1211,1.5
1212,1.5
1213,1.5
1214,1.4
1215,1.4
1216,1.4
1217,1.6
1218,1.8
1219,1.7
1220,1.6
1221,1.7
1222,1.7
1223,1.6
1224,1.5
1225,1.7
1226,1.6
1227,1.5
1228,1.7
1229,1.7
1230,1.6
1231,1.6
1232,1.6
1233,1.5
1234,1.4
1235,1.4
1236,1.5
1237,1.6
1238,1.5
1239,1.5
1240,1.3
1241,1.3
1242,1.3
1243,1.3
1244,1
1245,0.9
1246,0.8
1247,0.9
1248,0.7
1249,0.8
1250,0.8
1251,0.7
1252,0.7
1253,0.6
1254,0.4
1255,0.4
1256,0.4
1257,0.4
1258,0.2
1259,0.5
1260,0.4
1261,0.3
1262,0.1
1263,0.1
1264,0.2
1265,0.2
1266,0.2
1267,0.3
1268,0.3
1269,0.1
1270,0
1271,0.1
1272,0.1
1273,0.4
1274,0.5
1275,0.3
1276,0
1277,0.2
1278,0.2
1279,0.2
1280,0.2
1281,0.2
1282,0
1283,0
1284,-0.1
1285,0
1286,0.2
1287,0.2
1288,-0.2
1289,-0.2
1290,-0.2
1291,-0.3
1292,-0.4
1293,-0.3
1294,0
1295,0
1296,0
1297,-0.2
1298,-0.3
1299,-0.3
1300,-0.2
1301,-0.2
1302,-0.3
1303,-0.2
1304,-0.4
1305,-0.4
1306,-0.2
1307,-0.3
1308,-0.3
1309,-0.1
1310,-0.1
1311,0
1312,0
1313,-0.1
1314,-0.2
1315,-0.4
1316,-0.4
1317,-0.5
1318,-0.4
1319,-0.1
1320,-0.1
1321,-0.3
1322,-0.5
1323,-0.6
1324,-0.6
1325,-0.5
1326,-0.6
1327,-0.4
1328,-0.5
1329,-0.7
1330,-0.6
1331,-0.6
1332,-0.5
1333,-0.4
1334,-0.3
1335,-0.3
1336,-0.3
1337,-0.5
1338,-0.3
1339,-0.2
1340,-0.3
1341,-0.4
1342,-0.3
1343,0
1344,-0.1
1345,-0.2
1346,-0.4
1347,-0.4
1348,-0.1
1349,-0.1
1350,-0.1
1351,0
1352,-0.3
1353,-0.5
1354,-0.3
1355,-0.3
1356,-0.2
1357,-0.2
1358,0
1359,0
1360,-0.1
1361,0
1362,-0.1
1363,-0.3
1364,-0.3
1365,-0.2
1366,-0.2
1367,-0.2
1368,-0.2
1369,-0.3
1370,-0.3
1371,-0.2
1372,-0.1
1373,-0.1
1374,0.1
1375,0
1376,-0.2
1377,-0.3
1378,-0.3
1379,-0.3
1380,-0.2
1381,0
1382,0
1383,-0.3
1384,-0.3
1385,0
1386,-0.1
1387,-0.3
1388,-0.2
1389,-0.1
1390,-0.4
1391,-0.5
1392,-0.5
1393,-0.4
1394,-0.5
1395,-0.4
1396,-0.2
1397,-0.3
1398,-0.6
1399,-0.6
1400,-0.4
1401,-0.4
1402,-0.4
1403,-0.2
1404,-0.1
1405,-0.3
1406,-0.4
1407,-0.4
1408,-0.3
1409,-0.4
1410,-0.6
1411,-0.6
1412,-0.5
1413,-0.5
1414,-0.4
1415,-0.4
1416,-0.3
1417,-0.3
1418,-0.3
1419,-0.5
1420,-0.7
1421,-0.6
1422,-0.7
1423,-0.6
1424,-0.4
1425,-0.4
1426,-0.4
1427,-0.4
1428,-0.4
1429,-0.4
1430,-0.2
1431,-0.3
1432,-0.7
1433,-0.7
1434,-0.8
1435,-0.7
1436,-0.4
1437,-0.4
1438,-0.4
1439,-0.6
1440,-0.8
1441,-0.7
1442,-0.7
1443,-0.5
1444,-0.4
1445,-0.3
1446,-0.4
1447,-0.6
1448,-0.6
1449,-0.5
1450,-0.4
1451,-0.8
1452,-0.6
1453,-0.5
1454,-0.8
1455,-0.8
1456,-0.8
1457,-0.8
1458,-0.7
1459,-0.8
1460,-0.8
1461,-0.4
1462,-0.5
1463,-0.5
1464,-0.6
1465,-0.8
1466,-0.6
1467,-0.6
1468,-0.5
1469,-0.7
1470,-0.5
1471,-0.4
1472,-0.5
1473,-0.8
1474,-0.6
1475,-0.6
1476,-0.6
1477,-0.3
1478,-0.2
1479,-0.3
1480,-0.3
1481,-0.4
1482,-0.7
1483,-0.8
1484,-0.7
1485,-0.6
1486,-0.6
1487,-0.5
1488,-0.8
1489,-0.7
1490,-0.5
1491,-0.2
1492,0
1493,0.2
1494,0.2
1495,0.1
1496,-0.1
1497,0
1498,0
1499,0
1500,0
1501,-0.1
1502,0.1
1503,0.3
1504,0.3
1505,0.3
1506,0.3
1507,0.1
1508,0
1509,-0.1
1510,-0.2
1511,-0.3
1512,-0.3
1513,-0.5
1514,-0.8
1515,-0.9
1516,-1.1
1517,-1.2
1518,-1
1519,-1
1520,-0.8
1521,-1.1
1522,-1.4
1523,-1.3
1524,-1.3
1525,-1.3
1526,-1.1
1527,-0.9
1528,-0.9
1529,-0.9
1530,-0.9
1531,-0.8
1532,-0.7
1533,-0.6
1534,-0.8
1535,-0.7
1536,-0.7
1537,-0.8
1538,-0.8
1539,-0.9
1540,-0.8
1541,-0.6
1542,-0.6
1543,-0.7
1544,-0.7
1545,-0.5
1546,-0.5
1547,-0.5
1548,-0.7
1549,-0.9
1550,-0.8
1551,-0.8
1552,-0.8
1553,-0.7
1554,-0.6
1555,-0.7
1556,-0.8
1557,-0.9
1558,-0.8
1559,-0.6
1560,-0.4
1561,-0.4
1562,-0.4
1563,-0.3
1564,0.1
1565,0.6
1566,1.2
1567,1.8
1568,2.3
1569,2.4
1570,2.4
1571,2.4
1572,2.2
1573,1.8
1574,0.8
1575,-0.7
1576,-2.1
1577,-4.2
1578,-6.2
1579,-7.9
1580,-9.7
1581,-11.7
1582,-13.4
1583,-15.2
1584,-16.5
1585,-16.7
1586,-16.8
1587,-16.7
1588,-16.6
1589,-16.4
1590,-16.3
1591,-15.5
1592,-14.6
1593,-13.7
1594,-12.4
1595,-10.7
1596,-8.7
1597,-7.1
1598,-6.1
1599,-5.2
1600,-4.4
1601,-3.7
1602,-2.9
1603,-2.2
1604,-1.9
1605,-1.2
1606,-0.7
1607,-0.6
1608,-0.5
1609,-0.3
1610,-0.3
1611,-0.1
1612,-0.1
1613,-0.1
1614,-0.1
1615,0
1616,0.2
1617,0.4
1618,0.5
1619,0.5
1620,0.5
1621,0.3
1622,0.3
1623,0.5
1624,0.3
1625,0.3
1626,0.3
1627,0.3
1628,0.4
1629,0.3
1630,0.3
1631,0.5
1632,0.5
1633,0.3
1634,0.2
1635,0.3
1636,0.5
1637,0.3
1638,0.4
1639,0.4
1640,0.5
1641,0.5
1642,0.7
1643,0.8
1644,0.8
1645,0.9
1646,0.9
1647,1.1
1648,1
1649,1
1650,0.9
1651,1.1
1652,1.1
1653,1.1
1654,0.9
1655,0.8
1656,0.9
1657,1
1658,1
1659,1
1660,0.9
1661,1.1
1662,0.8
1663,0.7
1664,0.9
1665,1.1
1666,1
1667,1
1668,1.1
1669,1.1
1670,1.3
1671,1.3
1672,1.2
1673,1.2
1674,1.4
1675,1.4
1676,1.2
1677,1.4
1678,1.4
1679,1.5
1680,1.6
1681,1.8
1682,1.8
1683,1.7
1684,1.7
1685,1.7
1686,1.7
1687,1.6
1688,1.7
1689,1.6
1690,1.6
1691,1.7
1692,1.7
1693,1.7
1694,1.6
1695,1.6
1696,1.5
1697,1.4
1698,1.4
1699,1.6
1700,1.7
1701,1.8
1702,1.8
1703,1.6
1704,1.5
1705,1.4
1706,1.4
1707,1.5
1708,1.5
1709,1.3
1710,1.5
1711,1.6
1712,1.6
1713,1.6
1714,1.4
1715,1.4
1716,1.2
1717,1.2
1718,1.3
1719,1.4
1720,1.5
1721,1.3
1722,1.3
1723,1.2
1724,1.1
1725,0.8
1726,0.7
1727,0.9
1728,1.1
1729,1.1
1730,1
1731,0.9
1732,1.1
1733,1
1734,1
1735,1
1736,0.9
1737,0.9
1738,0.8
1739,0.8
1740,0.7
1741,0.7
1742,0.7
1743,0.7
1744,0.7
1745,0.6
1746,0.6
1747,0.8
1748,1.1
1749,1.2
1750,1.2
1751,1.2
1752,1
1753,0.7
1754,0.7
1755,0.8
1756,0.7
1757,0.4
1758,0.4
1759,0.5
1760,0.6
1761,0.5
1762,0.3
1763,0.3
1764,0.3
1765,0.4
1766,0.4
1767,0.4
1768,0.4
1769,0.4
1770,0.4
1771,0.5
1772,0.5
1773,0.4
1774,0.4
1775,0.2
1776,0.2
1777,0.3
1778,0.3
1779,0.2
1780,0.2
1781,0.2
1782,0.1
1783,0.2
1784,0.1
1785,0.1
1786,0.3
1787,0.3
1788,0.3
1789,0.5
1790,0.6
1791,0.6
1792,0.4
1793,0.4
1794,0.4
1795,0.2
1796,0.1
1797,0.1
1798,0.5
1799,0.6
1800,0.6
1801,0.5
1802,0.5
1803,0.4
1804,0.3
1805,0.3
1806,0.1
1807,0.3
1808,0.5
1809,0.6
1810,0.6
1811,0.5
1812,0.3
1813,0.4
1814,0.1
1815,0.1
1816,0.2
1817,0.2
1818,0.4
1819,0.5
1820,0.6
1821,0.4
1822,0.3
1823,0.3
1824,0.5
1825,0.4
1826,0.4
1827,0.4
1828,0.5
1829,0.5
1830,0.5
1831,0.4
1832,0.3
1833,0.2
1834,0.3
1835,0.4
1836,0.4
1837,0.4
1838,0.4
1839,0.6
1840,0.5
1841,0.4
1842,0.4
1843,0.3
1844,0.1
1845,0.1
1846,0.1
1847,0.1
1848,0.3
1849,0.4
1850,0.4
1851,0.3
1852,0.3
1853,0.4
1854,0.6
1855,0.4
1856,0.4
1857,0.3
1858,0.2
1859,0.3
1860,0.3
1861,0.2
1862,0.3
1863,0.3
1864,0.3
1865,0.4
1866,0.3
1867,0.2
1868,0.1
1869,0.1
1870,0.2
1871,0.2
1872,0.1
1873,0
1874,0.1
1875,0.1
1876,0.1
1877,0.1
1878,-0.1
1879,0
1880,0.1
1881,0.1
1882,0
1883,0
1884,0.2
1885,0.3
1886,0.1
1887,0.1
1888,0.1
1889,0.1
1890,-0.1
1891,-0.2
1892,0
1893,0
1894,-0.2
1895,-0.3
1896,-0.2
1897,-0.2
1898,-0.2
1899,-0.1
1900,-0.1
1901,-0.1
1902,-0.1
1903,-0.3
1904,-0.5
1905,-0.4
1906,-0.2
1907,0
1908,0.1
1909,0.1
1910,0
1911,-0.2
1912,0
1913,0
1914,0.1
1915,0.1
1916,0.1
1917,0
1918,-0.3
1919,-0.3
1920,-0.2
1921,0
1922,-0.2
1923,-0.2
1924,-0.1
1925,-0.1
1926,-0.2
1927,-0.1
1928,0
1929,0
1930,-0.2
1931,-0.1
1932,-0.1
1933,-0.3
1934,-0.4
1935,-0.1
1936,-0.1
1937,-0.3
1938,-0.4
1939,-0.5
1940,-0.5
1941,-0.4
1942,-0.3
1943,-0.3
1944,-0.3
1945,-0.3
1946,-0.4
1947,-0.4
1948,-0.1
1949,0
1950,0
1951,0
1952,-0.2
1953,-0.2
1954,-0.3
1955,-0.3
1956,-0.3
1957,-0.3
1958,-0.4
1959,0
1960,0.2
1961,0.1
1962,0.1
1963,0.2
1964,0.3
1965,0.5
1966,0.4
1967,0.4
1968,0.4
1969,0.6
1970,0.7
1971,0.7
1972,0.7
1973,0.8
1974,0.9
1975,0.6
1976,0.4
1977,0.2
1978,0
1979,0
1980,-0.1
1981,-0.5
1982,-1.1
1983,-1.2
1984,-0.9
1985,-0.8
1986,-0.9
1987,-0.8
1988,-0.7
1989,-0.8
1990,-0.9
1991,-0.7
1992,-0.7
1993,-0.9
1994,-1
1995,-0.7
1996,-0.5
1997,-0.5
1998,-0.5
1999,-0.6
2000,-0.6
2001,-0.6
2002,-0.6
2003,-0.7
2004,-0.7
2005,-0.6
2006,-0.6
2007,-0.5
2008,-0.5
2009,-0.5
2010,-0.3
2011,-0.3
2012,-0.3
2013,-0.4
2014,-0.6
2015,-0.7
2016,-0.7
2017,-0.6
2018,-0.7
2019,-0.5
2020,-0.5
2021,-0.6
2022,-0.5
2023,-0.5
2024,-0.6
2025,-0.8
2026,-0.7
2027,-0.6
2028,-0.5
2029,-0.2
2030,0
2031,0
2032,0.4
2033,1.2
2034,1.8
2035,2
2036,2.1
2037,2.4
2038,2.3
2039,2.2
2040,1.7
2041,0.3
2042,-1
2043,-3
2044,-5.5
2045,-7.4
2046,-9.2
2047,-10.8
2048,-12.8
2049,-14.8
2050,-16.6
2051,-17.7
2052,-18.2
2053,-18.2
2054,-18.3
2055,-18.5
2056,-18.3
2057,-18
2058,-17.2
2059,-16.3
2060,-15.3
2061,-13.9
2062,-12
2063,-9.6
2064,-7.8
2065,-6.6
2066,-5.4
2067,-4.6
2068,-3.5
2069,-2.7
2070,-2.1
2071,-1.5
2072,-1.1
2073,-0.8
2074,-0.6
2075,-0.1
2076,0
2077,0
2078,0
2079,-0.1
2080,0
2081,0.2
2082,0.3
2083,0.3
2084,0.3
2085,0.3
2086,0.4
2087,0.4
2088,0.2
2089,0.2
2090,0.5
2091,0.5
2092,0.4
2093,0.6
2094,0.8
2095,0.8
2096,0.8
2097,0.7
2098,0.6
2099,0.6
2100,0.7
2101,0.5
2102,0.6
2103,0.8
2104,1.2
2105,1.2
2106,1
2107,1
2108,1
2109,0.9
2110,1
2111,1.1
2112,1.1
2113,1
2114,0.9
2115,0.9
2116,0.9
2117,1
2118,1.1
2119,1.2
2120,1.3
2121,1.4
2122,1.3
2123,1.4
2124,1.4
2125,1.4
2126,1.6
2127,1.7
2128,1.6
2129,1.6
2130,1.7
2131,1.6
2132,1.7
2133,1.8
2134,1.7
2135,1.8
2136,1.6
2137,1.6
2138,1.6
2139,1.8
2140,1.8
2141,1.8
2142,1.8
2143,1.8
2144,2
2145,1.9
2146,2
2147,2
2148,1.9
2149,1.9
2150,1.8
2151,2
2152,2.3
2153,2.2
2154,2.2
2155,2.2
2156,2.3
2157,2.3
2158,2.5
2159,2.6
2160,2.3
2161,2
2162,2.1
2163,2.1
2164,2.2
2165,2.2
2166,2.3
2167,2.4
2168,2.4
2169,2.5
2170,2.4
2171,2.4
2172,2.4
2173,2.3
2174,2.1
2175,2.3
2176,2.4
2177,2.2
2178,2
2179,2
2180,2
2181,1.9
2182,1.9
2183,1.9
2184,1.9
2185,1.8
2186,1.7
2187,1.7
2188,1.7
2189,1.6
2190,1.7
2191,1.3
2192,1.5
2193,1.3
2194,1.3
2195,1.2
2196,1.1
2197,1.1
2198,1.1
2199,1.2
2200,1.4
2201,1.5
2202,1.2
2203,1
2204,1.1
2205,1.2
2206,1.2
2207,1.2
2208,1.2
2209,1.1
2210,1
2211,0.8
2212,0.8
2213,0.9
2214,0.9
2215,0.7
2216,0.7
2217,0.6
2218,0.6
2219,0.7
2220,0.7
2221,0.7
2222,0.7
2223,0.6
2224,0.2
2225,0.3
2226,0.3
2227,0.4
2228,0.2
2229,0.2
2230,0.2
2231,0.3
2232,0.4
2233,0.4
2234,0.3
2235,0.3
2236,0.4
2237,0.2
2238,0.2
2239,0
2240,0
2241,0.1
2242,0.2
2243,0.3
2244,0.2
2245,0.1
2246,0.1
2247,0.1
2248,0.1
2249,0.2
2250,0.1
2251,0.1
2252,0
2253,0
2254,0.1
2255,0.2
2256,0
2257,0
2258,0.3
2259,0.2
2260,0.1
2261,0.1
2262,0
2263,0
2264,0
2265,0
2266,0.1
2267,0.2
2268,0.1
2269,0.2
2270,0.4
2271,0.5
2272,0.3
2273,0.3
2274,0.2
2275,0.2
2276,0.1
2277,0
2278,0.1
2279,0.1
2280,0.1
2281,0.2
2282,0.2
2283,0.2
2284,0.1
2285,0.2
2286,0.3
2287,0.3
2288,0.3
2289,0.2
2290,0.3
2291,0.2
2292,0.1
2293,0.1
2294,0
2295,0
2296,0
2297,0.2
2298,0.3
2299,0.4
2300,0.3
2301,0.3
2302,0.3
2303,0.3
2304,0.4
2305,0.3
2306,0.3
2307,0.3
2308,0.1
2309,0
2310,0
2311,0.1
2312,0.1
2313,0.1
2314,0.3
2315,0.2
2316,0
2317,0
2318,0
2319,0
2320,0.1
2321,0.1
2322,0
2323,-0.1
2324,-0.2
2325,0.1
2326,0.2
2327,0.1
2328,0
2329,0.1
2330,0.2
2331,0
2332,-0.1
2333,-0.1
2334,-0.2
2335,0.1
2336,0.2
2337,0
2338,-0.1
2339,-0.1
2340,-0.1
2341,-0.3
2342,0
2343,0.2
2344,0.1
2345,0.2
2346,0
2347,0
2348,0
2349,-0.1
2350,-0.2
2351,-0.2
2352,-0.2
2353,-0.2
2354,-0.2
2355,-0.1
2356,-0.1
2357,-0.2
2358,-0.1
2359,-0.1
2360,-0.1
2361,-0.3
2362,-0.2
2363,-0.2
2364,-0.2
2365,-0.2
2366,-0.5
2367,-0.5
2368,-0.5
2369,-0.5
2370,-0.3
2371,-0.6
2372,-0.5
2373,-0.5
2374,-0.5
2375,-0.6
2376,-0.3
2377,-0.2
2378,-0.2
2379,-0.2
2380,-0.2
2381,-0.3
2382,-0.5
2383,-0.4
2384,-0.4
2385,-0.4
2386,-0.3
2387,-0.4
2388,-0.4
2389,-0.5
2390,-0.5
2391,-0.5
2392,-0.6
2393,-0.7
2394,-0.6
2395,-0.6
2396,-0.5
2397,-0.2
2398,-0.1
2399,-0.1
2400,-0.3
2401,-0.3
2402,-0.3
2403,-0.3
2404,-0.3
2405,-0.3
2406,-0.4
2407,-0.5
2408,-0.5
2409,-0.5
2410,-0.5
2411,-0.5
2412,-0.4
2413,-0.3
2414,-0.3
2415,-0.5
2416,-0.5
2417,-0.5
2418,-0.6
2419,-0.7
2420,-0.6
2421,-0.6
2422,-0.4
2423,-0.3
2424,-0.3
2425,-0.5
2426,-0.7
2427,-0.7
2428,-0.8
2429,-0.8
2430,-0.7
2431,-0.5
2432,-0.5
2433,-0.5
2434,-0.5
2435,-0.5
2436,-0.6
2437,-0.6
2438,-0.6
2439,-0.4
2440,-0.3
2441,-0.4
2442,-0.5
2443,-0.7
2444,-0.5
2445,-0.3
2446,0
2447,0.1
2448,0.3
2449,0.3
2450,0.3
2451,0.2
2452,0.4
2453,0.3
2454,0.3
2455,0.2
2456,0.2
2457,0.4
2458,0.5
2459,0.5
2460,0.3
2461,0.3
2462,0.2
2463,0
2464,-0.3
2465,-0.7
2466,-1
2467,-1.3
2468,-1.2
2469,-1.1
2470,-0.8
2471,-0.8
2472,-0.8
2473,-0.8
2474,-1
2475,-1
2476,-0.8
2477,-0.7
2478,-0.7
2479,-0.8
2480,-0.7
2481,-0.5
2482,-0.6
2483,-0.8
2484,-0.8
2485,-0.9
2486,-1.1
2487,-0.8
2488,-0.6
2489,-0.6
2490,-0.7
2491,-0.7
2492,-0.6
2493,-0.6
2494,-0.6
2495,-0.7
2496,-0.6
2497,-0.6
2498,-0.8
2499,-0.7
2500,-0.6
2501,-0.7
2502,-0.6
2503,-0.6
2504,-0.6
2505,-0.6
2506,-0.7
2507,-0.8
2508,-0.8
2509,-0.7
2510,-0.7
2511,-0.8
2512,-0.7
2513,-0.7
2514,-0.5
2515,-0.1
2516,0.5
2517,1.3
2518,1.7
2519,2.2
2520,2.1
2521,2
2522,1.8
2523,1.7
2524,1.3
2525,0.1
2526,-1.3
2527,-3.7
2528,-6
2529,-7.9
2530,-9.8
2531,-11.6
2532,-13.8
2533,-16.1
2534,-18
2535,-19.2
2536,-19.8
2537,-20
2538,-20
2539,-20.3
2540,-20.3
2541,-19.5
2542,-18.8
2543,-17.6
2544,-16.2
2545,-14.4
2546,-12.8
2547,-10.7
2548,-8.6
2549,-6.8
2550,-5.5
2551,-4.5
2552,-3.6
2553,-2.9
2554,-2.1
2555,-1.6
2556,-1.3
2557,-0.9
2558,-0.7
2559,-0.6
2560,-0.3
2561,0
2562,0
2563,0
2564,0.2
2565,0
2566,0
2567,0.1
2568,0.1
2569,0.3
2570,0.4
2571,0.4
2572,0.5
2573,0.6
2574,0.6
2575,0.7
2576,0.6
2577,0.6
2578,0.7
2579,0.8
2580,0.8
2581,0.8
2582,0.7
2583,0.6
2584,0.7
2585,0.6
2586,0.6
2587,0.7
2588,0.7
2589,0.6
2590,0.6
2591,0.8
2592,0.9
2593,1
2594,1.1
2595,1.2
2596,1.2
2597,1.1
2598,1.1
2599,1
2600,1
2601,1
2602,1.1
2603,1.2
2604,1.1
2605,1.3
2606,1.4
2607,1.5
2608,1.5
2609,1.3
2610,1.3
2611,1.2
2612,1.2
2613,1.2
2614,1.3
2615,1.5
2616,1.7
2617,1.6
2618,1.5
2619,1.8
2620,1.8
2621,1.8
2622,1.7
2623,1.6
2624,1.8
2625,1.7
2626,1.6
2627,1.6
2628,1.7
2629,1.9
2630,2
2631,2.1
2632,2.2
2633,2.2
2634,2
2635,1.9
2636,1.9
2637,1.9
2638,1.9
2639,1.9
2640,2.1
2641,2.4
2642,2.2
2643,2
2644,2.3
2645,2.5
2646,2.5
2647,2.4
2648,2.4
2649,2.4
2650,2.4
2651,2.5
2652,2.5
2653,2.3
2654,2.2
2655,2.2
2656,2.1
2657,2.3
2658,2.2
2659,2.2
2660,2.2
2661,2.2
2662,2.3
2663,2.2
2664,2.1
2665,2
2666,1.8
2667,1.7
2668,1.7
2669,1.8
2670,1.9
2671,1.8
2672,1.8
2673,1.9
2674,1.8
2675,1.6
2676,1.4
2677,1.2
2678,1.4
2679,1.4
2680,1.3
2681,1.3
2682,1.2
2683,1.2
2684,1.3
2685,1.4
2686,1.2
2687,1
2688,1
2689,0.9
2690,0.8
2691,0.8
2692,1
2693,1
2694,0.9
2695,0.7
2696,0.6
2697,0.9
2698,0.9
2699,0.8
2700,0.8
2701,0.8
2702,0.9
2703,0.6
2704,0.6
2705,0.6
2706,0.7
2707,0.7
2708,0.5
2709,0.5
2710,0.6
2711,0.3
2712,0.2
2713,0.4
2714,0.3
2715,0.2
2716,0.1
2717,0.1
2718,0.1
2719,0.2
2720,0.2
2721,0.2
2722,0.2
2723,0.2
2724,0.1
2725,0
2726,0
2727,0
2728,0.2
2729,0.2
2730,0.3
2731,0.1
2732,0.2
2733,0.1
2734,0.1
2735,0.2
2736,0.2
2737,0.2
2738,0.3
2739,0.1
2740,0.1
2741,0
2742,0
2743,0
2744,-0.1
2745,-0.2
2746,-0.1
2747,0.2
2748,0.3
2749,0.2
2750,0.2
2751,0.3
2752,0.2
2753,0.3
2754,0.2
2755,0.2
2756,0.2
2757,0.1
2758,0.1
2759,0.2
2760,0.2
2761,0.3
2762,0.2
2763,0.1
2764,0
2765,0.1
2766,0.2
2767,0.2
2768,0.2
2769,0.1
2770,0.2
2771,0.3
2772,0.3
2773,0.3
2774,0.4
2775,0.5
2776,0.5
2777,0.5
2778,0.5
2779,0.4
2780,0.4
2781,0.4
2782,0.3
2783,0.1
2784,0.1
2785,0.3
2786,0.2
2787,0.2
2788,0.1
2789,0.2
2790,0.3
2791,0.4
2792,0.3
2793,0.4
2794,0.5
2795,0.2
2796,0.2
2797,0.2
2798,0
2799,0.1
2800,0.3
2801,0.4
2802,0.4
2803,0.3
2804,0.2
2805,0.3
2806,0.2
2807,0.3
2808,0.3
2809,0.4
2810,0.3
2811,0.1
2812,0.1
2813,0.1
2814,0
2815,-0.1
2816,-0.1
2817,0
2818,0.2
2819,0.1
2820,0.1
2821,0.4
2822,0.3
2823,0.2
2824,0.2
2825,0
2826,0
2827,0.2
2828,0.4
2829,0.3
2830,0.2
2831,0
2832,0.1
2833,0.2
2834,0.1
2835,0.2
2836,0.1
2837,0.1
2838,0
2839,-0.1
2840,-0.1
2841,0
2842,0
2843,-0.2
2844,-0.1
2845,0
2846,0
2847,0
2848,-0.2
2849,-0.1
2850,0
2851,0
2852,0
2853,0
2854,0
2855,-0.2
2856,-0.3
2857,-0.4
2858,-0.3
2859,-0.2
2860,-0.4
2861,-0.3
2862,-0.1
2863,-0.1
2864,-0.1
2865,-0.1
2866,-0.2
2867,-0.2
2868,-0.2
2869,-0.4
2870,-0.3
2871,-0.5
2872,-0.4
2873,-0.4
2874,-0.6
2875,-0.4
2876,-0.4
2877,-0.4
2878,-0.4
2879,-0.2
2880,-0.2
2881,-0.2
2882,-0.2
2883,-0.2
2884,-0.3
2885,-0.3
2886,-0.3
2887,-0.5
2888,-0.5
2889,-0.5
2890,-0.4
2891,-0.2
2892,-0.3
2893,-0.5
2894,-0.6
2895,-0.6
2896,-0.6
2897,-0.4
2898,-0.4
2899,-0.5
2900,-0.5
2901,-0.5
2902,-0.7
2903,-0.6
2904,-0.5
2905,-0.5
2906,-0.5
2907,-0.5
2908,-0.5
2909,-0.5
2910,-0.4
2911,-0.2
2912,-0.3
2913,-0.4
2914,-0.5
2915,-0.5
2916,-0.3
2917,-0.4
2918,-0.6
2919,-0.6
2920,-0.6
2921,-0.3
2922,0
2923,-0.2
2924,-0.3
2925,-0.5
2926,-0.5
2927,-0.5
2928,-0.2
2929,0
2930,0
2931,-0.1
2932,-0.1
2933,0
2934,0.2
2935,0.2
2936,0.1
2937,0.2
2938,0.2
2939,0.3
2940,0.5
2941,0.7
2942,0.4
2943,0.6
2944,0.6
2945,0.2
2946,0.2
2947,0.3
2948,0.3
2949,0.4
2950,0.3
2951,-0.1
2952,-0.5
2953,-0.9
2954,-0.9
2955,-0.9
2956,-0.7
2957,-0.7
2958,-0.7
2959,-0.7
2960,-0.8
2961,-0.9
2962,-0.8
2963,-0.5
2964,-0.5
2965,-0.6
2966,-0.8
2967,-0.8
2968,-0.8
2969,-0.9
2970,-0.8
2971,-0.8
2972,-0.8
2973,-0.8
2974,-0.7
2975,-0.7
2976,-0.3
2977,-0.2
2978,-0.4
2979,-0.5
2980,-0.6
2981,-0.7
2982,-0.9
2983,-0.8
2984,-0.8
2985,-0.9
2986,-0.9
2987,-0.7
2988,-0.6
2989,-0.7
2990,-0.5
2991,-0.5
2992,-0.7
2993,-0.8
2994,-0.9
2995,-0.8
2996,-0.7
2997,-0.7
2998,-0.7
2999,-0.5
3000,-0.4
3001,-0.5
3002,-0.2
3003,0.4
3004,1.4
3005,2.2
3006,2.2
3007,2.1
3008,2
3009,1.7
3010,1.2
3011,0.2
3012,-1
3013,-2.6
3014,-4.9
3015,-7
3016,-9
3017,-10.4
3018,-12.2
3019,-14.5
3020,-16.6
3021,-18.1
3022,-18.9
3023,-19.2
3024,-19.4
3025,-19.5
3026,-19.4
3027,-19
3028,-18.5
3029,-17.5
3030,-16.3
3031,-14.9
3032,-13.3
3033,-11.4
3034,-9.2
3035,-7.6
3036,-6.2
3037,-5
3038,-4
3039,-3.2
3040,-2.6
3041,-2
3042,-1.5
3043,-1.3
3044,-0.8
3045,-0.7
3046,-0.5
3047,-0.3
3048,-0.2
3049,-0.1
3050,0
3051,0.2
3052,0.4
3053,0.5
3054,0.2
3055,0.2
3056,0.3
3057,0.3
3058,0.6
3059,0.8
3060,0.8
3061,0.8
3062,0.8
3063,0.8
3064,0.7
3065,0.7
3066,0.7
3067,0.7
3068,0.7
3069,0.7
3070,0.9
3071,0.9
3072,0.8
3073,0.9
3074,0.9
3075,0.9
3076,1.1
3077,1
3078,0.8
3079,0.9
3080,0.9
3081,1
3082,1.1
3083,1.1
3084,1
3085,1.1
3086,1
3087,0.9
3088,0.8
3089,0.8
3090,1
3091,1
3092,1.3
3093,1.3
3094,1.2
3095,1.2
3096,1.3
3097,1.1
3098,0.9
3099,0.8
3100,0.9
3101,0.9
3102,1.1
3103,1.1
3104,1.2
3105,1.5
3106,1.5
3107,1.3
3108,1.3
3109,1.3
3110,1.4
3111,1.6
3112,1.5
3113,1.5
3114,1.5
3115,1.4
3116,1.4
3117,1.5
3118,1.5
3119,1.5
3120,1.5
3121,1.4
3122,1.6
3123,1.7
3124,1.9
3125,1.8
3126,1.8
3127,1.8
3128,1.9
3129,1.9
3130,1.9
3131,1.6
3132,1.5
3133,1.5
3134,1.4
3135,1.7
3136,1.8
3137,1.4
3138,1.6
3139,1.7
3140,1.9
3141,1.9
3142,1.7
3143,1.6
3144,1.8
3145,1.9
3146,1.7
3147,1.4
3148,1.4
3149,1.5
3150,1.5
3151,1.5
3152,1.2
3153,1.2
3154,1.1
3155,1.1
3156,1.3
3157,1.2
3158,1
3159,1.1
3160,1.1
3161,1
3162,0.8
3163,0.9
3164,0.7
3165,0.8
3166,0.8
3167,0.8
3168,0.8
3169,0.8
3170,0.7
3171,0.4
3172,0.3
3173,0.3
3174,0.6
3175,0.8
3176,0.8
3177,0.8
3178,0.7
3179,0.7
3180,0.8
3181,0.9
3182,1
3183,0.9
3184,0.7
3185,0.7
3186,0.7
3187,0.7
3188,0.7
3189,0.7
3190,0.8
3191,0.7
3192,0.5
3193,0.5
3194,0.5
3195,0.6
3196,0.4
3197,0.4
3198,0.1
3199,0.1
3200,0.2
3201,0.3
3202,0.3
3203,0.2
3204,0.2
3205,0.2
3206,0.1
3207,0.2
3208,0.4
3209,0.3
3210,0.5
3211,0.3
3212,0.1
3213,0.1
3214,0.4
3215,0.3
3216,0.5
3217,0.4
3218,0.5
3219,0.6
3220,0.5
3221,0.3
3222,0.1
3223,0
3224,0
3225,0
3226,0
3227,0.1
3228,0.1
3229,0
3230,0.1
3231,0
3232,0
3233,0
3234,0
3235,0.2
3236,0.2
3237,0.2
3238,0
3239,0.1
3240,0.3
3241,0.4
3242,0.4
3243,0.5
3244,0.7
3245,0.5
3246,0.5
3247,0.4
3248,0.2
3249,0.4
3250,0.4
3251,0.4
3252,0.4
3253,0.3
3254,0.2
3255,0.3
3256,0.3
3257,0.4
3258,0.3
3259,0
3260,0.1
3261,0.5
3262,0.5
3263,0.4
3264,0.4
3265,0.4
3266,0.2
3267,0.1
3268,0.1
3269,0.1
3270,0.3
3271,0.4
3272,0.7
3273,0.6
3274,0.4
3275,0.2
3276,0.3
3277,0.3
3278,0.3
3279,0.3
3280,0.2
3281,0.2
3282,0.4
3283,0.4
3284,0.3
3285,0.3
3286,0.3
3287,0.2
3288,0.2
3289,0.3
3290,0.5
3291,0.4
3292,0.4
3293,0.3
3294,0.2
3295,0.2
3296,0.1
3297,0
3298,0
3299,0.2
3300,0.2
3301,0.1
3302,0
3303,0.1
3304,0.1
3305,0.1
3306,0
3307,0.1
3308,0.1
3309,0.1
3310,0.1
3311,0.1
3312,0.2
3313,0.4
3314,0.1
3315,0.1
3316,0.1
3317,0.2
3318,0.2
3319,0.1
3320,0
3321,0.1
3322,0
3323,0
3324,0
3325,-0.2
3326,-0.2
3327,-0.3
3328,-0.2
3329,-0.2
3330,-0.1
3331,-0.1
3332,-0.1
3333,-0.1
3334,0
3335,0.1
3336,0.1
3337,0.3
3338,0.4
3339,0.2
3340,0.2
3341,0.3
3342,0
3343,0
3344,0
3345,-0.1
3346,-0.3
3347,-0.3
3348,-0.2
3349,-0.1
3350,-0.2
3351,-0.1
3352,0
3353,0
3354,-0.1
3355,-0.2
3356,-0.2
3357,0
3358,0.1
3359,-0.1
3360,-0.1
3361,-0.2
3362,-0.1
3363,-0.1
3364,-0.1
3365,-0.3
3366,-0.2
3367,-0.2
3368,-0.2
3369,0
3370,0
3371,-0.1
3372,0
3373,-0.2
3374,-0.4
3375,-0.5
3376,-0.4
3377,-0.4
3378,-0.5
3379,-0.6
3380,-0.6
3381,-0.4
3382,-0.4
3383,-0.3
3384,-0.2
3385,-0.1
3386,-0.2
3387,-0.1
3388,-0.2
3389,-0.3
3390,-0.1
3391,-0.3
3392,-0.3
3393,-0.3
3394,-0.1
3395,0
3396,0
3397,0.2
3398,0.4
3399,0.6
3400,0.5
3401,0.3
3402,0.5
3403,0.4
3404,0.4
3405,0.3
3406,0.4
3407,0.3
3408,0.1
3409,0.2
3410,0.4
3411,0.2
3412,0.3
3413,0.5
3414,0.4
3415,0.4
3416,0.3
3417,-0.3
3418,-0.8
3419,-1.1
3420,-1.1
3421,-0.9
3422,-0.8
3423,-0.8
3424,-0.9
3425,-1.1
3426,-1.2
3427,-1.1
3428,-1.1
3429,-0.8
3430,-0.7
3431,-0.8
3432,-0.7
3433,-0.6
3434,-0.6
3435,-0.6
3436,-0.6
3437,-0.7
3438,-0.7
3439,-0.6
3440,-0.5
3441,-0.3
3442,-0.5
3443,-0.4
3444,-0.5
3445,-0.7
3446,-0.8
3447,-0.8
3448,-0.5
3449,-0.4
3450,-0.5
3451,-0.5
3452,-0.7
3453,-0.9
3454,-0.9
3455,-0.9
3456,-0.6
3457,-0.6
3458,-0.6
3459,-0.9
3460,-0.7
3461,-0.7
3462,-0.6
3463,-0.6
3464,-0.8
3465,-0.6
3466,-0.4
3467,-0.1
3468,0.5
3469,1.3
3470,1.9
3471,2.4
3472,2.3
3473,2.1
3474,1.7
3475,1.5
3476,1.5
3477,0.6
3478,-0.7
3479,-1.8
3480,-3.9
3481,-6.2
3482,-8
3483,-9.8
3484,-11.3
3485,-13.1
3486,-14.9
3487,-16.3
3488,-16.9
3489,-17.1
3490,-17.1
3491,-17.2
3492,-16.8
3493,-16.4
3494,-15.6
3495,-14.7
3496,-14.1
3497,-13.3
3498,-11.9
3499,-9.9
3500,-8.2
3501,-6.8
3502,-6.1
3503,-5.1
3504,-4.3
3505,-3.6
3506,-3
3507,-2.4
3508,-1.7
3509,-1.2
3510,-1
3511,-0.9
3512,-0.5
3513,-0.4
3514,-0.4
3515,-0.3
3516,-0.2
3517,0
3518,0
3519,-0.2
3520,0
3521,0.4
3522,0.4
3523,0.4
3524,0.2
3525,0.2
3526,0.3
3527,0.3
3528,0.2
3529,0.2
3530,0.3
3531,0.5
3532,0.4
3533,0.2
3534,0
3535,0.1
3536,0.2
3537,0
3538,0
3539,0.3
3540,0.4
3541,0.5
3542,0.4
3543,0.4
3544,0.4
3545,0.6
3546,0.4
3547,0.5
3548,0.5
3549,0.5
3550,0.6
3551,0.6
3552,0.6
3553,0.7
3554,0.9
3555,0.9
3556,0.9
3557,0.9
3558,0.8
3559,0.7
3560,0.8
3561,0.8
3562,0.8
3563,0.8
3564,0.9
3565,1
3566,0.9
3567,0.7
3568,0.8
3569,1.2
3570,1.2
3571,1.2
3572,1.1
3573,1
3574,1
3575,1
3576,1
3577,1.3
3578,1.3
3579,1.3
3580,1.3
3581,1.6
3582,1.5
3583,1.6
3584,1.7
3585,1.5
3586,1.4
3587,1.3
3588,1.2
3589,1.2
3590,1.6
3591,1.7
3592,1.5
3593,1.4
3594,1.2
3595,1.4
3596,1.6
3597,1.8
3598,2
3599,2
3600,2
3601,1.9
3602,1.9
3603,1.7
3604,1.6
3605,1.4
3606,1.4
3607,1.5
3608,1.6
3609,1.6
3610,1.7
3611,1.7
3612,1.5
3613,1.4
3614,1.3
3615,1.1
3616,1.1
3617,1.1
3618,1.3
3619,1.4
3620,1.4
3621,1.5
3622,1.1
3623,0.9
3624,0.9
3625,0.9
3626,0.8
3627,0.9
3628,0.9
3629,0.8
3630,0.8
3631,0.7
3632,0.7
3633,0.7
3634,0.6
3635,0.6
3636,0.5
3637,0.5
3638,0.6
3639,0.6
3640,0.6
3641,0.6
3642,0.7
3643,0.7
3644,0.9
3645,0.8
3646,0.8
3647,0.8
3648,0.8
3649,0.8
3650,0.7
3651,0.4
3652,0.4
3653,0.4
3654,0.4
3655,0.1
3656,0.2
3657,0.3
3658,0.1
3659,0
3660,0.1
3661,0
3662,0
3663,0.1
3664,0.1
3665,0
3666,-0.1
3667,0
3668,0
3669,0.1
3670,0.2
3671,0
3672,0
3673,0
3674,-0.2
3675,-0.2
3676,-0.3
3677,-0.3
3678,-0.2
3679,-0.2
3680,-0.1
3681,-0.1
3682,-0.1
3683,-0.2
3684,-0.1
3685,-0.1
3686,-0.2
3687,-0.2
3688,0
3689,0
3690,0
3691,-0.1
3692,-0.2
3693,-0.3
3694,-0.2
3695,-0.3
3696,-0.5
3697,-0.3
3698,-0.1
3699,-0.2
3700,-0.2
3701,-0.3
3702,-0.2
3703,0
3704,0.1
3705,0
3706,0
3707,-0.1
3708,-0.2
3709,-0.2
3710,-0.1
3711,0
3712,-0.1
3713,-0.1
3714,-0.1
3715,-0.3
3716,-0.2
3717,0
3718,0.1
3719,0
3720,-0.3
3721,-0.2
3722,-0.1
3723,-0.1
3724,-0.2
3725,-0.3
3726,-0.3
3727,-0.2
3728,-0.2
3729,-0.1
3730,-0.1
3731,-0.1
3732,-0.1
3733,-0.1
3734,-0.1
3735,-0.1
3736,-0.3
3737,-0.3
3738,-0.3
3739,-0.2
3740,-0.1
3741,-0.3
3742,-0.4
3743,-0.2
3744,-0.2
3745,-0.2
3746,-0.3
3747,-0.3
3748,-0.4
3749,-0.3
3750,0
3751,0
3752,-0.1
3753,-0.2
3754,-0.2
3755,-0.4
3756,-0.4
3757,-0.4
3758,-0.1
3759,-0.1
3760,-0.2
3761,-0.3
3762,-0.3
3763,-0.3
3764,-0.3
3765,-0.2
3766,-0.1
3767,-0.2
3768,-0.3
3769,-0.4
3770,-0.3
3771,-0.3
3772,-0.3
3773,-0.3
3774,-0.4
3775,-0.4
3776,-0.4
3777,-0.4
3778,-0.5
3779,-0.5
3780,-0.5
3781,-0.5
3782,-0.5
3783,-0.5
3784,-0.5
3785,-0.4
3786,-0.4
3787,-0.3
3788,-0.4
3789,-0.4
3790,-0.3
3791,-0.5
3792,-0.5
3793,-0.3
3794,-0.2
3795,-0.3
3796,-0.3
3797,-0.5
3798,-0.4
3799,-0.2
3800,-0.5
3801,-0.5
3802,-0.5
3803,-0.4
3804,-0.5
3805,-0.5
3806,-0.5
3807,-0.6
3808,-0.7
3809,-0.6
3810,-0.5
3811,-0.6
3812,-0.6
3813,-0.6
3814,-0.8
3815,-0.7
3816,-0.7
3817,-0.6
3818,-0.5
3819,-0.6
3820,-0.6
3821,-0.6
3822,-0.6
3823,-0.6
3824,-0.7
3825,-0.6
3826,-0.7
3827,-0.7
3828,-0.6
3829,-0.5
3830,-0.5
3831,-0.6
3832,-0.7
3833,-0.6
3834,-0.6
3835,-0.7
3836,-0.6
3837,-0.6
3838,-0.7
3839,-0.8
3840,-0.7
3841,-0.7
3842,-0.7
3843,-0.6
3844,-0.7
3845,-0.7
3846,-0.7
3847,-0.7
3848,-0.8
3849,-0.9
3850,-0.8
3851,-0.8
3852,-0.8
3853,-0.8
3854,-0.7
3855,-0.6
3856,-0.4
3857,-0.2
3858,0
3859,0
3860,0
3861,0.1
3862,0.1
3863,0
3864,-0.1
3865,0
3866,-0.1
3867,-0.2
3868,-0.1
3869,0.1
3870,0
3871,-0.2
3872,-0.1
3873,0
3874,0
3875,-0.1
3876,-0.1
3877,-0.2
3878,-0.4
3879,-0.6
3880,-0.9
3881,-1
3882,-1.1
3883,-1.1
3884,-0.9
3885,-0.7
3886,-0.7
3887,-0.7
3888,-0.9
3889,-0.9
3890,-1
3891,-1
3892,-1
3893,-0.9
3894,-0.9
3895,-0.7
3896,-0.6
3897,-0.8
3898,-0.7
3899,-0.8
3900,-0.7
3901,-0.8
3902,-1
3903,-0.9
3904,-0.8
3905,-0.8
3906,-0.9
3907,-0.9
3908,-0.7
3909,-0.8
3910,-0.7
3911,-0.7
3912,-0.8
3913,-1
3914,-1.2
3915,-1.2
3916,-1
3917,-1
3918,-1.1
3919,-0.9
3920,-0.7
3921,-0.7
3922,-0.7
3923,-0.9
3924,-0.9
3925,-0.6
3926,-0.5
3927,-0.5
3928,-0.6
3929,-0.4
3930,-0.3
3931,0
3932,0.8
3933,1.5
3934,2.1
3935,2.1
3936,2
3937,1.8
3938,1.6
3939,1.2
3940,0
3941,-1.2
3942,-3.1
3943,-5.6
3944,-7.8
3945,-9.7
3946,-11.2
3947,-13.1
3948,-15.1
3949,-16.8
3950,-18
3951,-18.8
3952,-19.1
3953,-19.2
3954,-19.4
3955,-19.4
3956,-19
3957,-18.3
3958,-17.3
3959,-16
3960,-14.2
3961,-12.4
3962,-10.5
3963,-8.8
3964,-7.3
3965,-6
3966,-4.9
3967,-3.8
3968,-3
3969,-2.4
3970,-1.8
3971,-1.3
3972,-1.2
3973,-0.9
3974,-0.7
3975,-0.6
3976,-0.7
3977,-0.5
3978,-0.5
3979,-0.4
3980,-0.3
3981,-0.1
3982,-0.1
3983,-0.2
3984,-0.1
3985,0
3986,0.2
3987,0.2
3988,0.1
3989,0.3
3990,0.4
3991,0.3
3992,0.1
3993,0.3
3994,0.4
3995,0.2
3996,0.3
3997,0.4
3998,0.4
3999,0.4
4000,0.4
4001,0.4
4002,0.3
4003,0.6
4004,0.6
4005,0.5
4006,0.5
4007,0.5
4008,0.4
4009,0.6
4010,0.7
4011,0.7
4012,0.6
4013,0.6
4014,0.4
4015,0.4
4016,0.5
4017,0.7
4018,0.8
4019,0.7
4020,0.7
4021,0.8
4022,1
4023,1
4024,1
4025,1.1
4026,1.2
4027,1.2
4028,1.1
4029,1
4030,0.9
4031,0.9
4032,0.9
4033,1
4034,1.1
4035,1.1
4036,1.2
4037,1.3
4038,1.3
4039,1.4
4040,1.4
4041,1.3
4042,1.3
4043,1.5
4044,1.5
4045,1.5
4046,1.6
4047,1.6
4048,1.7
4049,1.8
4050,1.7
4051,1.6
4052,1.6
4053,1.8
4054,1.9
4055,1.8
4056,1.7
4057,1.7
4058,1.8
4059,2
4060,2.1
4061,2.1
4062,1.9
4063,1.8
4064,1.9
4065,1.9
4066,1.9
4067,1.9
4068,1.9
4069,2
4070,1.8
4071,1.8
4072,1.9
4073,2.1
4074,2
4075,1.8
4076,1.8
4077,1.7
4078,1.8
4079,1.8
4080,1.7
4081,1.6
4082,1.4
4083,1.4
4084,1.6
4085,1.6
4086,1.3
4087,1.4
4088,1.4
4089,1.3
4090,1.3
4091,1.3
4092,1.3
4093,1.1
4094,0.9
4095,0.9
4096,0.9
4097,0.9
4098,0.9
4099,1
4100,1
4101,1
4102,0.9
4103,0.9
4104,0.7
4105,0.6
4106,0.6
4107,0.8
4108,0.8
4109,0.9
4110,0.9
4111,0.8
4112,0.7
4113,0.7
4114,0.7
4115,0.5
4116,0.5
4117,0.6
4118,0.3
4119,0.4
4120,0.4
4121,0.3
4122,0.3
4123,0.4
4124,0.3
4125,0.2
4126,0.2
4127,0.2
4128,0.2
4129,0.2
4130,0.2
4131,0.3
4132,0.3
4133,0.2
4134,0.1
4135,0.1
4136,0
4137,0.2
4138,0.3
4139,0.1
4140,0
4141,0
4142,0
4143,0.1
4144,0.1
4145,0.3
4146,0.1
4147,0
4148,0
4149,0.1
4150,0.2
4151,0
4152,-0.2
4153,-0.1
4154,-0.1
4155,-0.1
4156,-0.1
4157,-0.2
4158,-0.1
4159,-0.1
4160,0
4161,0.1
4162,0.2
4163,0.2
4164,0.1
4165,0
4166,-0.1
4167,0
4168,0
4169,0
4170,0
4171,-0.1
4172,-0.1
4173,-0.1
4174,0.1
4175,0.3
4176,0.2
4177,0.2
4178,0.3
4179,0.3
4180,0
4181,0
4182,0
4183,0.1
4184,0.2
4185,0.1
4186,0.1
4187,0.2
4188,0.1
4189,0.1
4190,0.2
4191,0
4192,0
4193,0.1
4194,0.1
4195,0.1
4196,0.4
4197,0.3
4198,0.3
4199,0.3
4200,0.4
4201,0.3
4202,0.1
4203,0.2
4204,0.2
4205,0.1
4206,0
4207,0
4208,0.2
4209,0.4
4210,0.3
4211,0.2
4212,0.2
4213,0.3
4214,0.3
4215,0.4
4216,0.4
4217,0.3
4218,0.4
4219,0.2
4220,0.2
4221,0.1
4222,0
4223,0.2
4224,0.2
4225,0.2
4226,0.1
4227,0
4228,0.1
4229,0.1
4230,0.1
4231,0.1
4232,0
4233,-0.2
4234,0
4235,0.1
4236,0.1
4237,0
4238,-0.2
4239,-0.3
4240,-0.2
4241,-0.1
4242,-0.1
4243,-0.1
4244,-0.1
4245,-0.1
4246,0
4247,0.1
4248,0.1
4249,0.1
4250,0
4251,-0.1
4252,-0.1
4253,-0.2
4254,-0.3
4255,-0.2
4256,-0.2
4257,-0.2
4258,-0.2
4259,-0.1
4260,-0.1
4261,-0.2
4262,-0.2
4263,-0.1
4264,-0.1
4265,-0.2
4266,-0.2
4267,-0.3
4268,-0.4
4269,-0.4
4270,-0.4
4271,-0.5
4272,-0.5
4273,-0.4
4274,-0.3
4275,-0.5
4276,-0.5
4277,-0.5
4278,-0.7
4279,-0.6
4280,-0.4
4281,-0.3
4282,-0.3
4283,-0.4
4284,-0.4
4285,-0.4
4286,-0.5
4287,-0.5
4288,-0.5
4289,-0.4
4290,-0.4
4291,-0.6
4292,-0.6
4293,-0.8
4294,-0.7
4295,-0.6
4296,-0.7
4297,-0.6
4298,-0.4
4299,-0.2
4300,-0.4
4301,-0.5
4302,-0.5
4303,-0.5
4304,-0.5
4305,-0.5
4306,-0.6
4307,-0.5
4308,-0.5
4309,-0.5
4310,-0.4
4311,-0.4
4312,-0.4
4313,-0.5
4314,-0.3
4315,-0.3
4316,-0.3
4317,-0.5
4318,-0.5
4319,-0.5
4320,-0.4
4321,-0.4
4322,-0.4
4323,-0.2
4324,-0.3
4325,-0.6
4326,-0.6
4327,-0.6
4328,-0.5
4329,-0.4
4330,-0.4
4331,-0.3
4332,0
4333,0.2
4334,0.1
4335,0
4336,0.1
4337,0.1
4338,0.3
4339,0.3
4340,0.3
4341,0.4
4342,0.4
4343,0.3
4344,0
4345,0
4346,0
4347,0
4348,-0.1
4349,-0.6
4350,-1.1
4351,-1.3
4352,-1.2
4353,-0.9
4354,-0.8
4355,-0.9
4356,-1
4357,-1.1
4358,-1.1
4359,-1.2
4360,-1
4361,-1
4362,-1
4363,-0.8
4364,-0.8
4365,-0.8
4366,-0.8
4367,-0.6
4368,-0.6
4369,-0.7
4370,-0.8
4371,-0.9
4372,-0.7
4373,-0.6
4374,-0.6
4375,-0.6
4376,-0.7
4377,-0.8
4378,-0.8
4379,-0.8
4380,-0.8
4381,-0.8
4382,-0.7
4383,-0.7
4384,-0.7
4385,-0.8
4386,-1
4387,-1
4388,-0.9
4389,-1
4390,-0.9
4391,-0.8
4392,-0.9
4393,-1.1
4394,-1.1
4395,-1
4396,-0.8
4397,-0.5
4398,-0.4
4399,-0.4
4400,-0.1
4401,0.5
4402,1.1
4403,1.8
4404,2.1
4405,2.2
4406,2.1
4407,1.8
4408,1.3
4409,0.2
4410,-1
4411,-2.7
4412,-5.4
4413,-7.5
4414,-9.5
4415,-11.3
4416,-13.2
4417,-15.2
4418,-17.2
4419,-18.9
4420,-19.9
4421,-20.2
4422,-20.2
4423,-20.4
4424,-20.4
4425,-19.9
4426,-19.4
4427,-18.4
4428,-17.1
4429,-15.6
4430,-14
4431,-12.2
4432,-9.9
4433,-8
4434,-6.4
4435,-5.3
4436,-4.4
4437,-3.7
4438,-2.9
4439,-2.2
4440,-1.7
4441,-1.3
4442,-1.2
4443,-0.9
4444,-0.7
4445,-0.6
4446,-0.5
4447,-0.3
4448,-0.2
4449,0.2
4450,0.3
4451,0.1
4452,0.1
4453,0.1
4454,0.2
4455,0.2
4456,0.2
4457,0.3
4458,0.2
4459,0.1
4460,0.2
4461,0.2
4462,0.1
4463,0.2
4464,0.3
4465,0.3
4466,0.4
4467,0.5
4468,0.5
4469,0.8
4470,0.8
4471,0.5
4472,0.5
4473,0.6
4474,0.7
4475,0.7
4476,0.7
4477,0.4
4478,0.4
4479,0.4
4480,0.8
4481,1.1
4482,1
4483,0.7
4484,0.6
4485,0.6
4486,0.8
4487,0.7
4488,0.9
4489,1
4490,1
4491,1
4492,1
4493,1.2
4494,1.1
4495,1
4496,1
4497,1.1
4498,1.2
4499,1.2
4500,1.2
4501,1.2
4502,1
4503,1
4504,1.4
4505,1.5
4506,1.5
4507,1.5
4508,1.4
4509,1.5
4510,1.6
4511,1.6
4512,1.6
4513,1.6
4514,1.7
4515,1.6
4516,1.4
4517,1.4
4518,1.4
4519,1.3
4520,1.5
4521,1.6
4522,1.8
4523,1.7
4524,1.6
4525,1.5
4526,1.7
4527,1.7
4528,1.7
4529,1.7
4530,2
4531,2
4532,2.1
4533,2
4534,2
4535,1.8
4536,1.7
4537,1.8
4538,1.9
4539,1.7
4540,1.7
4541,1.8
4542,1.9
4543,1.8
4544,1.8
4545,1.5
4546,1.3
4547,1.4
4548,1.4
4549,1.5
4550,1.5
4551,1.3
4552,1.3
4553,1.3
4554,1.1
4555,1.3
4556,1.3
4557,1.1
4558,1
4559,1
4560,1
4561,1
4562,1
4563,1
4564,0.9
4565,0.7
4566,0.4
4567,0.6
4568,0.7
4569,0.6
4570,0.6
4571,0.7
4572,0.7
4573,0.7
4574,0.5
4575,0.3
4576,0.3
4577,0.2
4578,0.3
4579,0.4
4580,0.4
4581,0.5
4582,0.5
4583,0.4
4584,0.4
4585,0.3
4586,0.3
4587,0.2
4588,0
4589,0
4590,0.1
4591,0.1
4592,0.2
4593,0
4594,0
4595,0
4596,0
4597,0.1
4598,0
4599,0
4600,0
4601,0.1
4602,0.2
4603,0
4604,-0.1
4605,0
4606,-0.3
4607,-0.4
4608,-0.4
4609,-0.2
4610,-0.2
4611,-0.4
4612,-0.4
4613,-0.2
4614,-0.3
4615,-0.4
4616,-0.5
4617,-0.6
4618,-0.5
4619,-0.5
4620,-0.6
4621,-0.3
4622,-0.2
4623,-0.3
4624,-0.4
4625,-0.2
4626,-0.3
4627,-0.4
4628,-0.5
4629,-0.4
4630,-0.3
4631,-0.2
4632,-0.3
4633,-0.5
4634,-0.5
4635,-0.5
4636,-0.5
4637,-0.3
4638,-0.3
4639,-0.3
4640,-0.2
4641,-0.2
4642,-0.4
4643,-0.4
4644,-0.5
4645,-0.4
4646,-0.3
4647,-0.3
4648,-0.2
4649,-0.2
4650,-0.1
4651,-0.1
4652,-0.4
4653,-0.3
4654,-0.2
4655,-0.4
4656,-0.5
4657,-0.2
4658,-0.2
4659,0
4660,0
4661,0
4662,-0.2
4663,-0.2
4664,-0.1
4665,0
4666,0
4667,0
4668,-0.2
4669,-0.2
4670,-0.1
4671,-0.3
4672,-0.2
4673,-0.2
4674,0
4675,0
4676,0
4677,0
4678,-0.2
4679,-0.3
4680,-0.1
4681,0
4682,0
4683,0
4684,0
4685,-0.2
4686,-0.1
4687,-0.1
4688,-0.1
4689,-0.1
4690,0
4691,0
4692,0.1
4693,-0.1
4694,-0.1
4695,-0.1
4696,-0.1
4697,-0.2
4698,-0.4
4699,-0.4
4700,-0.2
4701,0
4702,0
4703,-0.1
4704,-0.2
4705,-0.2
4706,-0.2
4707,-0.2
4708,-0.1
4709,-0.1
4710,0
4711,-0.1
4712,0
4713,-0.2
4714,-0.5
4715,-0.4
4716,-0.4
4717,-0.3
4718,-0.3
4719,-0.2
4720,-0.2
4721,-0.1
4722,-0.1
4723,-0.1
4724,-0.1
4725,-0.3
4726,-0.4
4727,-0.5
4728,-0.6
4729,-0.6
4730,-0.6
4731,-0.5
4732,-0.6
4733,-0.5
4734,-0.6
4735,-0.6
4736,-0.4
4737,-0.3
4738,-0.4
4739,-0.6
4740,-0.5
4741,-0.5
4742,-0.6
4743,-0.5
4744,-0.4
4745,-0.5
4746,-0.6
4747,-0.4
4748,-0.5
4749,-0.6
4750,-0.6
4751,-0.7
4752,-0.7
4753,-0.6
4754,-0.6
4755,-0.7
4756,-0.3
4757,-0.1
4758,-0.2
4759,-0.4
4760,-0.6
4761,-0.7
4762,-0.6
4763,-0.7
4764,-0.7
4765,-0.7
4766,-0.6
4767,-0.7
4768,-0.7
4769,-0.7
4770,-0.6
4771,-0.6
4772,-0.6
4773,-0.8
4774,-0.6
4775,-0.5
4776,-0.7
4777,-0.6
4778,-0.6
4779,-0.5
4780,-0.5
4781,-0.5
4782,-0.4
4783,-0.6
4784,-0.9
4785,-0.9
4786,-0.8
4787,-0.6
4788,-0.6
4789,-0.8
4790,-0.7
4791,-0.7
4792,-0.9
4793,-1
4794,-0.7
4795,-0.7
4796,-0.7
4797,-0.7
4798,-0.5
4799,-0.5
4800,-0.5
4801,-0.4
4802,-0.3
4803,-0.3
4804,-0.1
4805,0.1
4806,0.1
4807,0.1
4808,0.1
4809,0.1
4810,0.2
4811,0.1
4812,0
4813,-0.1
4814,-0.1
4815,-0.2
4816,-0.4
4817,-0.1
4818,-0.2
4819,-0.5
4820,-0.8
4821,-1.1
4822,-1.5
4823,-1.7
4824,-1.5
4825,-1.5
4826,-1.3
4827,-1.3
4828,-1.2
4829,-1.4
4830,-1.4
4831,-1.6
4832,-1.6
4833,-1.4
4834,-1.4
4835,-1.3
4836,-1.2
4837,-1.2
4838,-1.2
4839,-1.3
4840,-1.3
4841,-1.5
4842,-1.4
4843,-1.1
4844,-1.1
4845,-1.3
4846,-1.3
4847,-1.1
4848,-1.2
4849,-1.3
4850,-1.1
4851,-1
4852,-1
4853,-1.1
4854,-1.1
4855,-1
4856,-0.9
4857,-1.1
4858,-1
4859,-0.7
4860,-0.8
4861,-1
4862,-1
4863,-0.7
4864,-0.8
4865,-0.9
4866,-0.8
4867,-0.8
4868,-0.7
4869,-0.3
4870,0
4871,0.2
4872,0.9
4873,1.5
4874,1.7
4875,1.5
4876,1.2
4877,1
4878,0.8
4879,0
4880,-1.1
4881,-2.4
4882,-4.4
4883,-6.3
4884,-8.6
4885,-10.4
4886,-12.4
4887,-14.3
4888,-16.2
4889,-17.8
4890,-18.8
4891,-19.4
4892,-19.6
4893,-19.8
4894,-19.8
4895,-19.7
4896,-19.3
4897,-18.3
4898,-17.1
4899,-15.7
4900,-14.1
4901,-12.8
4902,-10.6
4903,-8.6
4904,-6.9
4905,-5.8
4906,-4.6
4907,-3.6
4908,-3.2
4909,-2.6
4910,-1.9
4911,-1.5
4912,-1.1
4913,-1.1
4914,-1.1
4915,-1
4916,-0.6
4917,-0.4
4918,-0.4
4919,-0.3
4920,-0.1
4921,0
4922,0
4923,-0.1
4924,-0.2
4925,-0.2
4926,-0.2
4927,-0.1
4928,-0.1
4929,-0.2
4930,0
4931,0.1
4932,0.1
4933,0.2
4934,0
4935,0
4936,0
4937,-0.1
4938,-0.1
4939,0.1
4940,0.4
4941,0.4
4942,0.3
4943,0.3
4944,0.4
4945,0.2
4946,0.2
4947,0.3
4948,0.4
4949,0.4
4950,0.4
4951,0.2
4952,0.3
4953,0.3
4954,0.6
4955,0.7
4956,0.7
4957,0.7
4958,0.8
4959,0.8
4960,1
4961,0.9
4962,0.8
4963,0.8
4964,0.8
4965,0.8
4966,0.9
4967,1.2
4968,1.2
4969,1.1
4970,1.2
4971,1.3
4972,0.9
4973,1
4974,1.2
4975,1.3
4976,1.2
4977,1
4978,1
4979,1.1
4980,1.1
4981,1.1
4982,1.2
4983,1.3
4984,1.4
4985,1.3
4986,1.3
4987,1.5
4988,1.6
4989,1.4
4990,1.4
4991,1.4
4992,1.3
4993,1.4
4994,1.5
4995,1.3
4996,1.2
4997,1.4
4998,1.6
4999,1.6
5000,1.7
