TS,Reading,Flag,TS2,Reading2,Flag2
1,13,5,2000,15,5
2,14,5,2001,15,5
3,14,5,2002,13,5
4,15,5,2003,16,5
5,16,5,2004,19,5
6,16,5,2005,19,5
7,14,5,2006,19,5
8,11,5,2007,19,5
9,11,5,2008,19,5
10,13,5,2009,19,5
11,12,5,2010,17,5
12,12,5,2011,15,5
13,13,5,2012,15,5
14,13,5,2013,15,5
15,13,5,2014,16,5
16,13,5,2015,15,5
17,15,5,2016,14,5
18,17,5,2017,14,5
19,17,5,2018,14,5
20,16,5,2019,15,5
21,15,5,2020,16,5
22,15,5,2021,13,5
23,13,5,2022,12,5
24,8,5,2023,12,5
25,8,5,2024,13,5
26,12,5,2025,14,5
27,12,5,2026,12,5
28,11,5,2027,12,5
29,12,5,2028,12,5
30,11,5,2029,9,5
31,12,5,2030,6,5
32,12,5,2031,7,5
33,16,5,2032,12,5
34,18,5,2033,16,5
35,15,5,2034,17,5
36,15,5,2035,14,5
37,14,5,2036,13,5
38,10,5,2037,14,5
39,6,5,2038,16,5
40,4,5,2039,19,5
41,4,5,2040,18,5
42,8,5,2041,17,5
43,11,5,2042,17,5
44,12,5,2043,14,5
45,13,5,2044,11,5
46,14,5,2045,8,5
47,14,5,2046,10,5
48,12,5,2047,13,5
49,11,5,2048,16,5
50,13,5,2049,17,5
51,15,5,2050,17,5
52,15,5,2051,18,5
53,12,5,2052,18,5
54,11,5,2053,15,5
55,11,5,2054,13,5
56,11,5,2055,13,5
57,9,5,2056,15,5
58,9,5,2057,17,5
59,12,5,2058,18,5
60,14,5,2059,17,5
61,12,5,2060,15,5
62,11,5,2061,16,5
63,7,5,2062,18,5
64,5,5,2063,18,5
65,6,5,2064,16,5
66,6,5,2065,16,5
67,6,5,2066,16,5
68,1,5,2067,16,5
69,0,5,2068,17,5
70,1,5,2069,19,5
71,1,5,2070,17,5
72,1,5,2071,13,5
73,-1,5,2072,13,5
74,-5,5,2073,13,5
75,-6,5,2074,15,5
76,-4,5,2075,14,5
77,-3,5,2076,11,5
78,-1,5,2077,10,5
79,-2,5,2078,11,5
80,-4,5,2079,12,5
81,-4,5,2080,11,5
82,-1,5,2081,11,5
83,0,5,2082,11,5
84,-1,5,2083,12,5
85,0,5,2084,14,5
86,1,5,2085,16,5
87,1,5,2086,14,5
88,1,5,2087,15,5
89,0,5,2088,18,5
90,-1,5,2089,16,5
91,-2,5,2090,14,5
92,-5,5,2091,13,5
93,-7,5,2092,14,5
94,-6,5,2093,13,5
95,-3,5,2094,11,5
96,-1,5,2095,11,5
97,-2,5,2096,10,5
98,-3,5,2097,9,5
99,-4,5,2098,11,5
100,-2,5,2099,12,5
101,0,5,2100,11,5
102,2,5,2101,11,5
103,2,5,2102,11,5
104,3,5,2103,11,5
105,3,5,2104,11,5
106,5,5,2105,10,5
107,7,5,2106,8,5
108,8,5,2107,9,5
109,8,5,2108,9,5
110,9,5,2109,8,5
111,8,5,2110,5,5
112,12,5,2111,4,5
113,16,5,2112,4,5
114,16,5,2113,1,5
115,15,5,2114,-1,5
116,14,5,2115,1,5
117,12,5,2116,3,5
118,10,5,2117,0,5
119,9,5,2118,-1,5
120,9,5,2119,-2,5
121,9,5,2120,-3,5
122,10,5,2121,-4,5
123,10,5,2122,-3,5
124,9,5,2123,-1,5
125,9,5,2124,2,5
126,12,5,2125,1,5
127,13,5,2126,-1,5
128,14,5,2127,-5,5
129,15,5,2128,-8,5
130,16,5,2129,-8,5
131,17,5,2130,-6,5
132,18,5,2131,1,5
133,17,5,2132,5,5
134,17,5,2133,7,5
135,17,5,2134,9,5
136,15,5,2135,10,5
137,14,5,2136,11,5
138,12,5,2137,14,5
139,11,5,2138,15,5
140,13,5,2139,15,5
141,15,5,2140,13,5
142,10,5,2141,11,5
143,6,5,2142,11,5
144,2,5,2143,12,5
145,-5,5,2144,16,5
146,-16,5,2145,16,5
147,-24,5,2146,14,5
148,-34,5,2147,15,5
149,-47,5,2148,15,5
150,-61,5,2149,16,5
151,-68,5,2150,14,5
152,-68,5,2151,13,5
153,-68,5,2152,16,5
154,-68,5,2153,17,5
155,-68,5,2154,17,5
156,-68,5,2155,20,5
157,-68,5,2156,20,5
158,-68,5,2157,20,5
159,-68,5,2158,20,5
160,-51,5,2159,19,5
161,-32,5,2160,17,5
162,-14,5,2161,15,5
163,0,5,2162,16,5
164,9,5,2163,19,5
165,13,5,2164,20,5
166,14,5,2165,20,5
167,15,5,2166,15,5
168,14,5,2167,12,5
169,13,5,2168,14,5
170,13,5,2169,15,5
171,14,5,2170,16,5
172,13,5,2171,17,5
173,12,5,2172,15,5
174,10,5,2173,13,5
175,7,5,2174,8,5
176,9,5,2175,3,5
177,17,5,2176,-2,5
178,20,5,2177,-7,5
179,20,5,2178,-14,5
180,20,5,2179,-24,5
181,18,5,2180,-36,5
182,17,5,2181,-55,5
183,16,5,2182,-68,5
184,16,5,2183,-68,5
185,17,5,2184,-68,5
186,15,5,2185,-68,5
187,11,5,2186,-68,5
188,11,5,2187,-68,5
189,12,5,2188,-68,5
190,12,5,2189,-68,5
191,13,5,2190,-68,5
192,14,5,2191,-68,5
193,15,5,2192,-55,5
194,17,5,2193,-36,5
195,18,5,2194,-21,5
196,16,5,2195,-11,5
197,16,5,2196,-4,5
198,17,5,2197,1,5
199,19,5,2198,3,5
200,16,5,2199,8,5
201,15,5,2200,12,5
202,16,5,2201,13,5
203,14,5,2202,13,5
204,14,5,2203,12,5
205,13,5,2204,13,5
206,12,5,2205,14,5
207,13,5,2206,11,5
208,14,5,2207,9,5
209,12,5,2208,8,5
210,13,5,2209,7,5
211,12,5,2210,6,5
212,11,5,2211,7,5
213,11,5,2212,8,5
214,11,5,2213,8,5
215,12,5,2214,9,5
216,15,5,2215,10,5
217,15,5,2216,10,5
218,14,5,2217,10,5
219,17,5,2218,12,5
220,18,5,2219,12,5
221,20,5,2220,8,5
222,20,5,2221,7,5
223,20,5,2222,7,5
224,20,5,2223,7,5
225,20,5,2224,8,5
226,20,5,2225,10,5
227,20,5,2226,10,5
228,20,5,2227,10,5
229,20,5,2228,12,5
230,20,5,2229,14,5
231,20,5,2230,12,5
232,20,5,2231,10,5
233,20,5,2232,7,5
234,20,5,2233,7,5
235,19,5,2234,7,5
236,17,5,2235,6,5
237,14,5,2236,9,5
238,12,5,2237,10,5
239,12,5,2238,11,5
240,14,5,2239,12,5
241,14,5,2240,10,5
242,14,5,2241,9,5
243,11,5,2242,10,5
244,10,5,2243,12,5
245,11,5,2244,12,5
246,11,5,2245,9,5
247,9,5,2246,8,5
248,11,5,2247,7,5
249,13,5,2248,9,5
250,15,5,2249,13,5
251,16,5,2250,15,5
252,15,5,2251,16,5
253,15,5,2252,12,5
254,14,5,2253,9,5
255,9,5,2254,9,5
256,8,5,2255,12,5
257,9,5,2256,11,5
258,10,5,2257,11,5
259,10,5,2258,9,5
260,9,5,2259,10,5
261,8,5,2260,13,5
262,7,5,2261,16,5
263,8,5,2262,15,5
264,8,5,2263,10,5
265,6,5,2264,7,5
266,5,5,2265,6,5
267,4,5,2266,4,5
268,0,5,2267,3,5
269,-3,5,2268,3,5
270,-4,5,2269,4,5
271,-6,5,2270,6,5
272,-4,5,2271,7,5
273,0,5,2272,9,5
274,4,5,2273,10,5
275,4,5,2274,11,5
276,3,5,2275,12,5
277,0,5,2276,14,5
278,-1,5,2277,15,5
279,0,5,2278,15,5
280,1,5,2279,12,5
281,1,5,2280,8,5
282,0,5,2281,5,5
283,0,5,2282,4,5
284,0,5,2283,2,5
285,0,5,2284,2,5
286,-4,5,2285,3,5
287,-6,5,2286,3,5
288,-7,5,2287,2,5
289,-7,5,2288,2,5
290,-7,5,2289,2,5
291,-11,5,2290,5,5
292,-13,5,2291,5,5
293,-12,5,2292,4,5
294,-11,5,2293,4,5
295,-11,5,2294,1,5
296,-10,5,2295,-1,5
297,-8,5,2296,-2,5
298,-4,5,2297,-3,5
299,-2,5,2298,-4,5
300,-1,5,2299,-6,5
301,-3,5,2300,-5,5
302,-5,5,2301,-3,5
303,-6,5,2302,-2,5
304,-5,5,2303,-4,5
305,-4,5,2304,-6,5
306,-3,5,2305,-5,5
307,-6,5,2306,-4,5
308,-7,5,2307,-4,5
309,-10,5,2308,-3,5
310,-13,5,2309,-3,5
311,-12,5,2310,-4,5
312,-9,5,2311,-5,5
313,-6,5,2312,-7,5
314,-5,5,2313,-9,5
315,-4,5,2314,-13,5
316,-2,5,2315,-15,5
317,0,5,2316,-15,5
318,-1,5,2317,-16,5
319,-1,5,2318,-14,5
320,-1,5,2319,-12,5
321,0,5,2320,-14,5
322,2,5,2321,-17,5
323,4,5,2322,-17,5
324,6,5,2323,-18,5
325,7,5,2324,-22,5
326,8,5,2325,-23,5
327,10,5,2326,-22,5
328,10,5,2327,-19,5
329,12,5,2328,-17,5
330,14,5,2329,-20,5
331,17,5,2330,-23,5
332,19,5,2331,-23,5
333,18,5,2332,-23,5
334,16,5,2333,-24,5
335,13,5,2334,-25,5
336,11,5,2335,-26,5
337,9,5,2336,-24,5
338,10,5,2337,-24,5
339,12,5,2338,-26,5
340,14,5,2339,-26,5
341,13,5,2340,-23,5
342,9,5,2341,-20,5
343,12,5,2342,-16,5
344,15,5,2343,-18,5
345,18,5,2344,-17,5
346,20,5,2345,-13,5
347,20,5,2346,-11,5
348,20,5,2347,-11,5
349,20,5,2348,-11,5
350,20,5,2349,-13,5
351,20,5,2350,-11,5
352,20,5,2351,-6,5
353,20,5,2352,-4,5
354,18,5,2353,-4,5
355,17,5,2354,-3,5
356,20,5,2355,-2,5
357,20,5,2356,-3,5
358,20,5,2357,-4,5
359,20,5,2358,-4,5
360,20,5,2359,-3,5
361,20,5,2360,-3,5
362,20,5,2361,-4,5
363,20,5,2362,-2,5
364,20,5,2363,0,5
365,20,5,2364,5,5
366,20,5,2365,11,5
367,20,5,2366,13,5
368,18,5,2367,14,5
369,18,5,2368,14,5
370,19,5,2369,12,5
371,20,5,2370,9,5
372,20,5,2371,6,5
373,20,5,2372,4,5
374,20,5,2373,4,5
375,20,5,2374,4,5
376,20,5,2375,5,5
377,20,5,2376,6,5
378,20,5,2377,7,5
379,20,5,2378,8,5
380,17,5,2379,8,5
381,18,5,2380,7,5
382,20,5,2381,7,5
383,19,5,2382,6,5
384,19,5,2383,7,5
385,18,5,2384,11,5
386,17,5,2385,14,5
387,18,5,2386,11,5
388,19,5,2387,10,5
389,18,5,2388,12,5
390,18,5,2389,14,5
391,16,5,2390,13,5
392,16,5,2391,13,5
393,17,5,2392,13,5
394,18,5,2393,10,5
395,16,5,2394,7,5
396,14,5,2395,6,5
397,15,5,2396,7,5
398,18,5,2397,9,5
399,19,5,2398,15,5
400,17,5,2399,17,5
401,16,5,2400,19,5
402,15,5,2401,17,5
403,14,5,2402,15,5
404,15,5,2403,14,5
405,16,5,2404,12,5
406,16,5,2405,12,5
407,15,5,2406,13,5
408,16,5,2407,15,5
409,19,5,2408,15,5
410,20,5,2409,12,5
411,20,5,2410,12,5
412,19,5,2411,13,5
413,19,5,2412,15,5
414,19,5,2413,16,5
415,17,5,2414,14,5
416,18,5,2415,12,5
417,18,5,2416,10,5
418,14,5,2417,8,5
419,8,5,2418,7,5
420,7,5,2419,5,5
421,9,5,2420,7,5
422,13,5,2421,9,5
423,16,5,2422,11,5
424,17,5,2423,11,5
425,18,5,2424,13,5
426,18,5,2425,15,5
427,18,5,2426,14,5
428,16,5,2427,12,5
429,19,5,2428,9,5
430,20,5,2429,11,5
431,20,5,2430,11,5
432,18,5,2431,13,5
433,15,5,2432,15,5
434,15,5,2433,15,5
435,16,5,2434,15,5
436,14,5,2435,13,5
437,12,5,2436,10,5
438,11,5,2437,9,5
439,14,5,2438,9,5
440,15,5,2439,7,5
441,17,5,2440,8,5
442,20,5,2441,12,5
443,20,5,2442,14,5
444,20,5,2443,10,5
445,20,5,2444,8,5
446,20,5,2445,9,5
447,17,5,2446,10,5
448,15,5,2447,13,5
449,15,5,2448,12,5
450,17,5,2449,11,5
451,16,5,2450,9,5
452,15,5,2451,10,5
453,13,5,2452,10,5
454,13,5,2453,12,5
455,16,5,2454,11,5
456,19,5,2455,10,5
457,20,5,2456,8,5
458,20,5,2457,5,5
459,20,5,2458,5,5
460,19,5,2459,7,5
461,20,5,2460,11,5
462,20,5,2461,15,5
463,20,5,2462,18,5
464,20,5,2463,18,5
465,20,5,2464,20,5
466,20,5,2465,19,5
467,19,5,2466,14,5
468,16,5,2467,10,5
469,15,5,2468,8,5
470,15,5,2469,6,5
471,16,5,2470,4,5
472,16,5,2471,4,5
473,15,5,2472,5,5
474,14,5,2473,6,5
475,14,5,2474,7,5
476,15,5,2475,9,5
477,15,5,2476,12,5
478,14,5,2477,17,5
479,13,5,2478,20,5
480,14,5,2479,19,5
481,14,5,2480,17,5
482,15,5,2481,13,5
483,15,5,2482,13,5
484,15,5,2483,11,5
485,17,5,2484,11,5
486,17,5,2485,9,5
487,17,5,2486,8,5
488,18,5,2487,10,5
489,18,5,2488,11,5
490,17,5,2489,10,5
491,16,5,2490,11,5
492,15,5,2491,10,5
493,19,5,2492,10,5
494,18,5,2493,11,5
495,16,5,2494,9,5
496,12,5,2495,8,5
497,10,5,2496,8,5
498,13,5,2497,11,5
499,16,5,2498,14,5
500,19,5,2499,13,5
501,20,5,2500,14,5
502,19,5,2501,17,5
503,18,5,2502,15,5
504,18,5,2503,16,5
505,18,5,2504,17,5
506,20,5,2505,17,5
507,20,5,2506,19,5
508,20,5,2507,17,5
509,20,5,2508,15,5
510,17,5,2509,12,5
511,15,5,2510,10,5
512,15,5,2511,11,5
513,15,5,2512,11,5
514,16,5,2513,10,5
515,17,5,2514,9,5
516,16,5,2515,8,5
517,16,5,2516,8,5
518,14,5,2517,11,5
519,13,5,2518,14,5
520,14,5,2519,14,5
521,15,5,2520,11,5
522,14,5,2521,10,5
523,12,5,2522,8,5
524,9,5,2523,6,5
525,8,5,2524,6,5
526,11,5,2525,12,5
527,14,5,2526,16,5
528,16,5,2527,15,5
529,16,5,2528,15,5
530,15,5,2529,14,5
531,15,5,2530,13,5
532,12,5,2531,12,5
533,10,5,2532,11,5
534,12,5,2533,9,5
535,16,5,2534,7,5
536,19,5,2535,10,5
537,18,5,2536,10,5
538,17,5,2537,8,5
539,20,5,2538,7,5
540,20,5,2539,11,5
541,20,5,2540,12,5
542,19,5,2541,10,5
543,19,5,2542,8,5
544,20,5,2543,8,5
545,18,5,2544,11,5
546,17,5,2545,12,5
547,17,5,2546,11,5
548,17,5,2547,9,5
549,16,5,2548,8,5
550,17,5,2549,6,5
551,16,5,2550,3,5
552,16,5,2551,1,5
553,13,5,2552,3,5
554,12,5,2553,7,5
555,13,5,2554,8,5
556,16,5,2555,5,5
557,14,5,2556,5,5
558,13,5,2557,7,5
559,11,5,2558,7,5
560,9,5,2559,6,5
561,11,5,2560,5,5
562,13,5,2561,5,5
563,13,5,2562,9,5
564,14,5,2563,9,5
565,17,5,2564,9,5
566,18,5,2565,9,5
567,16,5,2566,8,5
568,15,5,2567,6,5
569,14,5,2568,4,5
570,14,5,2569,1,5
571,13,5,2570,-1,5
572,13,5,2571,-1,5
573,14,5,2572,0,5
574,13,5,2573,0,5
575,15,5,2574,3,5
576,13,5,2575,3,5
577,9,5,2576,2,5
578,9,5,2577,3,5
579,10,5,2578,4,5
580,10,5,2579,5,5
581,11,5,2580,5,5
582,10,5,2581,3,5
583,7,5,2582,2,5
584,5,5,2583,4,5
585,4,5,2584,6,5
586,5,5,2585,5,5
587,5,5,2586,5,5
588,2,5,2587,6,5
589,-1,5,2588,6,5
590,1,5,2589,5,5
591,3,5,2590,5,5
592,4,5,2591,4,5
593,6,5,2592,5,5
594,8,5,2593,4,5
595,9,5,2594,3,5
596,7,5,2595,4,5
597,3,5,2596,7,5
598,1,5,2597,9,5
599,0,5,2598,11,5
600,-1,5,2599,12,5
601,-2,5,2600,14,5
602,-2,5,2601,14,5
603,-3,5,2602,12,5
604,-1,5,2603,12,5
605,-1,5,2604,14,5
606,-1,5,2605,13,5
607,0,5,2606,9,5
608,0,5,2607,6,5
609,2,5,2608,7,5
610,1,5,2609,9,5
611,1,5,2610,11,5
612,3,5,2611,12,5
613,3,5,2612,13,5
614,4,5,2613,15,5
615,8,5,2614,15,5
616,12,5,2615,14,5
617,12,5,2616,12,5
618,13,5,2617,10,5
619,15,5,2618,9,5
620,17,5,2619,9,5
621,18,5,2620,8,5
622,18,5,2621,8,5
623,16,5,2622,9,5
624,17,5,2623,9,5
625,17,5,2624,9,5
626,19,5,2625,7,5
627,20,5,2626,5,5
628,20,5,2627,4,5
629,20,5,2628,8,5
630,20,5,2629,11,5
631,20,5,2630,9,5
632,20,5,2631,6,5
633,20,5,2632,6,5
634,20,5,2633,6,5
635,20,5,2634,7,5
636,20,5,2635,9,5
637,17,5,2636,9,5
638,19,5,2637,10,5
639,18,5,2638,11,5
640,17,5,2639,12,5
641,17,5,2640,13,5
642,17,5,2641,13,5
643,16,5,2642,14,5
644,15,5,2643,14,5
645,15,5,2644,16,5
646,17,5,2645,15,5
647,16,5,2646,15,5
648,15,5,2647,17,5
649,16,5,2648,20,5
650,16,5,2649,20,5
651,17,5,2650,20,5
652,17,5,2651,20,5
653,12,5,2652,20,5
654,6,5,2653,20,5
655,1,5,2654,20,5
656,-7,5,2655,20,5
657,-17,5,2656,20,5
658,-29,5,2657,20,5
659,-43,5,2658,20,5
660,-61,5,2659,20,5
661,-68,5,2660,20,5
662,-68,5,2661,20,5
663,-68,5,2662,20,5
664,-68,5,2663,20,5
665,-68,5,2664,20,5
666,-68,5,2665,20,5
667,-68,5,2666,20,5
668,-68,5,2667,20,5
669,-68,5,2668,20,5
670,-68,5,2669,20,5
671,-48,5,2670,20,5
672,-28,5,2671,20,5
673,-13,5,2672,20,5
674,-3,5,2673,20,5
675,1,5,2674,20,5
676,4,5,2675,20,5
677,7,5,2676,20,5
678,10,5,2677,20,5
679,8,5,2678,20,5
680,10,5,2679,20,5
681,11,5,2680,20,5
682,8,5,2681,20,5
683,6,5,2682,20,5
684,6,5,2683,20,5
685,9,5,2684,20,5
686,11,5,2685,20,5
687,14,5,2686,18,5
688,16,5,2687,3,5
689,17,5,2688,-11,5
690,17,5,2689,-22,5
691,16,5,2690,-36,5
692,17,5,2691,-55,5
693,17,5,2692,-68,5
694,14,5,2693,-68,5
695,10,5,2694,-68,5
696,9,5,2695,-68,5
697,9,5,2696,-68,5
698,10,5,2697,-68,5
699,10,5,2698,-68,5
700,10,5,2699,-53,5
701,10,5,2700,-33,5
702,12,5,2701,-14,5
703,13,5,2702,0,5
704,14,5,2703,11,5
705,13,5,2704,20,5
706,13,5,2705,20,5
707,14,5,2706,20,5
708,14,5,2707,20,5
709,18,5,2708,20,5
710,20,5,2709,20,5
711,19,5,2710,20,5
712,17,5,2711,20,5
713,15,5,2712,20,5
714,15,5,2713,20,5
715,14,5,2714,20,5
716,11,5,2715,20,5
717,11,5,2716,20,5
718,11,5,2717,20,5
719,11,5,2718,20,5
720,10,5,2719,20,5
721,12,5,2720,20,5
722,13,5,2721,20,5
723,11,5,2722,20,5
724,9,5,2723,20,5
725,6,5,2724,20,5
726,6,5,2725,20,5
727,11,5,2726,20,5
728,14,5,2727,20,5
729,16,5,2728,20,5
730,16,5,2729,20,5
731,15,5,2730,20,5
732,16,5,2731,20,5
733,18,5,2732,20,5
734,16,5,2733,20,5
735,14,5,2734,20,5
736,14,5,2735,20,5
737,13,5,2736,20,5
738,14,5,2737,20,5
739,14,5,2738,20,5
740,12,5,2739,20,5
741,11,5,2740,20,5
742,11,5,2741,20,5
743,12,5,2742,20,5
744,9,5,2743,20,5
745,10,5,2744,20,5
746,9,5,2745,20,5
747,8,5,2746,20,5
748,6,5,2747,20,5
749,9,5,2748,20,5
750,11,5,2749,20,5
751,15,5,2750,20,5
752,16,5,2751,20,5
753,14,5,2752,20,5
754,14,5,2753,20,5
755,14,5,2754,20,5
756,14,5,2755,20,5
757,12,5,2756,20,5
758,12,5,2757,20,5
759,12,5,2758,20,5
760,11,5,2759,20,5
761,11,5,2760,20,5
762,11,5,2761,20,5
763,13,5,2762,20,5
764,13,5,2763,20,5
765,10,5,2764,20,5
766,9,5,2765,20,5
767,8,5,2766,20,5
768,7,5,2767,20,5
769,4,5,2768,20,5
770,2,5,2769,20,5
771,2,5,2770,20,5
772,3,5,2771,20,5
773,2,5,2772,20,5
774,0,5,2773,20,5
775,1,5,2774,20,5
776,2,5,2775,20,5
777,0,5,2776,20,5
778,-3,5,2777,20,5
779,-4,5,2778,20,5
780,-3,5,2779,20,5
781,0,5,2780,20,5
782,0,5,2781,20,5
783,-4,5,2782,20,5
784,-7,5,2783,20,5
785,-6,5,2784,20,5
786,-4,5,2785,20,5
787,-2,5,2786,20,5
788,-3,5,2787,20,5
789,-3,5,2788,20,5
790,-4,5,2789,20,5
791,-4,5,2790,20,5
792,-8,5,2791,20,5
793,-12,5,2792,20,5
794,-15,5,2793,20,5
795,-17,5,2794,19,5
796,-18,5,2795,19,5
797,-15,5,2796,18,5
798,-15,5,2797,17,5
799,-16,5,2798,16,5
800,-16,5,2799,14,5
801,-13,5,2800,12,5
802,-12,5,2801,10,5
803,-11,5,2802,11,5
804,-11,5,2803,10,5
805,-12,5,2804,9,5
806,-13,5,2805,12,5
807,-14,5,2806,13,5
808,-14,5,2807,11,5
809,-11,5,2808,8,5
810,-10,5,2809,7,5
811,-12,5,2810,5,5
812,-13,5,2811,5,5
813,-15,5,2812,5,5
814,-16,5,2813,6,5
815,-15,5,2814,7,5
816,-14,5,2815,5,5
817,-14,5,2816,5,5
818,-14,5,2817,7,5
819,-14,5,2818,8,5
820,-15,5,2819,6,5
821,-17,5,2820,4,5
822,-16,5,2821,2,5
823,-13,5,2822,0,5
824,-11,5,2823,-2,5
825,-11,5,2824,-2,5
826,-10,5,2825,-1,5
827,-10,5,2826,0,5
828,-11,5,2827,0,5
829,-12,5,2828,0,5
830,-8,5,2829,-2,5
831,-2,5,2830,-5,5
832,0,5,2831,-2,5
833,1,5,2832,-2,5
834,2,5,2833,-4,5
835,2,5,2834,-5,5
836,2,5,2835,-5,5
837,0,5,2836,-6,5
838,0,5,2837,-8,5
839,0,5,2838,-10,5
840,0,5,2839,-11,5
841,-1,5,2840,-12,5
842,1,5,2841,-13,5
843,6,5,2842,-14,5
844,10,5,2843,-13,5
845,14,5,2844,-11,5
846,17,5,2845,-11,5
847,17,5,2846,-11,5
848,16,5,2847,-13,5
849,15,5,2848,-11,5
850,14,5,2849,-6,5
851,13,5,2850,-3,5
852,13,5,2851,0,5
853,13,5,2852,1,5
854,13,5,2853,1,5
855,14,5,2854,0,5
856,15,5,2855,-1,5
857,15,5,2856,-1,5
858,13,5,2857,0,5
859,12,5,2858,1,5
860,11,5,2859,3,5
861,11,5,2860,5,5
862,14,5,2861,6,5
863,13,5,2862,7,5
864,12,5,2863,8,5
865,14,5,2864,6,5
866,16,5,2865,3,5
867,15,5,2866,3,5
868,14,5,2867,8,5
869,13,5,2868,13,5
870,10,5,2869,13,5
871,9,5,2870,12,5
872,12,5,2871,16,5
873,12,5,2872,17,5
874,8,5,2873,16,5
875,8,5,2874,18,5
876,13,5,2875,20,5
877,15,5,2876,20,5
878,16,5,2877,20,5
879,17,5,2878,18,5
880,17,5,2879,17,5
881,15,5,2880,17,5
882,15,5,2881,15,5
883,13,5,2882,15,5
884,14,5,2883,16,5
885,15,5,2884,19,5
886,14,5,2885,20,5
887,13,5,2886,20,5
888,13,5,2887,19,5
889,13,5,2888,18,5
890,13,5,2889,17,5
891,11,5,2890,18,5
892,12,5,2891,20,5
893,11,5,2892,20,5
894,10,5,2893,20,5
895,10,5,2894,20,5
896,10,5,2895,20,5
897,9,5,2896,20,5
898,7,5,2897,20,5
899,9,5,2898,20,5
900,12,5,2899,20,5
901,14,5,2900,20,5
902,18,5,2901,20,5
903,18,5,2902,20,5
904,16,5,2903,20,5
905,11,5,2904,20,5
906,10,5,2905,20,5
907,12,5,2906,20,5
908,12,5,2907,20,5
909,10,5,2908,20,5
910,8,5,2909,20,5
911,9,5,2910,20,5
912,10,5,2911,20,5
913,11,5,2912,19,5
914,12,5,2913,16,5
915,13,5,2914,17,5
916,13,5,2915,20,5
917,11,5,2916,20,5
918,11,5,2917,20,5
919,14,5,2918,20,5
920,14,5,2919,20,5
921,12,5,2920,20,5
922,12,5,2921,19,5
923,12,5,2922,18,5
924,13,5,2923,18,5
925,14,5,2924,17,5
926,15,5,2925,14,5
927,13,5,2926,14,5
928,9,5,2927,16,5
929,8,5,2928,19,5
930,8,5,2929,20,5
931,7,5,2930,20,5
932,7,5,2931,20,5
933,5,5,2932,19,5
934,6,5,2933,18,5
935,7,5,2934,17,5
936,6,5,2935,15,5
937,6,5,2936,13,5
938,6,5,2937,12,5
939,7,5,2938,11,5
940,11,5,2939,12,5
941,14,5,2940,14,5
942,15,5,2941,15,5
943,15,5,2942,15,5
944,14,5,2943,15,5
945,15,5,2944,16,5
946,14,5,2945,15,5
947,12,5,2946,15,5
948,13,5,2947,14,5
949,12,5,2948,13,5
950,10,5,2949,10,5
951,10,5,2950,7,5
952,9,5,2951,3,5
953,9,5,2952,2,5
954,10,5,2953,7,5
955,10,5,2954,12,5
956,8,5,2955,13,5
957,8,5,2956,12,5
958,8,5,2957,14,5
959,9,5,2958,17,5
960,11,5,2959,20,5
961,12,5,2960,20,5
962,11,5,2961,20,5
963,11,5,2962,17,5
964,10,5,2963,14,5
965,12,5,2964,11,5
966,15,5,2965,9,5
967,12,5,2966,10,5
968,9,5,2967,14,5
969,10,5,2968,16,5
970,9,5,2969,17,5
971,10,5,2970,17,5
972,14,5,2971,13,5
973,16,5,2972,10,5
974,15,5,2973,9,5
975,16,5,2974,9,5
976,16,5,2975,9,5
977,17,5,2976,7,5
978,15,5,2977,6,5
979,15,5,2978,5,5
980,16,5,2979,10,5
981,16,5,2980,12,5
982,19,5,2981,15,5
983,17,5,2982,16,5
984,16,5,2983,16,5
985,14,5,2984,15,5
986,14,5,2985,14,5
987,17,5,2986,13,5
988,18,5,2987,11,5
989,19,5,2988,10,5
990,18,5,2989,10,5
991,18,5,2990,11,5
992,19,5,2991,8,5
993,18,5,2992,4,5
994,17,5,2993,3,5
995,18,5,2994,5,5
996,20,5,2995,9,5
997,19,5,2996,11,5
998,19,5,2997,13,5
999,20,5,2998,17,5
1000,20,5,2999,18,5
1001,19,5,3000,20,5
1002,15,5,3001,20,5
1003,11,5,3002,20,5
1004,11,5,3003,20,5
1005,11,5,3004,20,5
1006,10,5,3005,18,5
1007,14,5,3006,16,5
1008,20,5,3007,16,5
1009,19,5,3008,16,5
1010,16,5,3009,15,5
1011,12,5,3010,14,5
1012,9,5,3011,13,5
1013,5,5,3012,12,5
1014,7,5,3013,11,5
1015,13,5,3014,11,5
1016,15,5,3015,10,5
1017,17,5,3016,11,5
1018,17,5,3017,13,5
1019,15,5,3018,14,5
1020,15,5,3019,16,5
1021,18,5,3020,16,5
1022,19,5,3021,17,5
1023,20,5,3022,17,5
1024,20,5,3023,14,5
1025,20,5,3024,11,5
1026,18,5,3025,9,5
1027,14,5,3026,10,5
1028,12,5,3027,9,5
1029,10,5,3028,5,5
1030,13,5,3029,6,5
1031,17,5,3030,9,5
1032,13,5,3031,12,5
1033,9,5,3032,15,5
1034,9,5,3033,15,5
1035,12,5,3034,13,5
1036,15,5,3035,9,5
1037,15,5,3036,7,5
1038,11,5,3037,10,5
1039,11,5,3038,12,5
1040,15,5,3039,13,5
1041,14,5,3040,15,5
1042,12,5,3041,13,5
1043,13,5,3042,13,5
1044,15,5,3043,13,5
1045,16,5,3044,12,5
1046,17,5,3045,12,5
1047,18,5,3046,14,5
1048,19,5,3047,15,5
1049,18,5,3048,13,5
1050,17,5,3049,10,5
1051,17,5,3050,10,5
1052,16,5,3051,10,5
1053,16,5,3052,11,5
1054,15,5,3053,10,5
1055,15,5,3054,10,5
1056,14,5,3055,11,5
1057,10,5,3056,17,5
1058,9,5,3057,20,5
1059,10,5,3058,15,5
1060,9,5,3059,11,5
1061,8,5,3060,8,5
1062,10,5,3061,7,5
1063,9,5,3062,8,5
1064,9,5,3063,10,5
1065,8,5,3064,11,5
1066,7,5,3065,9,5
1067,9,5,3066,7,5
1068,11,5,3067,10,5
1069,12,5,3068,12,5
1070,14,5,3069,12,5
1071,16,5,3070,12,5
1072,17,5,3071,12,5
1073,14,5,3072,11,5
1074,11,5,3073,8,5
1075,10,5,3074,7,5
1076,8,5,3075,5,5
1077,7,5,3076,6,5
1078,7,5,3077,9,5
1079,5,5,3078,9,5
1080,4,5,3079,13,5
1081,5,5,3080,14,5
1082,3,5,3081,14,5
1083,1,5,3082,14,5
1084,0,5,3083,14,5
1085,1,5,3084,13,5
1086,6,5,3085,13,5
1087,8,5,3086,12,5
1088,8,5,3087,11,5
1089,6,5,3088,9,5
1090,5,5,3089,10,5
1091,4,5,3090,11,5
1092,3,5,3091,14,5
1093,1,5,3092,12,5
1094,0,5,3093,10,5
1095,-3,5,3094,10,5
1096,-9,5,3095,11,5
1097,-12,5,3096,11,5
1098,-14,5,3097,11,5
1099,-17,5,3098,12,5
1100,-16,5,3099,11,5
1101,-15,5,3100,9,5
1102,-14,5,3101,6,5
1103,-13,5,3102,8,5
1104,-10,5,3103,10,5
1105,-7,5,3104,11,5
1106,-3,5,3105,13,5
1107,-2,5,3106,16,5
1108,-4,5,3107,16,5
1109,-4,5,3108,15,5
1110,0,5,3109,12,5
1111,3,5,3110,9,5
1112,4,5,3111,9,5
1113,5,5,3112,8,5
1114,6,5,3113,8,5
1115,8,5,3114,5,5
1116,8,5,3115,2,5
1117,7,5,3116,3,5
1118,7,5,3117,4,5
1119,8,5,3118,5,5
1120,7,5,3119,4,5
1121,6,5,3120,4,5
1122,7,5,3121,5,5
1123,9,5,3122,5,5
1124,11,5,3123,3,5
1125,12,5,3124,2,5
1126,15,5,3125,3,5
1127,15,5,3126,6,5
1128,14,5,3127,7,5
1129,14,5,3128,3,5
1130,13,5,3129,1,5
1131,12,5,3130,1,5
1132,12,5,3131,-2,5
1133,11,5,3132,-6,5
1134,8,5,3133,-6,5
1135,9,5,3134,-6,5
1136,12,5,3135,-7,5
1137,13,5,3136,-9,5
1138,15,5,3137,-9,5
1139,16,5,3138,-7,5
1140,15,5,3139,-5,5
1141,15,5,3140,-2,5
1142,14,5,3141,-2,5
1143,17,5,3142,-4,5
1144,20,5,3143,-4,5
1145,20,5,3144,-3,5
1146,20,5,3145,-3,5
1147,18,5,3146,-3,5
1148,16,5,3147,-1,5
1149,15,5,3148,0,5
1150,14,5,3149,0,5
1151,14,5,3150,-4,5
1152,14,5,3151,-8,5
1153,14,5,3152,-7,5
1154,12,5,3153,-4,5
1155,11,5,3154,-1,5
1156,10,5,3155,1,5
1157,10,5,3156,5,5
1158,10,5,3157,7,5
1159,7,5,3158,6,5
1160,0,5,3159,5,5
1161,-7,5,3160,6,5
1162,-18,5,3161,10,5
1163,-28,5,3162,13,5
1164,-41,5,3163,15,5
1165,-56,5,3164,13,5
1166,-68,5,3165,13,5
1167,-68,5,3166,11,5
1168,-68,5,3167,9,5
1169,-68,5,3168,10,5
1170,-68,5,3169,13,5
1171,-68,5,3170,14,5
1172,-68,5,3171,18,5
1173,-68,5,3172,20,5
1174,-68,5,3173,19,5
1175,-51,5,3174,17,5
1176,-31,5,3175,20,5
1177,-16,5,3176,20,5
1178,-5,5,3177,20,5
1179,0,5,3178,19,5
1180,5,5,3179,17,5
1181,10,5,3180,16,5
1182,11,5,3181,13,5
1183,9,5,3182,12,5
1184,10,5,3183,14,5
1185,11,5,3184,13,5
1186,14,5,3185,13,5
1187,16,5,3186,15,5
1188,16,5,3187,17,5
1189,17,5,3188,18,5
1190,17,5,3189,15,5
1191,15,5,3190,16,5
1192,15,5,3191,17,5
1193,13,5,3192,16,5
1194,12,5,3193,16,5
1195,11,5,3194,19,5
1196,9,5,3195,15,5
1197,10,5,3196,7,5
1198,12,5,3197,0,5
1199,10,5,3198,-7,5
1200,9,5,3199,-18,5
1201,9,5,3200,-30,5
1202,11,5,3201,-45,5
1203,10,5,3202,-63,5
1204,8,5,3203,-68,5
1205,9,5,3204,-68,5
1206,10,5,3205,-68,5
1207,9,5,3206,-68,5
1208,11,5,3207,-68,5
1209,12,5,3208,-68,5
1210,11,5,3209,-68,5
1211,7,5,3210,-68,5
1212,6,5,3211,-68,5
1213,7,5,3212,-68,5
1214,7,5,3213,-52,5
1215,6,5,3214,-36,5
1216,6,5,3215,-23,5
1217,9,5,3216,-12,5
1218,11,5,3217,-5,5
1219,13,5,3218,2,5
1220,13,5,3219,5,5
1221,13,5,3220,7,5
1222,14,5,3221,9,5
1223,13,5,3222,9,5
1224,12,5,3223,11,5
1225,11,5,3224,16,5
1226,9,5,3225,16,5
1227,7,5,3226,14,5
1228,8,5,3227,15,5
1229,7,5,3228,13,5
1230,4,5,3229,11,5
1231,5,5,3230,12,5
1232,5,5,3231,14,5
1233,8,5,3232,13,5
1234,12,5,3233,10,5
1235,14,5,3234,11,5
1236,11,5,3235,11,5
1237,8,5,3236,12,5
1238,7,5,3237,14,5
1239,10,5,3238,13,5
1240,14,5,3239,12,5
1241,13,5,3240,11,5
1242,14,5,3241,11,5
1243,13,5,3242,13,5
1244,9,5,3243,14,5
1245,9,5,3244,12,5
1246,10,5,3245,11,5
1247,11,5,3246,11,5
1248,11,5,3247,11,5
1249,11,5,3248,10,5
1250,10,5,3249,10,5
1251,10,5,3250,9,5
1252,11,5,3251,9,5
1253,10,5,3252,11,5
1254,8,5,3253,12,5
1255,5,5,3254,10,5
1256,2,5,3255,8,5
1257,2,5,3256,9,5
1258,6,5,3257,11,5
1259,6,5,3258,15,5
1260,4,5,3259,16,5
1261,2,5,3260,16,5
1262,0,5,3261,12,5
1263,0,5,3262,6,5
1264,0,5,3263,6,5
1265,2,5,3264,7,5
1266,3,5,3265,5,5
1267,4,5,3266,5,5
1268,6,5,3267,8,5
1269,7,5,3268,14,5
1270,6,5,3269,14,5
1271,5,5,3270,12,5
1272,6,5,3271,15,5
1273,6,5,3272,16,5
1274,5,5,3273,14,5
1275,4,5,3274,14,5
1276,3,5,3275,16,5
1277,3,5,3276,15,5
1278,4,5,3277,14,5
1279,2,5,3278,11,5
1280,0,5,3279,7,5
1281,-1,5,3280,6,5
1282,-2,5,3281,8,5
1283,-1,5,3282,9,5
1284,0,5,3283,11,5
1285,0,5,3284,12,5
1286,-2,5,3285,13,5
1287,-4,5,3286,14,5
1288,-6,5,3287,15,5
1289,-7,5,3288,16,5
1290,-10,5,3289,18,5
1291,-12,5,3290,19,5
1292,-13,5,3291,14,5
1293,-13,5,3292,9,5
1294,-14,5,3293,7,5
1295,-13,5,3294,9,5
1296,-12,5,3295,10,5
1297,-13,5,3296,12,5
1298,-12,5,3297,14,5
1299,-11,5,3298,13,5
1300,-11,5,3299,10,5
1301,-12,5,3300,7,5
1302,-10,5,3301,8,5
1303,-9,5,3302,7,5
1304,-11,5,3303,10,5
1305,-12,5,3304,9,5
1306,-14,5,3305,7,5
1307,-14,5,3306,6,5
1308,-12,5,3307,10,5
1309,-12,5,3308,10,5
1310,-11,5,3309,8,5
1311,-11,5,3310,7,5
1312,-14,5,3311,6,5
1313,-15,5,3312,6,5
1314,-14,5,3313,4,5
1315,-13,5,3314,3,5
1316,-15,5,3315,2,5
1317,-18,5,3316,3,5
1318,-18,5,3317,4,5
1319,-16,5,3318,2,5
1320,-16,5,3319,1,5
1321,-17,5,3320,1,5
1322,-18,5,3321,2,5
1323,-18,5,3322,3,5
1324,-18,5,3323,1,5
1325,-16,5,3324,1,5
1326,-15,5,3325,0,5
1327,-14,5,3326,-2,5
1328,-14,5,3327,-2,5
1329,-13,5,3328,-4,5
1330,-12,5,3329,-4,5
1331,-13,5,3330,-2,5
1332,-14,5,3331,-2,5
1333,-14,5,3332,-2,5
1334,-12,5,3333,-4,5
1335,-7,5,3334,-7,5
1336,-6,5,3335,-12,5
1337,-5,5,3336,-15,5
1338,-5,5,3337,-17,5
1339,-2,5,3338,-17,5
1340,-1,5,3339,-18,5
1341,-2,5,3340,-19,5
1342,0,5,3341,-16,5
1343,3,5,3342,-14,5
1344,3,5,3343,-15,5
1345,4,5,3344,-15,5
1346,3,5,3345,-16,5
1347,6,5,3346,-16,5
1348,7,5,3347,-16,5
1349,8,5,3348,-16,5
1350,9,5,3349,-17,5
1351,10,5,3350,-16,5
1352,7,5,3351,-15,5
1353,6,5,3352,-16,5
1354,7,5,3353,-18,5
1355,8,5,3354,-19,5
1356,10,5,3355,-20,5
1357,10,5,3356,-20,5
1358,6,5,3357,-21,5
1359,5,5,3358,-24,5
1360,3,5,3359,-23,5
1361,5,5,3360,-22,5
1362,7,5,3361,-18,5
1363,9,5,3362,-13,5
1364,9,5,3363,-8,5
1365,10,5,3364,-5,5
1366,11,5,3365,-6,5
1367,13,5,3366,-7,5
1368,15,5,3367,-8,5
1369,18,5,3368,-5,5
1370,17,5,3369,-1,5
1371,16,5,3370,-2,5
1372,19,5,3371,-3,5
1373,18,5,3372,-5,5
1374,14,5,3373,-8,5
1375,12,5,3374,-7,5
1376,11,5,3375,-5,5
1377,7,5,3376,-3,5
1378,5,5,3377,4,5
1379,7,5,3378,6,5
1380,9,5,3379,4,5
1381,10,5,3380,4,5
1382,9,5,3381,4,5
1383,5,5,3382,7,5
1384,1,5,3383,8,5
1385,-1,5,3384,5,5
1386,0,5,3385,5,5
1387,4,5,3386,5,5
1388,7,5,3387,7,5
1389,7,5,3388,9,5
1390,5,5,3389,11,5
1391,5,5,3390,14,5
1392,6,5,3391,17,5
1393,8,5,3392,17,5
1394,11,5,3393,16,5
1395,8,5,3394,16,5
1396,5,5,3395,16,5
1397,8,5,3396,14,5
1398,8,5,3397,15,5
1399,8,5,3398,15,5
1400,10,5,3399,15,5
1401,12,5,3400,14,5
1402,12,5,3401,14,5
1403,12,5,3402,15,5
1404,10,5,3403,13,5
1405,6,5,3404,10,5
1406,6,5,3405,8,5
1407,6,5,3406,13,5
1408,4,5,3407,17,5
1409,2,5,3408,19,5
1410,2,5,3409,20,5
1411,3,5,3410,20,5
1412,5,5,3411,20,5
1413,3,5,3412,20,5
1414,0,5,3413,20,5
1415,0,5,3414,20,5
1416,3,5,3415,17,5
1417,7,5,3416,15,5
1418,4,5,3417,14,5
1419,5,5,3418,15,5
1420,6,5,3419,17,5
1421,6,5,3420,18,5
1422,6,5,3421,16,5
1423,5,5,3422,14,5
1424,2,5,3423,14,5
1425,0,5,3424,17,5
1426,0,5,3425,15,5
1427,0,5,3426,13,5
1428,-3,5,3427,13,5
1429,-5,5,3428,15,5
1430,-2,5,3429,13,5
1431,2,5,3430,11,5
1432,2,5,3431,11,5
1433,0,5,3432,13,5
1434,1,5,3433,15,5
1435,2,5,3434,15,5
1436,2,5,3435,16,5
1437,2,5,3436,16,5
1438,2,5,3437,18,5
1439,3,5,3438,18,5
1440,3,5,3439,17,5
1441,3,5,3440,14,5
1442,4,5,3441,12,5
1443,3,5,3442,11,5
1444,2,5,3443,12,5
1445,4,5,3444,13,5
1446,8,5,3445,11,5
1447,9,5,3446,10,5
1448,6,5,3447,13,5
1449,2,5,3448,12,5
1450,0,5,3449,12,5
1451,-2,5,3450,10,5
1452,-3,5,3451,13,5
1453,-3,5,3452,19,5
1454,-1,5,3453,18,5
1455,1,5,3454,17,5
1456,2,5,3455,16,5
1457,0,5,3456,13,5
1458,-1,5,3457,12,5
1459,0,5,3458,12,5
1460,5,5,3459,13,5
1461,8,5,3460,14,5
1462,10,5,3461,13,5
1463,9,5,3462,11,5
1464,7,5,3463,9,5
1465,5,5,3464,9,5
1466,6,5,3465,9,5
1467,8,5,3466,9,5
1468,7,5,3467,9,5
1469,8,5,3468,11,5
1470,11,5,3469,13,5
1471,10,5,3470,14,5
1472,9,5,3471,15,5
1473,6,5,3472,13,5
1474,2,5,3473,10,5
1475,1,5,3474,6,5
1476,1,5,3475,5,5
1477,0,5,3476,6,5
1478,1,5,3477,7,5
1479,2,5,3478,10,5
1480,1,5,3479,10,5
1481,0,5,3480,5,5
1482,2,5,3481,2,5
1483,4,5,3482,4,5
1484,5,5,3483,7,5
1485,8,5,3484,9,5
1486,8,5,3485,8,5
1487,7,5,3486,11,5
1488,7,5,3487,10,5
1489,8,5,3488,11,5
1490,9,5,3489,13,5
1491,10,5,3490,15,5
1492,13,5,3491,15,5
1493,15,5,3492,16,5
1494,15,5,3493,16,5
1495,14,5,3494,11,5
1496,15,5,3495,5,5
1497,17,5,3496,2,5
1498,16,5,3497,0,5
1499,11,5,3498,1,5
1500,6,5,3499,8,5
1501,5,5,3500,14,5
1502,7,5,3501,18,5
1503,6,5,3502,18,5
1504,4,5,3503,16,5
1505,3,5,3504,15,5
1506,6,5,3505,14,5
1507,11,5,3506,12,5
1508,17,5,3507,12,5
1509,20,5,3508,12,5
1510,20,5,3509,14,5
1511,19,5,3510,17,5
1512,19,5,3511,16,5
1513,17,5,3512,14,5
1514,16,5,3513,14,5
1515,16,5,3514,16,5
1516,16,5,3515,16,5
1517,16,5,3516,13,5
1518,16,5,3517,12,5
1519,15,5,3518,12,5
1520,13,5,3519,13,5
1521,16,5,3520,15,5
1522,18,5,3521,12,5
1523,19,5,3522,13,5
1524,17,5,3523,14,5
1525,15,5,3524,14,5
1526,16,5,3525,14,5
1527,20,5,3526,15,5
1528,20,5,3527,15,5
1529,20,5,3528,15,5
1530,20,5,3529,14,5
1531,18,5,3530,13,5
1532,15,5,3531,11,5
1533,15,5,3532,8,5
1534,19,5,3533,9,5
1535,20,5,3534,10,5
1536,20,5,3535,12,5
1537,20,5,3536,14,5
1538,18,5,3537,16,5
1539,17,5,3538,16,5
1540,18,5,3539,18,5
1541,20,5,3540,20,5
1542,20,5,3541,20,5
1543,18,5,3542,20,5
1544,16,5,3543,20,5
1545,20,5,3544,19,5
1546,20,5,3545,17,5
1547,20,5,3546,17,5
1548,20,5,3547,14,5
1549,20,5,3548,14,5
1550,20,5,3549,13,5
1551,20,5,3550,11,5
1552,20,5,3551,11,5
1553,20,5,3552,15,5
1554,20,5,3553,17,5
1555,20,5,3554,18,5
1556,19,5,3555,17,5
1557,17,5,3556,17,5
1558,20,5,3557,16,5
1559,19,5,3558,16,5
1560,18,5,3559,14,5
1561,19,5,3560,15,5
1562,20,5,3561,19,5
1563,19,5,3562,20,5
1564,15,5,3563,17,5
1565,15,5,3564,18,5
1566,14,5,3565,16,5
1567,15,5,3566,13,5
1568,14,5,3567,14,5
1569,13,5,3568,14,5
1570,12,5,3569,16,5
1571,11,5,3570,17,5
1572,10,5,3571,17,5
1573,12,5,3572,16,5
1574,14,5,3573,17,5
1575,14,5,3574,15,5
1576,14,5,3575,12,5
1577,18,5,3576,10,5
1578,20,5,3577,13,5
1579,20,5,3578,16,5
1580,20,5,3579,19,5
1581,16,5,3580,19,5
1582,15,5,3581,18,5
1583,13,5,3582,17,5
1584,9,5,3583,17,5
1585,4,5,3584,16,5
1586,2,5,3585,15,5
1587,4,5,3586,14,5
1588,9,5,3587,14,5
1589,13,5,3588,15,5
1590,13,5,3589,15,5
1591,13,5,3590,14,5
1592,10,5,3591,13,5
1593,8,5,3592,13,5
1594,7,5,3593,13,5
1595,5,5,3594,12,5
1596,4,5,3595,10,5
1597,2,5,3596,14,5
1598,0,5,3597,18,5
1599,2,5,3598,17,5
1600,3,5,3599,15,5
1601,5,5,3600,14,5
1602,6,5,3601,12,5
1603,7,5,3602,11,5
1604,6,5,3603,13,5
1605,1,5,3604,15,5
1606,-4,5,3605,14,5
1607,-6,5,3606,15,5
1608,-7,5,3607,15,5
1609,-8,5,3608,15,5
1610,-9,5,3609,14,5
1611,-8,5,3610,13,5
1612,-6,5,3611,14,5
1613,-2,5,3612,14,5
1614,0,5,3613,17,5
1615,0,5,3614,19,5
1616,3,5,3615,18,5
1617,4,5,3616,17,5
1618,7,5,3617,14,5
1619,11,5,3618,11,5
1620,13,5,3619,6,5
1621,15,5,3620,7,5
1622,15,5,3621,11,5
1623,16,5,3622,14,5
1624,17,5,3623,12,5
1625,17,5,3624,11,5
1626,14,5,3625,11,5
1627,13,5,3626,11,5
1628,11,5,3627,12,5
1629,9,5,3628,11,5
1630,9,5,3629,9,5
1631,10,5,3630,8,5
1632,12,5,3631,12,5
1633,13,5,3632,13,5
1634,14,5,3633,10,5
1635,13,5,3634,5,5
1636,13,5,3635,0,5
1637,13,5,3636,-2,5
1638,16,5,3637,0,5
1639,16,5,3638,4,5
1640,16,5,3639,7,5
1641,16,5,3640,8,5
1642,15,5,3641,7,5
1643,16,5,3642,8,5
1644,17,5,3643,6,5
1645,18,5,3644,4,5
1646,18,5,3645,0,5
1647,16,5,3646,-3,5
1648,16,5,3647,-3,5
1649,14,5,3648,1,5
1650,13,5,3649,3,5
1651,11,5,3650,3,5
1652,11,5,3651,2,5
1653,10,5,3652,2,5
1654,10,5,3653,2,5
1655,12,5,3654,0,5
1656,13,5,3655,1,5
1657,13,5,3656,1,5
1658,13,5,3657,-4,5
1659,14,5,3658,-8,5
1660,11,5,3659,-11,5
1661,3,5,3660,-13,5
1662,-4,5,3661,-12,5
1663,-14,5,3662,-11,5
1664,-26,5,3663,-7,5
1665,-42,5,3664,-4,5
1666,-61,5,3665,-2,5
1667,-68,5,3666,-3,5
1668,-68,5,3667,-3,5
1669,-68,5,3668,-2,5
1670,-68,5,3669,-1,5
1671,-68,5,3670,1,5
1672,-68,5,3671,4,5
1673,-68,5,3672,7,5
1674,-68,5,3673,8,5
1675,-68,5,3674,10,5
1676,-68,5,3675,10,5
1677,-56,5,3676,10,5
1678,-36,5,3677,12,5
1679,-20,5,3678,11,5
1680,-11,5,3679,11,5
1681,-1,5,3680,15,5
1682,6,5,3681,15,5
1683,11,5,3682,15,5
1684,12,5,3683,16,5
1685,12,5,3684,15,5
1686,14,5,3685,13,5
1687,14,5,3686,14,5
1688,14,5,3687,17,5
1689,15,5,3688,19,5
1690,12,5,3689,18,5
1691,10,5,3690,15,5
1692,11,5,3691,14,5
1693,11,5,3692,13,5
1694,9,5,3693,11,5
1695,9,5,3694,12,5
1696,11,5,3695,13,5
1697,11,5,3696,14,5
1698,11,5,3697,14,5
1699,13,5,3698,14,5
1700,12,5,3699,17,5
1701,13,5,3700,18,5
1702,13,5,3701,17,5
1703,11,5,3702,15,5
1704,9,5,3703,15,5
1705,7,5,3704,16,5
1706,7,5,3705,16,5
1707,7,5,3706,13,5
1708,8,5,3707,13,5
1709,9,5,3708,13,5
1710,10,5,3709,14,5
1711,12,5,3710,16,5
1712,12,5,3711,15,5
1713,13,5,3712,5,5
1714,12,5,3713,-8,5
1715,11,5,3714,-21,5
1716,12,5,3715,-32,5
1717,14,5,3716,-41,5
1718,15,5,3717,-54,5
1719,13,5,3718,-68,5
1720,10,5,3719,-68,5
1721,9,5,3720,-68,5
1722,8,5,3721,-68,5
1723,8,5,3722,-68,5
1724,8,5,3723,-68,5
1725,9,5,3724,-68,5
1726,6,5,3725,-68,5
1727,6,5,3726,-68,5
1728,10,5,3727,-61,5
1729,10,5,3728,-40,5
1730,10,5,3729,-22,5
1731,11,5,3730,-11,5
1732,10,5,3731,-3,5
1733,8,5,3732,6,5
1734,5,5,3733,13,5
1735,7,5,3734,16,5
1736,10,5,3735,14,5
1737,12,5,3736,15,5
1738,14,5,3737,19,5
1739,14,5,3738,20,5
1740,19,5,3739,18,5
1741,19,5,3740,14,5
1742,15,5,3741,11,5
1743,12,5,3742,11,5
1744,14,5,3743,14,5
1745,19,5,3744,16,5
1746,18,5,3745,12,5
1747,15,5,3746,9,5
1748,14,5,3747,7,5
1749,16,5,3748,5,5
1750,17,5,3749,2,5
1751,15,5,3750,4,5
1752,13,5,3751,7,5
1753,12,5,3752,10,5
1754,13,5,3753,13,5
1755,14,5,3754,13,5
1756,14,5,3755,11,5
1757,14,5,3756,10,5
1758,14,5,3757,10,5
1759,12,5,3758,12,5
1760,12,5,3759,13,5
1761,13,5,3760,12,5
1762,14,5,3761,12,5
1763,12,5,3762,12,5
1764,12,5,3763,9,5
1765,11,5,3764,6,5
1766,9,5,3765,10,5
1767,7,5,3766,12,5
1768,5,5,3767,12,5
1769,3,5,3768,13,5
1770,0,5,3769,12,5
1771,2,5,3770,8,5
1772,6,5,3771,8,5
1773,7,5,3772,6,5
1774,5,5,3773,7,5
1775,4,5,3774,11,5
1776,6,5,3775,9,5
1777,7,5,3776,7,5
1778,4,5,3777,8,5
1779,3,5,3778,9,5
1780,3,5,3779,7,5
1781,3,5,3780,7,5
1782,4,5,3781,10,5
1783,5,5,3782,12,5
1784,5,5,3783,16,5
1785,3,5,3784,17,5
1786,1,5,3785,14,5
1787,3,5,3786,11,5
1788,3,5,3787,10,5
1789,2,5,3788,9,5
1790,-1,5,3789,10,5
1791,-4,5,3790,12,5
1792,-3,5,3791,13,5
1793,-4,5,3792,13,5
1794,-7,5,3793,12,5
1795,-8,5,3794,11,5
1796,-6,5,3795,12,5
1797,-5,5,3796,12,5
1798,-4,5,3797,12,5
1799,-4,5,3798,12,5
1800,-9,5,3799,14,5
1801,-13,5,3800,12,5
1802,-14,5,3801,8,5
1803,-14,5,3802,8,5
1804,-14,5,3803,8,5
1805,-14,5,3804,6,5
1806,-13,5,3805,3,5
1807,-12,5,3806,3,5
1808,-14,5,3807,8,5
1809,-18,5,3808,13,5
1810,-24,5,3809,15,5
1811,-27,5,3810,15,5
1812,-22,5,3811,14,5
1813,-16,5,3812,14,5
1814,-13,5,3813,14,5
1815,-12,5,3814,15,5
1816,-14,5,3815,14,5
1817,-15,5,3816,11,5
1818,-17,5,3817,10,5
1819,-20,5,3818,10,5
1820,-19,5,3819,8,5
1821,-15,5,3820,5,5
1822,-14,5,3821,3,5
1823,-14,5,3822,2,5
1824,-15,5,3823,2,5
1825,-15,5,3824,2,5
1826,-15,5,3825,3,5
1827,-14,5,3826,1,5
1828,-14,5,3827,1,5
1829,-13,5,3828,5,5
1830,-11,5,3829,6,5
1831,-11,5,3830,8,5
1832,-10,5,3831,5,5
1833,-6,5,3832,2,5
1834,-5,5,3833,0,5
1835,-8,5,3834,1,5
1836,-9,5,3835,5,5
1837,-8,5,3836,6,5
1838,-4,5,3837,6,5
1839,0,5,3838,4,5
1840,2,5,3839,0,5
1841,6,5,3840,-1,5
1842,5,5,3841,-5,5
1843,2,5,3842,-6,5
1844,1,5,3843,-7,5
1845,4,5,3844,-8,5
1846,5,5,3845,-6,5
1847,4,5,3846,-5,5
1848,4,5,3847,-4,5
1849,5,5,3848,-2,5
1850,7,5,3849,-1,5
1851,11,5,3850,-1,5
1852,14,5,3851,-3,5
1853,12,5,3852,-4,5
1854,11,5,3853,-6,5
1855,11,5,3854,-10,5
1856,9,5,3855,-14,5
1857,8,5,3856,-15,5
1858,9,5,3857,-14,5
1859,11,5,3858,-15,5
1860,11,5,3859,-15,5
1861,8,5,3860,-11,5
1862,8,5,3861,-10,5
1863,8,5,3862,-8,5
1864,10,5,3863,-8,5
1865,14,5,3864,-10,5
1866,15,5,3865,-13,5
1867,15,5,3866,-13,5
1868,15,5,3867,-13,5
1869,16,5,3868,-15,5
1870,16,5,3869,-16,5
1871,16,5,3870,-16,5
1872,13,5,3871,-15,5
1873,9,5,3872,-14,5
1874,8,5,3873,-12,5
1875,11,5,3874,-12,5
1876,12,5,3875,-12,5
1877,12,5,3876,-12,5
1878,12,5,3877,-13,5
1879,16,5,3878,-12,5
1880,18,5,3879,-12,5
1881,16,5,3880,-12,5
1882,13,5,3881,-12,5
1883,12,5,3882,-11,5
1884,13,5,3883,-10,5
1885,14,5,3884,-11,5
1886,16,5,3885,-9,5
1887,15,5,3886,-3,5
1888,16,5,3887,-1,5
1889,14,5,3888,0,5
1890,12,5,3889,3,5
1891,16,5,3890,5,5
1892,18,5,3891,3,5
1893,17,5,3892,0,5
1894,14,5,3893,0,5
1895,13,5,3894,3,5
1896,10,5,3895,6,5
1897,10,5,3896,11,5
1898,11,5,3897,13,5
1899,14,5,3898,14,5
1900,16,5,3899,14,5
1901,17,5,3900,16,5
1902,19,5,3901,16,5
1903,20,5,3902,14,5
1904,17,5,3903,15,5
1905,14,5,3904,13,5
1906,11,5,3905,9,5
1907,9,5,3906,4,5
1908,9,5,3907,2,5
1909,9,5,3908,6,5
1910,11,5,3909,9,5
1911,11,5,3910,11,5
1912,10,5,3911,12,5
1913,9,5,3912,14,5
1914,9,5,3913,16,5
1915,13,5,3914,18,5
1916,13,5,3915,17,5
1917,13,5,3916,15,5
1918,13,5,3917,14,5
1919,13,5,3918,13,5
1920,12,5,3919,9,5
1921,10,5,3920,9,5
1922,10,5,3921,9,5
1923,11,5,3922,10,5
1924,13,5,3923,12,5
1925,13,5,3924,14,5
1926,11,5,3925,14,5
1927,8,5,3926,15,5
1928,9,5,3927,15,5
1929,11,5,3928,14,5
1930,12,5,3929,14,5
1931,11,5,3930,14,5
1932,11,5,3931,14,5
1933,12,5,3932,16,5
1934,13,5,3933,18,5
1935,14,5,3934,18,5
1936,15,5,3935,18,5
1937,14,5,3936,14,5
1938,11,5,3937,13,5
1939,12,5,3938,15,5
1940,13,5,3939,15,5
1941,15,5,3940,13,5
1942,13,5,3941,10,5
1943,7,5,3942,9,5
1944,2,5,3943,9,5
1945,0,5,3944,10,5
1946,1,5,3945,11,5
1947,5,5,3946,12,5
1948,10,5,3947,13,5
1949,11,5,3948,12,5
1950,8,5,3949,12,5
1951,5,5,3950,15,5
1952,5,5,3951,17,5
1953,11,5,3952,17,5
1954,16,5,3953,16,5
1955,17,5,3954,14,5
1956,15,5,3955,9,5
1957,16,5,3956,9,5
1958,17,5,3957,11,5
1959,16,5,3958,10,5
1960,16,5,3959,10,5
1961,18,5,3960,12,5
1962,15,5,3961,12,5
1963,14,5,3962,9,5
1964,14,5,3963,6,5
1965,11,5,3964,6,5
1966,8,5,3965,7,5
1967,8,5,3966,5,5
1968,9,5,3967,4,5
1969,11,5,3968,7,5
1970,13,5,3969,8,5
1971,13,5,3970,8,5
1972,14,5,3971,9,5
1973,15,5,3972,11,5
1974,18,5,3973,11,5
1975,19,5,3974,11,5
1976,18,5,3975,8,5
1977,15,5,3976,7,5
1978,14,5,3977,7,5
1979,12,5,3978,10,5
1980,13,5,3979,9,5
1981,13,5,3980,8,5
1982,12,5,3981,6,5
1983,13,5,3982,4,5
1984,15,5,3983,3,5
1985,15,5,3984,3,5
1986,14,5,3985,6,5
1987,14,5,3986,8,5
1988,15,5,3987,6,5
1989,16,5,3988,5,5
1990,16,5,3989,2,5
1991,15,5,3990,1,5
1992,12,5,3991,6,5
1993,10,5,3992,12,5
1994,10,5,3993,14,5
1995,11,5,3994,14,5
1996,10,5,3995,13,5
1997,13,5,3996,9,5
1998,14,5,3997,7,5
1999,13,5,3998,7,5
2000,14,5,3999,9,5
2001,15,5,4000,9,5
2002,15,5,4001,8,5
2003,13,5,4002,9,5
2004,16,5,4003,9,5
2005,19,5,4004,9,5
2006,19,5,4005,10,5
2007,19,5,4006,9,5
2008,19,5,4007,12,5
2009,19,5,4008,12,5
2010,19,5,4009,11,5
2011,17,5,4010,11,5
2012,15,5,4011,8,5
2013,15,5,4012,6,5
2014,15,5,4013,4,5
2015,16,5,4014,5,5
2016,15,5,4015,7,5
2017,14,5,4016,9,5
2018,14,5,4017,9,5
2019,14,5,4018,6,5
2020,15,5,4019,5,5
2021,16,5,4020,7,5
2022,13,5,4021,9,5
2023,12,5,4022,10,5
2024,12,5,4023,11,5
2025,13,5,4024,12,5
2026,14,5,4025,15,5
2027,12,5,4026,16,5
2028,12,5,4027,15,5
2029,12,5,4028,13,5
2030,9,5,4029,9,5
2031,6,5,4030,7,5
2032,7,5,4031,8,5
2033,12,5,4032,11,5
2034,16,5,4033,9,5
2035,17,5,4034,8,5
2036,14,5,4035,7,5
2037,13,5,4036,11,5
2038,14,5,4037,13,5
2039,16,5,4038,13,5
2040,19,5,4039,15,5
2041,18,5,4040,16,5
2042,17,5,4041,16,5
2043,17,5,4042,17,5
2044,14,5,4043,14,5
2045,11,5,4044,12,5
2046,8,5,4045,9,5
2047,10,5,4046,7,5
2048,13,5,4047,6,5
2049,16,5,4048,10,5
2050,17,5,4049,11,5
2051,17,5,4050,10,5
2052,18,5,4051,11,5
2053,18,5,4052,11,5
2054,15,5,4053,10,5
2055,13,5,4054,9,5
2056,13,5,4055,9,5
2057,15,5,4056,11,5
2058,17,5,4057,11,5
2059,18,5,4058,11,5
2060,17,5,4059,11,5
2061,15,5,4060,10,5
2062,16,5,4061,8,5
2063,18,5,4062,7,5
2064,18,5,4063,9,5
2065,16,5,4064,10,5
2066,16,5,4065,7,5
2067,16,5,4066,2,5
2068,16,5,4067,0,5
2069,17,5,4068,0,5
2070,19,5,4069,5,5
2071,17,5,4070,9,5
2072,13,5,4071,15,5
2073,13,5,4072,19,5
2074,13,5,4073,20,5
2075,15,5,4074,19,5
2076,14,5,4075,17,5
2077,11,5,4076,16,5
2078,10,5,4077,17,5
2079,11,5,4078,18,5
2080,12,5,4079,16,5
2081,11,5,4080,14,5
2082,11,5,4081,10,5
2083,11,5,4082,9,5
2084,12,5,4083,9,5
2085,14,5,4084,8,5
2086,16,5,4085,8,5
2087,14,5,4086,11,5
2088,15,5,4087,12,5
2089,18,5,4088,11,5
2090,16,5,4089,10,5
2091,14,5,4090,11,5
2092,13,5,4091,10,5
2093,14,5,4092,11,5
2094,13,5,4093,10,5
2095,11,5,4094,9,5
2096,11,5,4095,11,5
2097,10,5,4096,13,5
2098,9,5,4097,15,5
2099,11,5,4098,16,5
2100,12,5,4099,17,5
2101,11,5,4100,18,5
2102,11,5,4101,18,5
2103,11,5,4102,19,5
2104,11,5,4103,18,5
2105,11,5,4104,12,5
2106,10,5,4105,9,5
2107,8,5,4106,9,5
2108,9,5,4107,7,5
2109,9,5,4108,4,5
2110,8,5,4109,1,5
2111,5,5,4110,3,5
2112,4,5,4111,10,5
2113,4,5,4112,15,5
2114,1,5,4113,20,5
2115,-1,5,4114,20,5
2116,1,5,4115,18,5
2117,3,5,4116,15,5
2118,0,5,4117,14,5
2119,-1,5,4118,15,5
2120,-2,5,4119,12,5
2121,-3,5,4120,9,5
2122,-4,5,4121,7,5
2123,-3,5,4122,7,5
2124,-1,5,4123,9,5
2125,2,5,4124,11,5
2126,1,5,4125,10,5
2127,-1,5,4126,9,5
2128,-5,5,4127,10,5
2129,-8,5,4128,12,5
2130,-8,5,4129,13,5
2131,-6,5,4130,13,5
2132,1,5,4131,13,5
2133,5,5,4132,12,5
2134,7,5,4133,9,5
2135,9,5,4134,6,5
2136,10,5,4135,4,5
2137,11,5,4136,4,5
2138,14,5,4137,5,5
2139,15,5,4138,8,5
2140,15,5,4139,7,5
2141,13,5,4140,4,5
2142,11,5,4141,4,5
2143,11,5,4142,4,5
2144,12,5,4143,3,5
2145,16,5,4144,3,5
2146,16,5,4145,4,5
2147,14,5,4146,4,5
2148,15,5,4147,7,5
2149,15,5,4148,7,5
2150,16,5,4149,4,5
2151,14,5,4150,2,5
2152,13,5,4151,0,5
2153,16,5,4152,-1,5
2154,17,5,4153,-1,5
2155,17,5,4154,-3,5
2156,20,5,4155,-4,5
2157,20,5,4156,-5,5
2158,20,5,4157,-6,5
2159,20,5,4158,-9,5
2160,19,5,4159,-7,5
2161,17,5,4160,-1,5
2162,15,5,4161,-1,5
2163,16,5,4162,-3,5
2164,19,5,4163,-3,5
2165,20,5,4164,-4,5
2166,20,5,4165,-8,5
2167,15,5,4166,-10,5
2168,12,5,4167,-12,5
2169,14,5,4168,-12,5
2170,15,5,4169,-8,5
2171,16,5,4170,-6,5
2172,17,5,4171,-7,5
2173,15,5,4172,-5,5
2174,13,5,4173,-4,5
2175,8,5,4174,-2,5
2176,3,5,4175,-1,5
2177,-2,5,4176,2,5
2178,-7,5,4177,9,5
2179,-14,5,4178,11,5
2180,-24,5,4179,14,5
2181,-36,5,4180,14,5
2182,-55,5,4181,14,5
2183,-68,5,4182,13,5
2184,-68,5,4183,14,5
2185,-68,5,4184,13,5
2186,-68,5,4185,11,5
2187,-68,5,4186,11,5
2188,-68,5,4187,11,5
2189,-68,5,4188,11,5
2190,-68,5,4189,12,5
2191,-68,5,4190,12,5
2192,-68,5,4191,12,5
2193,-55,5,4192,15,5
2194,-36,5,4193,14,5
2195,-21,5,4194,14,5
2196,-11,5,4195,15,5
2197,-4,5,4196,16,5
2198,1,5,4197,16,5
2199,3,5,4198,15,5
2200,8,5,4199,15,5
2201,12,5,4200,13,5
2202,13,5,4201,9,5
2203,13,5,4202,7,5
2204,12,5,4203,11,5
2205,13,5,4204,17,5
2206,14,5,4205,20,5
2207,11,5,4206,19,5
2208,9,5,4207,16,5
2209,8,5,4208,12,5
2210,7,5,4209,9,5
2211,6,5,4210,8,5
2212,7,5,4211,9,5
2213,8,5,4212,10,5
2214,8,5,4213,13,5
2215,9,5,4214,13,5
2216,10,5,4215,10,5
2217,10,5,4216,4,5
2218,10,5,4217,-4,5
2219,12,5,4218,-13,5
2220,12,5,4219,-25,5
2221,8,5,4220,-36,5
2222,7,5,4221,-47,5
2223,7,5,4222,-64,5
2224,7,5,4223,-68,5
2225,8,5,4224,-68,5
2226,10,5,4225,-68,5
2227,10,5,4226,-68,5
2228,10,5,4227,-68,5
2229,12,5,4228,-68,5
2230,14,5,4229,-68,5
2231,12,5,4230,-68,5
2232,10,5,4231,-68,5
2233,7,5,4232,-63,5
2234,7,5,4233,-42,5
2235,7,5,4234,-24,5
2236,6,5,4235,-11,5
2237,9,5,4236,-3,5
2238,10,5,4237,1,5
2239,11,5,4238,2,5
2240,12,5,4239,4,5
2241,10,5,4240,4,5
2242,9,5,4241,3,5
2243,10,5,4242,2,5
2244,12,5,4243,4,5
2245,12,5,4244,2,5
2246,9,5,4245,3,5
2247,8,5,4246,10,5
2248,7,5,4247,13,5
2249,9,5,4248,12,5
2250,13,5,4249,16,5
2251,15,5,4250,16,5
2252,16,5,4251,14,5
2253,12,5,4252,14,5
2254,9,5,4253,15,5
2255,9,5,4254,15,5
2256,12,5,4255,12,5
2257,11,5,4256,9,5
2258,11,5,4257,7,5
2259,9,5,4258,7,5
2260,10,5,4259,5,5
2261,13,5,4260,3,5
2262,16,5,4261,8,5
2263,15,5,4262,11,5
2264,10,5,4263,13,5
2265,7,5,4264,13,5
2266,6,5,4265,12,5
2267,4,5,4266,10,5
2268,3,5,4267,6,5
2269,3,5,4268,5,5
2270,4,5,4269,7,5
2271,6,5,4270,9,5
2272,7,5,4271,10,5
2273,9,5,4272,8,5
2274,10,5,4273,9,5
2275,11,5,4274,12,5
2276,12,5,4275,13,5
2277,14,5,4276,11,5
2278,15,5,4277,8,5
2279,15,5,4278,7,5
2280,12,5,4279,7,5
2281,8,5,4280,6,5
2282,5,5,4281,7,5
2283,4,5,4282,5,5
2284,2,5,4283,2,5
2285,2,5,4284,4,5
2286,3,5,4285,6,5
2287,3,5,4286,7,5
2288,2,5,4287,8,5
2289,2,5,4288,9,5
2290,2,5,4289,9,5
2291,5,5,4290,11,5
2292,5,5,4291,13,5
2293,4,5,4292,14,5
2294,4,5,4293,15,5
2295,1,5,4294,14,5
2296,-1,5,4295,13,5
2297,-2,5,4296,11,5
2298,-3,5,4297,9,5
2299,-4,5,4298,11,5
2300,-6,5,4299,14,5
2301,-5,5,4300,17,5
2302,-3,5,4301,15,5
2303,-2,5,4302,14,5
2304,-4,5,4303,14,5
2305,-6,5,4304,13,5
2306,-5,5,4305,13,5
2307,-4,5,4306,12,5
2308,-4,5,4307,11,5
2309,-3,5,4308,12,5
2310,-3,5,4309,15,5
2311,-4,5,4310,15,5
2312,-5,5,4311,13,5
2313,-7,5,4312,12,5
2314,-9,5,4313,10,5
2315,-13,5,4314,8,5
2316,-15,5,4315,6,5
2317,-15,5,4316,7,5
2318,-16,5,4317,10,5
2319,-14,5,4318,14,5
2320,-12,5,4319,12,5
2321,-14,5,4320,10,5
2322,-17,5,4321,5,5
2323,-17,5,4322,1,5
2324,-18,5,4323,1,5
2325,-22,5,4324,5,5
2326,-23,5,4325,8,5
2327,-22,5,4326,9,5
2328,-19,5,4327,7,5
2329,-17,5,4328,5,5
2330,-20,5,4329,4,5
2331,-23,5,4330,3,5
2332,-23,5,4331,1,5
2333,-23,5,4332,2,5
2334,-24,5,4333,2,5
2335,-25,5,4334,3,5
2336,-26,5,4335,5,5
2337,-24,5,4336,8,5
2338,-24,5,4337,10,5
2339,-26,5,4338,7,5
2340,-26,5,4339,4,5
2341,-23,5,4340,4,5
2342,-20,5,4341,2,5
2343,-16,5,4342,-1,5
2344,-18,5,4343,-3,5
2345,-17,5,4344,-2,5
2346,-13,5,4345,-2,5
2347,-11,5,4346,-4,5
2348,-11,5,4347,-6,5
2349,-11,5,4348,-6,5
2350,-13,5,4349,-6,5
2351,-11,5,4350,-4,5
2352,-6,5,4351,-3,5
2353,-4,5,4352,-4,5
2354,-4,5,4353,-4,5
2355,-3,5,4354,-5,5
2356,-2,5,4355,-8,5
2357,-3,5,4356,-13,5
2358,-4,5,4357,-14,5
2359,-4,5,4358,-14,5
2360,-3,5,4359,-15,5
2361,-3,5,4360,-16,5
2362,-4,5,4361,-15,5
2363,-2,5,4362,-14,5
2364,0,5,4363,-16,5
2365,5,5,4364,-18,5
2366,11,5,4365,-17,5
2367,13,5,4366,-17,5
2368,14,5,4367,-19,5
2369,14,5,4368,-19,5
2370,12,5,4369,-17,5
2371,9,5,4370,-16,5
2372,6,5,4371,-14,5
2373,4,5,4372,-16,5
2374,4,5,4373,-18,5
2375,4,5,4374,-19,5
2376,5,5,4375,-20,5
2377,6,5,4376,-19,5
2378,7,5,4377,-17,5
2379,8,5,4378,-17,5
2380,8,5,4379,-17,5
2381,7,5,4380,-16,5
2382,7,5,4381,-15,5
2383,6,5,4382,-15,5
2384,7,5,4383,-14,5
2385,11,5,4384,-14,5
2386,14,5,4385,-13,5
2387,11,5,4386,-11,5
2388,10,5,4387,-11,5
2389,12,5,4388,-10,5
2390,14,5,4389,-8,5
2391,13,5,4390,-4,5
2392,13,5,4391,1,5
2393,13,5,4392,1,5
2394,10,5,4393,3,5
2395,7,5,4394,8,5
2396,6,5,4395,11,5
2397,7,5,4396,12,5
2398,9,5,4397,9,5
2399,15,5,4398,9,5
2400,17,5,4399,10,5
2401,19,5,4400,10,5
2402,17,5,4401,8,5
2403,15,5,4402,7,5
2404,14,5,4403,7,5
2405,12,5,4404,8,5
2406,12,5,4405,15,5
2407,13,5,4406,15,5
2408,15,5,4407,12,5
2409,15,5,4408,13,5
2410,12,5,4409,14,5
2411,12,5,4410,14,5
2412,13,5,4411,14,5
2413,15,5,4412,17,5
2414,16,5,4413,20,5
2415,14,5,4414,20,5
2416,12,5,4415,17,5
2417,10,5,4416,17,5
2418,8,5,4417,18,5
2419,7,5,4418,15,5
2420,5,5,4419,14,5
2421,7,5,4420,16,5
2422,9,5,4421,19,5
2423,11,5,4422,20,5
2424,11,5,4423,18,5
2425,13,5,4424,14,5
2426,15,5,4425,14,5
2427,14,5,4426,19,5
2428,12,5,4427,20,5
2429,9,5,4428,20,5
2430,11,5,4429,20,5
2431,11,5,4430,20,5
2432,13,5,4431,20,5
2433,15,5,4432,20,5
2434,15,5,4433,20,5
2435,15,5,4434,20,5
2436,13,5,4435,20,5
2437,10,5,4436,20,5
2438,9,5,4437,20,5
2439,9,5,4438,20,5
2440,7,5,4439,20,5
2441,8,5,4440,20,5
2442,12,5,4441,20,5
2443,14,5,4442,20,5
2444,10,5,4443,20,5
2445,8,5,4444,20,5
2446,9,5,4445,20,5
2447,10,5,4446,20,5
2448,13,5,4447,20,5
2449,12,5,4448,20,5
2450,11,5,4449,20,5
2451,9,5,4450,20,5
2452,10,5,4451,20,5
2453,10,5,4452,20,5
2454,12,5,4453,20,5
2455,11,5,4454,20,5
2456,10,5,4455,20,5
2457,8,5,4456,20,5
2458,5,5,4457,20,5
2459,5,5,4458,20,5
2460,7,5,4459,20,5
2461,11,5,4460,20,5
2462,15,5,4461,20,5
2463,18,5,4462,20,5
2464,18,5,4463,20,5
2465,20,5,4464,19,5
2466,19,5,4465,19,5
2467,14,5,4466,18,5
2468,10,5,4467,18,5
2469,8,5,4468,20,5
2470,6,5,4469,20,5
2471,4,5,4470,20,5
2472,4,5,4471,20,5
2473,5,5,4472,20,5
2474,6,5,4473,20,5
2475,7,5,4474,18,5
2476,9,5,4475,16,5
2477,12,5,4476,17,5
2478,17,5,4477,17,5
2479,20,5,4478,18,5
2480,19,5,4479,20,5
2481,17,5,4480,20,5
2482,13,5,4481,20,5
2483,13,5,4482,20,5
2484,11,5,4483,20,5
2485,11,5,4484,18,5
2486,9,5,4485,16,5
2487,8,5,4486,17,5
2488,10,5,4487,18,5
2489,11,5,4488,18,5
2490,10,5,4489,20,5
2491,11,5,4490,20,5
2492,10,5,4491,20,5
2493,10,5,4492,20,5
2494,11,5,4493,20,5
2495,9,5,4494,20,5
2496,8,5,4495,20,5
2497,8,5,4496,20,5
2498,11,5,4497,20,5
2499,14,5,4498,20,5
2500,13,5,4499,20,5
2501,14,5,4500,20,5
2502,17,5,4501,20,5
2503,15,5,4502,20,5
2504,16,5,4503,20,5
2505,17,5,4504,20,5
2506,17,5,4505,20,5
2507,19,5,4506,20,5
2508,17,5,4507,20,5
2509,15,5,4508,19,5
2510,12,5,4509,19,5
2511,10,5,4510,20,5
2512,11,5,4511,20,5
2513,11,5,4512,20,5
2514,10,5,4513,19,5
2515,9,5,4514,19,5
2516,8,5,4515,19,5
2517,8,5,4516,20,5
2518,11,5,4517,20,5
2519,14,5,4518,20,5
2520,14,5,4519,20,5
2521,11,5,4520,20,5
2522,10,5,4521,20,5
2523,8,5,4522,20,5
2524,6,5,4523,20,5
2525,6,5,4524,20,5
2526,12,5,4525,20,5
2527,16,5,4526,20,5
2528,15,5,4527,20,5
2529,15,5,4528,20,5
2530,14,5,4529,20,5
2531,13,5,4530,20,5
2532,12,5,4531,20,5
2533,11,5,4532,19,5
2534,9,5,4533,18,5
2535,7,5,4534,20,5
2536,10,5,4535,20,5
2537,10,5,4536,20,5
2538,8,5,4537,20,5
2539,7,5,4538,20,5
2540,11,5,4539,20,5
2541,12,5,4540,20,5
2542,10,5,4541,20,5
2543,8,5,4542,20,5
2544,8,5,4543,20,5
2545,11,5,4544,20,5
2546,12,5,4545,20,5
2547,11,5,4546,20,5
2548,9,5,4547,20,5
2549,8,5,4548,18,5
2550,6,5,4549,18,5
2551,3,5,4550,19,5
2552,1,5,4551,20,5
2553,3,5,4552,20,5
2554,7,5,4553,20,5
2555,8,5,4554,20,5
2556,5,5,4555,20,5
2557,5,5,4556,20,5
2558,7,5,4557,20,5
2559,7,5,4558,20,5
2560,6,5,4559,20,5
2561,5,5,4560,20,5
2562,5,5,4561,20,5
2563,9,5,4562,20,5
2564,9,5,4563,20,5
2565,9,5,4564,20,5
2566,9,5,4565,20,5
2567,8,5,4566,20,5
2568,6,5,4567,20,5
2569,4,5,4568,20,5
2570,1,5,4569,20,5
2571,-1,5,4570,20,5
2572,-1,5,4571,20,5
2573,0,5,4572,20,5
2574,0,5,4573,20,5
2575,3,5,4574,20,5
2576,3,5,4575,20,5
2577,2,5,4576,20,5
2578,3,5,4577,20,5
2579,4,5,4578,20,5
2580,5,5,4579,20,5
2581,5,5,4580,20,5
2582,3,5,4581,20,5
2583,2,5,4582,20,5
2584,4,5,4583,20,5
2585,6,5,4584,20,5
2586,5,5,4585,20,5
2587,5,5,4586,20,5
2588,6,5,4587,20,5
2589,6,5,4588,20,5
2590,5,5,4589,20,5
2591,5,5,4590,20,5
2592,4,5,4591,20,5
2593,5,5,4592,20,5
2594,4,5,4593,20,5
2595,3,5,4594,20,5
2596,4,5,4595,20,5
2597,7,5,4596,20,5
2598,9,5,4597,20,5
2599,11,5,4598,20,5
2600,12,5,4599,20,5
2601,14,5,4600,20,5
2602,14,5,4601,20,5
2603,12,5,4602,20,5
2604,12,5,4603,20,5
2605,14,5,4604,20,5
2606,13,5,4605,20,5
2607,9,5,4606,20,5
2608,6,5,4607,20,5
2609,7,5,4608,20,5
2610,9,5,4609,20,5
2611,11,5,4610,20,5
2612,12,5,4611,20,5
2613,13,5,4612,20,5
2614,15,5,4613,20,5
2615,15,5,4614,20,5
2616,14,5,4615,20,5
2617,12,5,4616,20,5
2618,10,5,4617,20,5
2619,9,5,4618,20,5
2620,9,5,4619,20,5
2621,8,5,4620,20,5
2622,8,5,4621,20,5
2623,9,5,4622,18,5
2624,9,5,4623,16,5
2625,9,5,4624,18,5
2626,7,5,4625,20,5
2627,5,5,4626,20,5
2628,4,5,4627,20,5
2629,8,5,4628,20,5
2630,11,5,4629,20,5
2631,9,5,4630,20,5
2632,6,5,4631,20,5
2633,6,5,4632,20,5
2634,6,5,4633,20,5
2635,7,5,4634,20,5
2636,9,5,4635,17,5
2637,9,5,4636,16,5
2638,10,5,4637,19,5
2639,11,5,4638,20,5
2640,12,5,4639,20,5
2641,13,5,4640,20,5
2642,13,5,4641,20,5
2643,14,5,4642,20,5
2644,14,5,4643,20,5
2645,16,5,4644,20,5
2646,15,5,4645,20,5
2647,15,5,4646,20,5
2648,17,5,4647,20,5
2649,20,5,4648,20,5
2650,20,5,4649,20,5
2651,20,5,4650,17,5
2652,20,5,4651,18,5
2653,20,5,4652,20,5
2654,20,5,4653,20,5
2655,20,5,4654,20,5
2656,20,5,4655,20,5
2657,20,5,4656,19,5
2658,20,5,4657,18,5
2659,20,5,4658,19,5
2660,20,5,4659,20,5
2661,20,5,4660,18,5
2662,20,5,4661,16,5
2663,20,5,4662,15,5
2664,20,5,4663,16,5
2665,20,5,4664,15,5
2666,20,5,4665,14,5
2667,20,5,4666,13,5
2668,20,5,4667,13,5
2669,20,5,4668,12,5
2670,20,5,4669,10,5
2671,20,5,4670,7,5
2672,20,5,4671,7,5
2673,20,5,4672,7,5
2674,20,5,4673,7,5
2675,20,5,4674,6,5
2676,20,5,4675,7,5
2677,20,5,4676,9,5
2678,20,5,4677,10,5
2679,20,5,4678,10,5
2680,20,5,4679,10,5
2681,20,5,4680,9,5
2682,20,5,4681,5,5
2683,20,5,4682,2,5
2684,20,5,4683,5,5
2685,20,5,4684,8,5
2686,20,5,4685,10,5
2687,18,5,4686,8,5
2688,3,5,4687,9,5
2689,-11,5,4688,11,5
2690,-22,5,4689,10,5
2691,-36,5,4690,10,5
2692,-55,5,4691,11,5
2693,-68,5,4692,13,5
2694,-68,5,4693,15,5
2695,-68,5,4694,17,5
2696,-68,5,4695,19,5
2697,-68,5,4696,20,5
2698,-68,5,4697,20,5
2699,-68,5,4698,20,5
2700,-53,5,4699,20,5
2701,-33,5,4700,20,5
2702,-14,5,4701,20,5
2703,0,5,4702,20,5
2704,11,5,4703,20,5
2705,20,5,4704,20,5
2706,20,5,4705,20,5
2707,20,5,4706,20,5
2708,20,5,4707,20,5
2709,20,5,4708,20,5
2710,20,5,4709,20,5
2711,20,5,4710,20,5
2712,20,5,4711,20,5
2713,20,5,4712,20,5
2714,20,5,4713,20,5
2715,20,5,4714,20,5
2716,20,5,4715,20,5
2717,20,5,4716,20,5
2718,20,5,4717,20,5
2719,20,5,4718,20,5
2720,20,5,4719,20,5
2721,20,5,4720,20,5
2722,20,5,4721,19,5
2723,20,5,4722,20,5
2724,20,5,4723,20,5
2725,20,5,4724,20,5
2726,20,5,4725,20,5
2727,20,5,4726,20,5
2728,20,5,4727,20,5
2729,20,5,4728,20,5
2730,20,5,4729,20,5
2731,20,5,4730,20,5
2732,20,5,4731,20,5
2733,20,5,4732,20,5
2734,20,5,4733,15,5
2735,20,5,4734,11,5
2736,20,5,4735,7,5
2737,20,5,4736,1,5
2738,20,5,4737,-10,5
2739,20,5,4738,-23,5
2740,20,5,4739,-41,5
2741,20,5,4740,-62,5
2742,20,5,4741,-68,5
2743,20,5,4742,-68,5
2744,20,5,4743,-68,5
2745,20,5,4744,-68,5
2746,20,5,4745,-68,5
2747,20,5,4746,-68,5
2748,20,5,4747,-68,5
2749,20,5,4748,-68,5
2750,20,5,4749,-68,5
2751,20,5,4750,-52,5
2752,20,5,4751,-34,5
2753,20,5,4752,-20,5
2754,20,5,4753,-7,5
2755,20,5,4754,2,5
2756,20,5,4755,8,5
2757,20,5,4756,12,5
2758,20,5,4757,12,5
2759,20,5,4758,10,5
2760,20,5,4759,11,5
2761,20,5,4760,14,5
2762,20,5,4761,17,5
2763,20,5,4762,20,5
2764,20,5,4763,20,5
2765,20,5,4764,20,5
2766,20,5,4765,20,5
2767,20,5,4766,20,5
2768,20,5,4767,20,5
2769,20,5,4768,20,5
2770,20,5,4769,18,5
2771,20,5,4770,17,5
2772,20,5,4771,15,5
2773,20,5,4772,13,5
2774,20,5,4773,13,5
2775,20,5,4774,15,5
2776,20,5,4775,17,5
2777,20,5,4776,18,5
2778,20,5,4777,20,5
2779,20,5,4778,20,5
2780,20,5,4779,20,5
2781,20,5,4780,20,5
2782,20,5,4781,18,5
2783,20,5,4782,16,5
2784,20,5,4783,16,5
2785,20,5,4784,16,5
2786,20,5,4785,15,5
2787,20,5,4786,16,5
2788,20,5,4787,15,5
2789,20,5,4788,13,5
2790,20,5,4789,14,5
2791,20,5,4790,17,5
2792,20,5,4791,15,5
2793,20,5,4792,12,5
2794,20,5,4793,11,5
2795,19,5,4794,13,5
2796,19,5,4795,14,5
2797,18,5,4796,16,5
2798,17,5,4797,19,5
2799,16,5,4798,20,5
2800,14,5,4799,20,5
2801,12,5,4800,20,5
2802,10,5,4801,20,5
2803,11,5,4802,20,5
2804,10,5,4803,20,5
2805,9,5,4804,18,5
2806,12,5,4805,15,5
2807,13,5,4806,13,5
2808,11,5,4807,16,5
2809,8,5,4808,14,5
2810,7,5,4809,13,5
2811,5,5,4810,13,5
2812,5,5,4811,11,5
2813,5,5,4812,8,5
2814,6,5,4813,7,5
2815,7,5,4814,9,5
2816,5,5,4815,12,5
2817,5,5,4816,17,5
2818,7,5,4817,20,5
2819,8,5,4818,20,5
2820,6,5,4819,20,5
2821,4,5,4820,20,5
2822,2,5,4821,20,5
2823,0,5,4822,20,5
2824,-2,5,4823,20,5
2825,-2,5,4824,20,5
2826,-1,5,4825,20,5
2827,0,5,4826,19,5
2828,0,5,4827,17,5
2829,0,5,4828,13,5
2830,-2,5,4829,11,5
2831,-5,5,4830,11,5
2832,-2,5,4831,12,5
2833,-2,5,4832,13,5
2834,-4,5,4833,12,5
2835,-5,5,4834,13,5
2836,-5,5,4835,12,5
2837,-6,5,4836,13,5
2838,-8,5,4837,14,5
2839,-10,5,4838,12,5
2840,-11,5,4839,11,5
2841,-12,5,4840,11,5
2842,-13,5,4841,10,5
2843,-14,5,4842,9,5
2844,-13,5,4843,12,5
2845,-11,5,4844,14,5
2846,-11,5,4845,16,5
2847,-11,5,4846,16,5
2848,-13,5,4847,14,5
2849,-11,5,4848,12,5
2850,-6,5,4849,9,5
2851,-3,5,4850,6,5
2852,0,5,4851,4,5
2853,1,5,4852,4,5
2854,1,5,4853,3,5
2855,0,5,4854,3,5
2856,-1,5,4855,0,5
2857,-1,5,4856,-2,5
2858,0,5,4857,-2,5
2859,1,5,4858,-2,5
2860,3,5,4859,-3,5
2861,5,5,4860,-2,5
2862,6,5,4861,-2,5
2863,7,5,4862,-2,5
2864,8,5,4863,-2,5
2865,6,5,4864,-1,5
2866,3,5,4865,-1,5
2867,3,5,4866,-2,5
2868,8,5,4867,-2,5
2869,13,5,4868,-1,5
2870,13,5,4869,0,5
2871,12,5,4870,0,5
2872,16,5,4871,0,5
2873,17,5,4872,-2,5
2874,16,5,4873,-5,5
2875,18,5,4874,-7,5
2876,20,5,4875,-9,5
2877,20,5,4876,-11,5
2878,20,5,4877,-10,5
2879,18,5,4878,-8,5
2880,17,5,4879,-8,5
2881,17,5,4880,-9,5
2882,15,5,4881,-12,5
2883,15,5,4882,-14,5
2884,16,5,4883,-12,5
2885,19,5,4884,-10,5
2886,20,5,4885,-11,5
2887,20,5,4886,-12,5
2888,19,5,4887,-15,5
2889,18,5,4888,-16,5
2890,17,5,4889,-17,5
2891,18,5,4890,-19,5
2892,20,5,4891,-16,5
2893,20,5,4892,-14,5
2894,20,5,4893,-12,5
2895,20,5,4894,-14,5
2896,20,5,4895,-17,5
2897,20,5,4896,-17,5
2898,20,5,4897,-14,5
2899,20,5,4898,-13,5
2900,20,5,4899,-13,5
2901,20,5,4900,-14,5
2902,20,5,4901,-14,5
2903,20,5,4902,-14,5
2904,20,5,4903,-13,5
2905,20,5,4904,-14,5
2906,20,5,4905,-12,5
2907,20,5,4906,-8,5
2908,20,5,4907,-7,5
2909,20,5,4908,-10,5
2910,20,5,4909,-13,5
2911,20,5,4910,-11,5
2912,20,5,4911,-7,5
2913,19,5,4912,-6,5
2914,16,5,4913,-5,5
2915,17,5,4914,-3,5
2916,20,5,4915,0,5
2917,20,5,4916,2,5
2918,20,5,4917,7,5
2919,20,5,4918,12,5
2920,20,5,4919,14,5
2921,20,5,4920,15,5
2922,19,5,4921,17,5
2923,18,5,4922,18,5
2924,18,5,4923,19,5
2925,17,5,4924,17,5
2926,14,5,4925,12,5
2927,14,5,4926,9,5
2928,16,5,4927,6,5
2929,19,5,4928,8,5
2930,20,5,4929,12,5
2931,20,5,4930,13,5
2932,20,5,4931,12,5
2933,19,5,4932,13,5
2934,18,5,4933,14,5
2935,17,5,4934,14,5
2936,15,5,4935,13,5
2937,13,5,4936,12,5
2938,12,5,4937,11,5
2939,11,5,4938,11,5
2940,12,5,4939,13,5
2941,14,5,4940,15,5
2942,15,5,4941,16,5
2943,15,5,4942,15,5
2944,15,5,4943,14,5
2945,16,5,4944,13,5
2946,15,5,4945,14,5
2947,15,5,4946,12,5
2948,14,5,4947,12,5
2949,13,5,4948,12,5
2950,10,5,4949,13,5
2951,7,5,4950,13,5
2952,3,5,4951,12,5
2953,2,5,4952,14,5
2954,7,5,4953,14,5
2955,12,5,4954,13,5
2956,13,5,4955,13,5
2957,12,5,4956,11,5
2958,14,5,4957,10,5
2959,17,5,4958,9,5
2960,20,5,4959,9,5
2961,20,5,4960,12,5
2962,20,5,4961,14,5
2963,17,5,4962,15,5
2964,14,5,4963,12,5
2965,11,5,4964,11,5
2966,9,5,4965,10,5
2967,10,5,4966,8,5
2968,14,5,4967,5,5
2969,16,5,4968,4,5
2970,17,5,4969,8,5
2971,17,5,4970,14,5
2972,13,5,4971,17,5
2973,10,5,4972,19,5
2974,9,5,4973,18,5
2975,9,5,4974,17,5
2976,9,5,4975,15,5
2977,7,5,4976,12,5
2978,6,5,4977,12,5
2979,5,5,4978,12,5
2980,10,5,4979,15,5
2981,12,5,4980,15,5
2982,15,5,4981,11,5
2983,16,5,4982,10,5
2984,16,5,4983,10,5
2985,15,5,4984,8,5
2986,14,5,4985,5,5
2987,13,5,4986,4,5
2988,11,5,4987,7,5
2989,10,5,4988,13,5
2990,10,5,4989,15,5
2991,11,5,4990,14,5
2992,8,5,4991,13,5
2993,4,5,4992,11,5
2994,3,5,4993,11,5
2995,5,5,4994,11,5
2996,9,5,4995,10,5
2997,11,5,4996,9,5
2998,13,5,4997,7,5
2999,17,5,4998,7,5
3000,18,5,4999,6,5
