TS,Reading,Flag,TS2,Reading2,Flag2
1,-7,5,2000,-11,5
2,-9,5,2001,-11,5
3,-9,5,2002,-10,5
4,-10,5,2003,-12,5
5,-10,5,2004,-16,5
6,-10,5,2005,-16,5
7,-8,5,2006,-16,5
8,-5,5,2007,-16,5
9,-6,5,2008,-16,5
10,-8,5,2009,-15,5
11,-7,5,2010,-13,5
12,-7,5,2011,-12,5
13,-8,5,2012,-11,5
14,-7,5,2013,-11,5
15,-6,5,2014,-12,5
16,-6,5,2015,-11,5
17,-7,5,2016,-11,5
18,-10,5,2017,-11,5
19,-10,5,2018,-11,5
20,-9,5,2019,-11,5
21,-8,5,2020,-12,5
22,-8,5,2021,-9,5
23,-7,5,2022,-8,5
24,-2,5,2023,-7,5
25,-3,5,2024,-9,5
26,-7,5,2025,-10,5
27,-6,5,2026,-8,5
28,-4,5,2027,-9,5
29,-5,5,2028,-9,5
30,-5,5,2029,-7,5
31,-6,5,2030,-3,5
32,-7,5,2031,-3,5
33,-11,5,2032,-7,5
34,-12,5,2033,-10,5
35,-9,5,2034,-11,5
36,-9,5,2035,-8,5
37,-7,5,2036,-8,5
38,-2,5,2037,-10,5
39,3,5,2038,-13,5
40,5,5,2039,-16,5
41,4,5,2040,-16,5
42,-2,5,2041,-14,5
43,-6,5,2042,-13,5
44,-8,5,2043,-10,5
45,-9,5,2044,-6,5
46,-10,5,2045,-3,5
47,-7,5,2046,-5,5
48,-4,5,2047,-8,5
49,-3,5,2048,-11,5
50,-5,5,2049,-12,5
51,-9,5,2050,-13,5
52,-11,5,2051,-15,5
53,-9,5,2052,-15,5
54,-7,5,2053,-10,5
55,-7,5,2054,-7,5
56,-7,5,2055,-7,5
57,-4,5,2056,-8,5
58,-2,5,2057,-11,5
59,-5,5,2058,-13,5
60,-7,5,2059,-13,5
61,-6,5,2060,-12,5
62,-5,5,2061,-13,5
63,-2,5,2062,-14,5
64,-1,5,2063,-14,5
65,-2,5,2064,-12,5
66,-3,5,2065,-11,5
67,-3,5,2066,-12,5
68,0,5,2067,-12,5
69,0,5,2068,-13,5
70,-1,5,2069,-16,5
71,0,5,2070,-14,5
72,0,5,2071,-10,5
73,2,5,2072,-9,5
74,6,5,2073,-9,5
75,6,5,2074,-10,5
76,3,5,2075,-9,5
77,2,5,2076,-6,5
78,-1,5,2077,-6,5
79,-1,5,2078,-7,5
80,0,5,2079,-8,5
81,0,5,2080,-7,5
82,-2,5,2081,-7,5
83,-3,5,2082,-7,5
84,-2,5,2083,-8,5
85,-4,5,2084,-11,5
86,-5,5,2085,-13,5
87,-5,5,2086,-10,5
88,-6,5,2087,-12,5
89,-6,5,2088,-14,5
90,-5,5,2089,-12,5
91,-3,5,2090,-9,5
92,1,5,2091,-9,5
93,6,5,2092,-9,5
94,6,5,2093,-9,5
95,2,5,2094,-8,5
96,1,5,2095,-8,5
97,3,5,2096,-9,5
98,6,5,2097,-9,5
99,7,5,2098,-11,5
100,5,5,2099,-13,5
101,3,5,2100,-12,5
102,3,5,2101,-12,5
103,2,5,2102,-12,5
104,2,5,2103,-12,5
105,1,5,2104,-12,5
106,0,5,2105,-12,5
107,-2,5,2106,-11,5
108,-2,5,2107,-13,5
109,-1,5,2108,-14,5
110,-2,5,2109,-13,5
111,0,5,2110,-11,5
112,-3,5,2111,-10,5
113,-7,5,2112,-10,5
114,-5,5,2113,-7,5
115,-4,5,2114,-4,5
116,-2,5,2115,-8,5
117,0,5,2116,-10,5
118,1,5,2117,-7,5
119,2,5,2118,-5,5
120,1,5,2119,-4,5
121,1,5,2120,-3,5
122,0,5,2121,0,5
123,0,5,2122,0,5
124,1,5,2123,-2,5
125,1,5,2124,-5,5
126,-2,5,2125,-4,5
127,-4,5,2126,0,5
128,-5,5,2127,5,5
129,-6,5,2128,10,5
130,-7,5,2129,12,5
131,-9,5,2130,10,5
132,-9,5,2131,2,5
133,-8,5,2132,-2,5
134,-8,5,2133,-5,5
135,-7,5,2134,-7,5
136,-4,5,2135,-8,5
137,-2,5,2136,-9,5
138,2,5,2137,-11,5
139,4,5,2138,-11,5
140,1,5,2139,-9,5
141,-2,5,2140,-7,5
142,1,5,2141,-4,5
143,3,5,2142,-4,5
144,3,5,2143,-5,5
145,8,5,2144,-9,5
146,14,5,2145,-8,5
147,14,5,2146,-7,5
148,16,5,2147,-8,5
149,20,5,2148,-8,5
150,23,5,2149,-8,5
151,33,5,2150,-6,5
152,47,5,2151,-5,5
153,47,5,2152,-9,5
154,47,5,2153,-11,5
155,47,5,2154,-11,5
156,47,5,2155,-12,5
157,47,5,2156,-13,5
158,47,5,2157,-12,5
159,47,5,2158,-12,5
160,41,5,2159,-11,5
161,33,5,2160,-9,5
162,23,5,2161,-7,5
163,12,5,2162,-9,5
164,5,5,2163,-12,5
165,1,5,2164,-15,5
166,0,5,2165,-14,5
167,-2,5,2166,-8,5
168,-1,5,2167,-6,5
169,0,5,2168,-8,5
170,-1,5,2169,-9,5
171,-3,5,2170,-10,5
172,-3,5,2171,-11,5
173,-2,5,2172,-9,5
174,-1,5,2173,-6,5
175,1,5,2174,-2,5
176,-1,5,2175,0,5
177,-10,5,2176,2,5
178,-15,5,2177,3,5
179,-15,5,2178,4,5
180,-14,5,2179,8,5
181,-12,5,2180,11,5
182,-11,5,2181,21,5
183,-10,5,2182,36,5
184,-10,5,2183,47,5
185,-10,5,2184,47,5
186,-8,5,2185,47,5
187,-4,5,2186,47,5
188,-4,5,2187,47,5
189,-5,5,2188,47,5
190,-5,5,2189,47,5
191,-7,5,2190,47,5
192,-8,5,2191,47,5
193,-9,5,2192,47,5
194,-12,5,2193,40,5
195,-13,5,2194,28,5
196,-11,5,2195,21,5
197,-11,5,2196,15,5
198,-11,5,2197,10,5
199,-13,5,2198,8,5
200,-10,5,2199,3,5
201,-10,5,2200,-2,5
202,-11,5,2201,-5,5
203,-9,5,2202,-7,5
204,-9,5,2203,-7,5
205,-8,5,2204,-8,5
206,-7,5,2205,-10,5
207,-8,5,2206,-8,5
208,-9,5,2207,-6,5
209,-7,5,2208,-5,5
210,-8,5,2209,-3,5
211,-7,5,2210,-3,5
212,-6,5,2211,-4,5
213,-6,5,2212,-5,5
214,-6,5,2213,-5,5
215,-8,5,2214,-5,5
216,-11,5,2215,-6,5
217,-11,5,2216,-6,5
218,-11,5,2217,-7,5
219,-14,5,2218,-9,5
220,-15,5,2219,-9,5
221,-17,5,2220,-5,5
222,-17,5,2221,-4,5
223,-17,5,2222,-4,5
224,-17,5,2223,-4,5
225,-17,5,2224,-5,5
226,-17,5,2225,-7,5
227,-17,5,2226,-9,5
228,-17,5,2227,-9,5
229,-17,5,2228,-10,5
230,-16,5,2229,-12,5
231,-16,5,2230,-10,5
232,-17,5,2231,-8,5
233,-17,5,2232,-5,5
234,-15,5,2233,-4,5
235,-15,5,2234,-5,5
236,-13,5,2235,-5,5
237,-11,5,2236,-8,5
238,-9,5,2237,-9,5
239,-7,5,2238,-11,5
240,-9,5,2239,-11,5
241,-10,5,2240,-9,5
242,-11,5,2241,-8,5
243,-8,5,2242,-9,5
244,-7,5,2243,-10,5
245,-8,5,2244,-10,5
246,-8,5,2245,-8,5
247,-6,5,2246,-8,5
248,-8,5,2247,-8,5
249,-11,5,2248,-9,5
250,-13,5,2249,-12,5
251,-13,5,2250,-14,5
252,-12,5,2251,-14,5
253,-13,5,2252,-10,5
254,-12,5,2253,-7,5
255,-8,5,2254,-7,5
256,-6,5,2255,-10,5
257,-7,5,2256,-11,5
258,-8,5,2257,-11,5
259,-8,5,2258,-9,5
260,-7,5,2259,-9,5
261,-6,5,2260,-12,5
262,-6,5,2261,-14,5
263,-7,5,2262,-13,5
264,-8,5,2263,-8,5
265,-6,5,2264,-6,5
266,-5,5,2265,-5,5
267,-4,5,2266,-3,5
268,0,5,2267,-2,5
269,4,5,2268,-2,5
270,5,5,2269,-3,5
271,6,5,2270,-5,5
272,4,5,2271,-7,5
273,-1,5,2272,-9,5
274,-5,5,2273,-10,5
275,-6,5,2274,-12,5
276,-5,5,2275,-13,5
277,-2,5,2276,-14,5
278,-1,5,2277,-14,5
279,-2,5,2278,-15,5
280,-4,5,2279,-12,5
281,-5,5,2280,-8,5
282,-3,5,2281,-5,5
283,-3,5,2282,-4,5
284,-4,5,2283,-2,5
285,-3,5,2284,-2,5
286,0,5,2285,-3,5
287,3,5,2286,-3,5
288,4,5,2287,-3,5
289,3,5,2288,-3,5
290,4,5,2289,-4,5
291,8,5,2290,-7,5
292,10,5,2291,-8,5
293,9,5,2292,-8,5
294,8,5,2293,-8,5
295,6,5,2294,-5,5
296,5,5,2295,-1,5
297,3,5,2296,1,5
298,-1,5,2297,3,5
299,-3,5,2298,3,5
300,-4,5,2299,5,5
301,-3,5,2300,4,5
302,0,5,2301,1,5
303,1,5,2302,-1,5
304,0,5,2303,0,5
305,-2,5,2304,2,5
306,-3,5,2305,2,5
307,-1,5,2306,1,5
308,0,5,2307,0,5
309,4,5,2308,-1,5
310,7,5,2309,-2,5
311,7,5,2310,-1,5
312,4,5,2311,0,5
313,2,5,2312,2,5
314,1,5,2313,4,5
315,0,5,2314,8,5
316,-2,5,2315,10,5
317,-4,5,2316,10,5
318,-3,5,2317,10,5
319,-2,5,2318,8,5
320,-1,5,2319,5,5
321,-1,5,2320,7,5
322,-3,5,2321,9,5
323,-5,5,2322,9,5
324,-7,5,2323,10,5
325,-8,5,2324,14,5
326,-9,5,2325,16,5
327,-11,5,2326,15,5
328,-11,5,2327,11,5
329,-13,5,2328,9,5
330,-13,5,2329,12,5
331,-15,5,2330,14,5
332,-17,5,2331,13,5
333,-16,5,2332,13,5
334,-13,5,2333,13,5
335,-11,5,2334,14,5
336,-9,5,2335,16,5
337,-6,5,2336,14,5
338,-7,5,2337,13,5
339,-9,5,2338,16,5
340,-10,5,2339,16,5
341,-9,5,2340,13,5
342,-6,5,2341,10,5
343,-9,5,2342,7,5
344,-12,5,2343,8,5
345,-15,5,2344,8,5
346,-17,5,2345,6,5
347,-17,5,2346,5,5
348,-17,5,2347,6,5
349,-17,5,2348,7,5
350,-17,5,2349,9,5
351,-17,5,2350,7,5
352,-17,5,2351,2,5
353,-17,5,2352,1,5
354,-15,5,2353,1,5
355,-13,5,2354,0,5
356,-15,5,2355,0,5
357,-17,5,2356,1,5
358,-17,5,2357,3,5
359,-17,5,2358,3,5
360,-17,5,2359,2,5
361,-17,5,2360,2,5
362,-17,5,2361,4,5
363,-17,5,2362,3,5
364,-17,5,2363,2,5
365,-17,5,2364,-4,5
366,-17,5,2365,-9,5
367,-17,5,2366,-11,5
368,-14,5,2367,-12,5
369,-14,5,2368,-12,5
370,-16,5,2369,-11,5
371,-17,5,2370,-8,5
372,-17,5,2371,-4,5
373,-17,5,2372,-1,5
374,-17,5,2373,0,5
375,-17,5,2374,0,5
376,-17,5,2375,0,5
377,-17,5,2376,0,5
378,-17,5,2377,-2,5
379,-17,5,2378,-4,5
380,-13,5,2379,-4,5
381,-15,5,2380,-4,5
382,-17,5,2381,-3,5
383,-17,5,2382,-1,5
384,-17,5,2383,-2,5
385,-16,5,2384,-6,5
386,-16,5,2385,-8,5
387,-16,5,2386,-6,5
388,-17,5,2387,-6,5
389,-17,5,2388,-9,5
390,-17,5,2389,-11,5
391,-17,5,2390,-10,5
392,-17,5,2391,-10,5
393,-17,5,2392,-9,5
394,-17,5,2393,-5,5
395,-17,5,2394,-1,5
396,-14,5,2395,0,5
397,-14,5,2396,-2,5
398,-17,5,2397,-6,5
399,-17,5,2398,-13,5
400,-14,5,2399,-16,5
401,-14,5,2400,-17,5
402,-12,5,2401,-15,5
403,-12,5,2402,-11,5
404,-13,5,2403,-9,5
405,-15,5,2404,-7,5
406,-15,5,2405,-7,5
407,-14,5,2406,-9,5
408,-15,5,2407,-12,5
409,-17,5,2408,-13,5
410,-17,5,2409,-10,5
411,-17,5,2410,-10,5
412,-17,5,2411,-10,5
413,-17,5,2412,-12,5
414,-17,5,2413,-13,5
415,-17,5,2414,-11,5
416,-17,5,2415,-10,5
417,-17,5,2416,-8,5
418,-14,5,2417,-7,5
419,-7,5,2418,-7,5
420,-6,5,2419,-5,5
421,-8,5,2420,-6,5
422,-12,5,2421,-8,5
423,-15,5,2422,-9,5
424,-16,5,2423,-9,5
425,-17,5,2424,-11,5
426,-17,5,2425,-13,5
427,-17,5,2426,-12,5
428,-14,5,2427,-10,5
429,-17,5,2428,-8,5
430,-17,5,2429,-10,5
431,-17,5,2430,-10,5
432,-16,5,2431,-11,5
433,-14,5,2432,-12,5
434,-14,5,2433,-13,5
435,-14,5,2434,-13,5
436,-12,5,2435,-11,5
437,-10,5,2436,-10,5
438,-10,5,2437,-8,5
439,-13,5,2438,-8,5
440,-14,5,2439,-7,5
441,-16,5,2440,-7,5
442,-17,5,2441,-11,5
443,-17,5,2442,-13,5
444,-17,5,2443,-8,5
445,-17,5,2444,-6,5
446,-17,5,2445,-6,5
447,-15,5,2446,-8,5
448,-15,5,2447,-11,5
449,-15,5,2448,-11,5
450,-17,5,2449,-10,5
451,-15,5,2450,-8,5
452,-13,5,2451,-9,5
453,-11,5,2452,-9,5
454,-11,5,2453,-10,5
455,-13,5,2454,-9,5
456,-16,5,2455,-8,5
457,-17,5,2456,-6,5
458,-17,5,2457,-3,5
459,-17,5,2458,-4,5
460,-17,5,2459,-6,5
461,-17,5,2460,-10,5
462,-17,5,2461,-13,5
463,-17,5,2462,-15,5
464,-17,5,2463,-15,5
465,-17,5,2464,-16,5
466,-17,5,2465,-15,5
467,-17,5,2466,-11,5
468,-14,5,2467,-7,5
469,-12,5,2468,-6,5
470,-12,5,2469,-4,5
471,-13,5,2470,-2,5
472,-14,5,2471,-1,5
473,-12,5,2472,-2,5
474,-12,5,2473,-2,5
475,-12,5,2474,-2,5
476,-12,5,2475,-3,5
477,-12,5,2476,-7,5
478,-10,5,2477,-13,5
479,-9,5,2478,-17,5
480,-10,5,2479,-16,5
481,-11,5,2480,-14,5
482,-12,5,2481,-9,5
483,-13,5,2482,-9,5
484,-13,5,2483,-7,5
485,-15,5,2484,-6,5
486,-14,5,2485,-4,5
487,-14,5,2486,-3,5
488,-14,5,2487,-6,5
489,-14,5,2488,-7,5
490,-14,5,2489,-7,5
491,-13,5,2490,-7,5
492,-12,5,2491,-7,5
493,-16,5,2492,-7,5
494,-15,5,2493,-7,5
495,-13,5,2494,-4,5
496,-10,5,2495,-3,5
497,-7,5,2496,-4,5
498,-10,5,2497,-7,5
499,-14,5,2498,-10,5
500,-17,5,2499,-9,5
501,-17,5,2500,-11,5
502,-16,5,2501,-12,5
503,-15,5,2502,-9,5
504,-15,5,2503,-10,5
505,-15,5,2504,-11,5
506,-17,5,2505,-12,5
507,-17,5,2506,-14,5
508,-17,5,2507,-12,5
509,-16,5,2508,-11,5
510,-13,5,2509,-8,5
511,-11,5,2510,-6,5
512,-11,5,2511,-7,5
513,-12,5,2512,-7,5
514,-14,5,2513,-5,5
515,-16,5,2514,-3,5
516,-15,5,2515,-2,5
517,-15,5,2516,-3,5
518,-12,5,2517,-5,5
519,-11,5,2518,-9,5
520,-12,5,2519,-9,5
521,-13,5,2520,-6,5
522,-12,5,2521,-5,5
523,-10,5,2522,-3,5
524,-7,5,2523,-1,5
525,-6,5,2524,-1,5
526,-9,5,2525,-7,5
527,-11,5,2526,-12,5
528,-13,5,2527,-10,5
529,-13,5,2528,-10,5
530,-13,5,2529,-9,5
531,-13,5,2530,-7,5
532,-10,5,2531,-7,5
533,-7,5,2532,-6,5
534,-9,5,2533,-3,5
535,-13,5,2534,-2,5
536,-16,5,2535,-5,5
537,-16,5,2536,-5,5
538,-15,5,2537,-3,5
539,-17,5,2538,-3,5
540,-17,5,2539,-7,5
541,-17,5,2540,-8,5
542,-16,5,2541,-5,5
543,-16,5,2542,-2,5
544,-17,5,2543,-1,5
545,-15,5,2544,-4,5
546,-14,5,2545,-6,5
547,-14,5,2546,-4,5
548,-14,5,2547,-3,5
549,-13,5,2548,-3,5
550,-13,5,2549,-2,5
551,-13,5,2550,1,5
552,-12,5,2551,3,5
553,-10,5,2552,2,5
554,-9,5,2553,-1,5
555,-11,5,2554,-2,5
556,-14,5,2555,0,5
557,-12,5,2556,0,5
558,-11,5,2557,-2,5
559,-8,5,2558,-2,5
560,-6,5,2559,-2,5
561,-7,5,2560,-1,5
562,-9,5,2561,0,5
563,-9,5,2562,-4,5
564,-11,5,2563,-5,5
565,-15,5,2564,-5,5
566,-16,5,2565,-4,5
567,-15,5,2566,-2,5
568,-14,5,2567,-1,5
569,-13,5,2568,1,5
570,-12,5,2569,4,5
571,-11,5,2570,7,5
572,-11,5,2571,7,5
573,-12,5,2572,6,5
574,-12,5,2573,5,5
575,-15,5,2574,2,5
576,-14,5,2575,2,5
577,-12,5,2576,4,5
578,-12,5,2577,2,5
579,-13,5,2578,1,5
580,-12,5,2579,0,5
581,-13,5,2580,-1,5
582,-11,5,2581,1,5
583,-9,5,2582,2,5
584,-7,5,2583,0,5
585,-7,5,2584,-1,5
586,-9,5,2585,0,5
587,-11,5,2586,0,5
588,-8,5,2587,-1,5
589,-6,5,2588,-1,5
590,-8,5,2589,-1,5
591,-10,5,2590,-1,5
592,-11,5,2591,0,5
593,-14,5,2592,0,5
594,-16,5,2593,1,5
595,-17,5,2594,3,5
596,-15,5,2595,2,5
597,-11,5,2596,-1,5
598,-8,5,2597,-4,5
599,-7,5,2598,-7,5
600,-6,5,2599,-9,5
601,-5,5,2600,-11,5
602,-3,5,2601,-12,5
603,-1,5,2602,-10,5
604,-1,5,2603,-9,5
605,-2,5,2604,-11,5
606,-1,5,2605,-10,5
607,-1,5,2606,-7,5
608,-1,5,2607,-5,5
609,-3,5,2608,-7,5
610,-1,5,2609,-9,5
611,0,5,2610,-11,5
612,-2,5,2611,-12,5
613,-2,5,2612,-13,5
614,-2,5,2613,-15,5
615,-5,5,2614,-16,5
616,-8,5,2615,-16,5
617,-8,5,2616,-15,5
618,-9,5,2617,-13,5
619,-10,5,2618,-13,5
620,-12,5,2619,-14,5
621,-13,5,2620,-12,5
622,-12,5,2621,-12,5
623,-9,5,2622,-13,5
624,-10,5,2623,-14,5
625,-9,5,2624,-14,5
626,-12,5,2625,-12,5
627,-14,5,2626,-10,5
628,-15,5,2627,-9,5
629,-17,5,2628,-14,5
630,-17,5,2629,-17,5
631,-17,5,2630,-14,5
632,-17,5,2631,-11,5
633,-17,5,2632,-9,5
634,-16,5,2633,-8,5
635,-15,5,2634,-8,5
636,-13,5,2635,-9,5
637,-11,5,2636,-9,5
638,-13,5,2637,-10,5
639,-13,5,2638,-9,5
640,-12,5,2639,-8,5
641,-11,5,2640,-8,5
642,-10,5,2641,-8,5
643,-9,5,2642,-9,5
644,-8,5,2643,-10,5
645,-8,5,2644,-12,5
646,-10,5,2645,-11,5
647,-10,5,2646,-10,5
648,-9,5,2647,-12,5
649,-10,5,2648,-15,5
650,-9,5,2649,-17,5
651,-10,5,2650,-17,5
652,-10,5,2651,-17,5
653,-7,5,2652,-17,5
654,-4,5,2653,-17,5
655,-3,5,2654,-17,5
656,1,5,2655,-17,5
657,5,5,2656,-17,5
658,8,5,2657,-17,5
659,13,5,2658,-17,5
660,21,5,2659,-17,5
661,25,5,2660,-17,5
662,35,5,2661,-17,5
663,47,5,2662,-17,5
664,47,5,2663,-17,5
665,47,5,2664,-17,5
666,47,5,2665,-17,5
667,47,5,2666,-17,5
668,47,5,2667,-17,5
669,47,5,2668,-17,5
670,47,5,2669,-17,5
671,45,5,2670,-17,5
672,33,5,2671,-17,5
673,21,5,2672,-17,5
674,12,5,2673,-17,5
675,8,5,2674,-17,5
676,4,5,2675,-17,5
677,1,5,2676,-17,5
678,-1,5,2677,-17,5
679,0,5,2678,-17,5
680,-2,5,2679,-17,5
681,-4,5,2680,-17,5
682,-2,5,2681,-17,5
683,-1,5,2682,-17,5
684,-2,5,2683,-17,5
685,-6,5,2684,-17,5
686,-8,5,2685,-17,5
687,-11,5,2686,-17,5
688,-14,5,2687,-12,5
689,-15,5,2688,-3,5
690,-15,5,2689,0,5
691,-13,5,2690,5,5
692,-14,5,2691,16,5
693,-14,5,2692,28,5
694,-10,5,2693,43,5
695,-6,5,2694,47,5
696,-5,5,2695,47,5
697,-6,5,2696,47,5
698,-7,5,2697,47,5
699,-7,5,2698,43,5
700,-7,5,2699,33,5
701,-8,5,2700,26,5
702,-10,5,2701,16,5
703,-11,5,2702,8,5
704,-12,5,2703,0,5
705,-10,5,2704,-8,5
706,-10,5,2705,-14,5
707,-11,5,2706,-17,5
708,-12,5,2707,-17,5
709,-17,5,2708,-17,5
710,-17,5,2709,-17,5
711,-17,5,2710,-17,5
712,-16,5,2711,-17,5
713,-13,5,2712,-17,5
714,-13,5,2713,-17,5
715,-13,5,2714,-17,5
716,-10,5,2715,-17,5
717,-9,5,2716,-17,5
718,-10,5,2717,-17,5
719,-10,5,2718,-17,5
720,-9,5,2719,-17,5
721,-11,5,2720,-17,5
722,-12,5,2721,-17,5
723,-10,5,2722,-17,5
724,-7,5,2723,-17,5
725,-5,5,2724,-17,5
726,-5,5,2725,-17,5
727,-10,5,2726,-17,5
728,-13,5,2727,-17,5
729,-15,5,2728,-17,5
730,-15,5,2729,-17,5
731,-14,5,2730,-17,5
732,-15,5,2731,-17,5
733,-17,5,2732,-17,5
734,-16,5,2733,-17,5
735,-14,5,2734,-17,5
736,-14,5,2735,-17,5
737,-13,5,2736,-17,5
738,-15,5,2737,-17,5
739,-16,5,2738,-17,5
740,-13,5,2739,-17,5
741,-12,5,2740,-17,5
742,-12,5,2741,-17,5
743,-12,5,2742,-17,5
744,-10,5,2743,-17,5
745,-11,5,2744,-17,5
746,-10,5,2745,-17,5
747,-8,5,2746,-17,5
748,-6,5,2747,-17,5
749,-9,5,2748,-17,5
750,-11,5,2749,-17,5
751,-15,5,2750,-17,5
752,-16,5,2751,-17,5
753,-15,5,2752,-17,5
754,-15,5,2753,-17,5
755,-15,5,2754,-17,5
756,-15,5,2755,-17,5
757,-13,5,2756,-17,5
758,-13,5,2757,-17,5
759,-14,5,2758,-17,5
760,-12,5,2759,-17,5
761,-12,5,2760,-17,5
762,-13,5,2761,-17,5
763,-16,5,2762,-17,5
764,-16,5,2763,-17,5
765,-14,5,2764,-17,5
766,-13,5,2765,-17,5
767,-11,5,2766,-17,5
768,-10,5,2767,-17,5
769,-7,5,2768,-17,5
770,-5,5,2769,-17,5
771,-5,5,2770,-17,5
772,-7,5,2771,-17,5
773,-5,5,2772,-17,5
774,-4,5,2773,-17,5
775,-5,5,2774,-17,5
776,-6,5,2775,-17,5
777,-5,5,2776,-17,5
778,-1,5,2777,-17,5
779,-1,5,2778,-17,5
780,-3,5,2779,-17,5
781,-6,5,2780,-17,5
782,-7,5,2781,-17,5
783,-2,5,2782,-17,5
784,0,5,2783,-17,5
785,-1,5,2784,-17,5
786,-3,5,2785,-17,5
787,-5,5,2786,-17,5
788,-5,5,2787,-17,5
789,-5,5,2788,-17,5
790,-5,5,2789,-17,5
791,-5,5,2790,-17,5
792,-1,5,2791,-17,5
793,2,5,2792,-17,5
794,4,5,2793,-17,5
795,7,5,2794,-17,5
796,8,5,2795,-17,5
797,5,5,2796,-17,5
798,5,5,2797,-17,5
799,6,5,2798,-16,5
800,6,5,2799,-15,5
801,3,5,2800,-12,5
802,1,5,2801,-10,5
803,-1,5,2802,-11,5
804,-2,5,2803,-9,5
805,-1,5,2804,-8,5
806,-1,5,2805,-12,5
807,0,5,2806,-14,5
808,0,5,2807,-13,5
809,-3,5,2808,-10,5
810,-4,5,2809,-9,5
811,-1,5,2810,-7,5
812,0,5,2811,-6,5
813,2,5,2812,-6,5
814,2,5,2813,-7,5
815,1,5,2814,-9,5
816,0,5,2815,-7,5
817,0,5,2816,-7,5
818,0,5,2817,-10,5
819,0,5,2818,-11,5
820,2,5,2819,-9,5
821,5,5,2820,-7,5
822,4,5,2821,-5,5
823,1,5,2822,-3,5
824,0,5,2823,0,5
825,0,5,2824,-1,5
826,0,5,2825,-2,5
827,1,5,2826,-4,5
828,3,5,2827,-3,5
829,5,5,2828,-4,5
830,2,5,2829,-2,5
831,-3,5,2830,0,5
832,-4,5,2831,-3,5
833,-4,5,2832,-2,5
834,-4,5,2833,0,5
835,-5,5,2834,0,5
836,-4,5,2835,0,5
837,-2,5,2836,1,5
838,-1,5,2837,3,5
839,-1,5,2838,5,5
840,-1,5,2839,7,5
841,1,5,2840,8,5
842,-1,5,2841,8,5
843,-6,5,2842,8,5
844,-9,5,2843,6,5
845,-14,5,2844,4,5
846,-17,5,2845,4,5
847,-16,5,2846,4,5
848,-16,5,2847,5,5
849,-14,5,2848,4,5
850,-13,5,2849,-1,5
851,-12,5,2850,-3,5
852,-12,5,2851,-6,5
853,-13,5,2852,-7,5
854,-13,5,2853,-7,5
855,-14,5,2854,-5,5
856,-15,5,2855,-4,5
857,-14,5,2856,-3,5
858,-11,5,2857,-4,5
859,-10,5,2858,-5,5
860,-8,5,2859,-7,5
861,-9,5,2860,-8,5
862,-12,5,2861,-9,5
863,-11,5,2862,-10,5
864,-10,5,2863,-10,5
865,-11,5,2864,-7,5
866,-13,5,2865,-4,5
867,-13,5,2866,-4,5
868,-13,5,2867,-9,5
869,-12,5,2868,-12,5
870,-9,5,2869,-12,5
871,-8,5,2870,-12,5
872,-11,5,2871,-15,5
873,-10,5,2872,-16,5
874,-5,5,2873,-15,5
875,-6,5,2874,-16,5
876,-11,5,2875,-17,5
877,-13,5,2876,-17,5
878,-14,5,2877,-17,5
879,-14,5,2878,-16,5
880,-15,5,2879,-14,5
881,-13,5,2880,-13,5
882,-13,5,2881,-12,5
883,-12,5,2882,-12,5
884,-13,5,2883,-13,5
885,-13,5,2884,-16,5
886,-11,5,2885,-17,5
887,-10,5,2886,-17,5
888,-11,5,2887,-15,5
889,-12,5,2888,-14,5
890,-13,5,2889,-13,5
891,-12,5,2890,-14,5
892,-13,5,2891,-17,5
893,-12,5,2892,-17,5
894,-10,5,2893,-17,5
895,-10,5,2894,-17,5
896,-9,5,2895,-17,5
897,-8,5,2896,-17,5
898,-7,5,2897,-17,5
899,-9,5,2898,-17,5
900,-12,5,2899,-17,5
901,-15,5,2900,-17,5
902,-17,5,2901,-17,5
903,-17,5,2902,-17,5
904,-17,5,2903,-17,5
905,-12,5,2904,-17,5
906,-11,5,2905,-17,5
907,-12,5,2906,-17,5
908,-11,5,2907,-17,5
909,-10,5,2908,-17,5
910,-8,5,2909,-17,5
911,-9,5,2910,-17,5
912,-10,5,2911,-17,5
913,-12,5,2912,-17,5
914,-13,5,2913,-14,5
915,-15,5,2914,-15,5
916,-15,5,2915,-17,5
917,-13,5,2916,-17,5
918,-13,5,2917,-17,5
919,-15,5,2918,-17,5
920,-14,5,2919,-17,5
921,-12,5,2920,-17,5
922,-12,5,2921,-17,5
923,-12,5,2922,-17,5
924,-13,5,2923,-17,5
925,-14,5,2924,-16,5
926,-16,5,2925,-13,5
927,-14,5,2926,-13,5
928,-10,5,2927,-15,5
929,-9,5,2928,-17,5
930,-9,5,2929,-17,5
931,-7,5,2930,-17,5
932,-7,5,2931,-17,5
933,-5,5,2932,-17,5
934,-5,5,2933,-17,5
935,-5,5,2934,-15,5
936,-4,5,2935,-13,5
937,-4,5,2936,-11,5
938,-5,5,2937,-11,5
939,-7,5,2938,-11,5
940,-11,5,2939,-12,5
941,-15,5,2940,-14,5
942,-16,5,2941,-15,5
943,-15,5,2942,-15,5
944,-14,5,2943,-14,5
945,-15,5,2944,-15,5
946,-13,5,2945,-14,5
947,-11,5,2946,-14,5
948,-12,5,2947,-14,5
949,-12,5,2948,-13,5
950,-10,5,2949,-11,5
951,-9,5,2950,-8,5
952,-7,5,2951,-4,5
953,-6,5,2952,-2,5
954,-7,5,2953,-7,5
955,-7,5,2954,-11,5
956,-6,5,2955,-11,5
957,-6,5,2956,-11,5
958,-6,5,2957,-14,5
959,-7,5,2958,-16,5
960,-9,5,2959,-17,5
961,-10,5,2960,-17,5
962,-10,5,2961,-17,5
963,-9,5,2962,-17,5
964,-8,5,2963,-14,5
965,-10,5,2964,-11,5
966,-13,5,2965,-7,5
967,-11,5,2966,-8,5
968,-8,5,2967,-12,5
969,-9,5,2968,-14,5
970,-8,5,2969,-16,5
971,-9,5,2970,-16,5
972,-13,5,2971,-12,5
973,-13,5,2972,-9,5
974,-12,5,2973,-8,5
975,-13,5,2974,-8,5
976,-14,5,2975,-7,5
977,-16,5,2976,-5,5
978,-14,5,2977,-4,5
979,-14,5,2978,-3,5
980,-14,5,2979,-7,5
981,-14,5,2980,-9,5
982,-17,5,2981,-13,5
983,-15,5,2982,-15,5
984,-13,5,2983,-15,5
985,-11,5,2984,-13,5
986,-11,5,2985,-12,5
987,-14,5,2986,-11,5
988,-15,5,2987,-9,5
989,-16,5,2988,-7,5
990,-16,5,2989,-7,5
991,-15,5,2990,-8,5
992,-17,5,2991,-6,5
993,-15,5,2992,-2,5
994,-14,5,2993,-1,5
995,-15,5,2994,-3,5
996,-17,5,2995,-7,5
997,-16,5,2996,-8,5
998,-16,5,2997,-10,5
999,-17,5,2998,-14,5
1000,-17,5,2999,-15,5
1001,-17,5,3000,-17,5
1002,-14,5,3001,-17,5
1003,-9,5,3002,-17,5
1004,-9,5,3003,-17,5
1005,-9,5,3004,-17,5
1006,-8,5,3005,-16,5
1007,-11,5,3006,-15,5
1008,-17,5,3007,-15,5
1009,-17,5,3008,-14,5
1010,-14,5,3009,-13,5
1011,-10,5,3010,-12,5
1012,-6,5,3011,-11,5
1013,-2,5,3012,-10,5
1014,-4,5,3013,-9,5
1015,-10,5,3014,-9,5
1016,-12,5,3015,-7,5
1017,-14,5,3016,-8,5
1018,-14,5,3017,-10,5
1019,-12,5,3018,-11,5
1020,-12,5,3019,-12,5
1021,-15,5,3020,-12,5
1022,-16,5,3021,-13,5
1023,-17,5,3022,-14,5
1024,-17,5,3023,-11,5
1025,-17,5,3024,-8,5
1026,-15,5,3025,-6,5
1027,-12,5,3026,-7,5
1028,-9,5,3027,-5,5
1029,-7,5,3028,-3,5
1030,-10,5,3029,-4,5
1031,-13,5,3030,-7,5
1032,-9,5,3031,-11,5
1033,-5,5,3032,-13,5
1034,-5,5,3033,-12,5
1035,-8,5,3034,-9,5
1036,-11,5,3035,-5,5
1037,-11,5,3036,-3,5
1038,-7,5,3037,-6,5
1039,-7,5,3038,-9,5
1040,-11,5,3039,-11,5
1041,-10,5,3040,-13,5
1042,-8,5,3041,-10,5
1043,-9,5,3042,-9,5
1044,-11,5,3043,-9,5
1045,-13,5,3044,-8,5
1046,-14,5,3045,-8,5
1047,-15,5,3046,-10,5
1048,-16,5,3047,-12,5
1049,-15,5,3048,-10,5
1050,-13,5,3049,-7,5
1051,-13,5,3050,-7,5
1052,-12,5,3051,-7,5
1053,-12,5,3052,-8,5
1054,-10,5,3053,-7,5
1055,-10,5,3054,-7,5
1056,-10,5,3055,-9,5
1057,-7,5,3056,-15,5
1058,-6,5,3057,-17,5
1059,-6,5,3058,-14,5
1060,-5,5,3059,-9,5
1061,-4,5,3060,-5,5
1062,-5,5,3061,-4,5
1063,-5,5,3062,-5,5
1064,-5,5,3063,-8,5
1065,-4,5,3064,-8,5
1066,-4,5,3065,-6,5
1067,-6,5,3066,-4,5
1068,-8,5,3067,-6,5
1069,-9,5,3068,-8,5
1070,-10,5,3069,-9,5
1071,-12,5,3070,-10,5
1072,-13,5,3071,-10,5
1073,-11,5,3072,-9,5
1074,-8,5,3073,-6,5
1075,-7,5,3074,-4,5
1076,-6,5,3075,-2,5
1077,-5,5,3076,-3,5
1078,-5,5,3077,-6,5
1079,-3,5,3078,-6,5
1080,-2,5,3079,-10,5
1081,-4,5,3080,-12,5
1082,-3,5,3081,-13,5
1083,-2,5,3082,-12,5
1084,-2,5,3083,-10,5
1085,-4,5,3084,-10,5
1086,-9,5,3085,-9,5
1087,-11,5,3086,-8,5
1088,-10,5,3087,-8,5
1089,-9,5,3088,-6,5
1090,-9,5,3089,-6,5
1091,-9,5,3090,-8,5
1092,-9,5,3091,-11,5
1093,-10,5,3092,-9,5
1094,-10,5,3093,-6,5
1095,-8,5,3094,-7,5
1096,-3,5,3095,-8,5
1097,0,5,3096,-8,5
1098,3,5,3097,-8,5
1099,6,5,3098,-8,5
1100,5,5,3099,-8,5
1101,4,5,3100,-6,5
1102,3,5,3101,-3,5
1103,1,5,3102,-5,5
1104,-2,5,3103,-7,5
1105,-5,5,3104,-8,5
1106,-9,5,3105,-10,5
1107,-9,5,3106,-13,5
1108,-6,5,3107,-13,5
1109,-6,5,3108,-12,5
1110,-8,5,3109,-10,5
1111,-10,5,3110,-7,5
1112,-9,5,3111,-7,5
1113,-8,5,3112,-7,5
1114,-8,5,3113,-8,5
1115,-7,5,3114,-5,5
1116,-6,5,3115,-2,5
1117,-3,5,3116,-3,5
1118,-3,5,3117,-4,5
1119,-3,5,3118,-6,5
1120,-1,5,3119,-6,5
1121,1,5,3120,-7,5
1122,0,5,3121,-8,5
1123,-1,5,3122,-8,5
1124,-4,5,3123,-6,5
1125,-6,5,3124,-4,5
1126,-9,5,3125,-5,5
1127,-9,5,3126,-9,5
1128,-8,5,3127,-11,5
1129,-7,5,3128,-8,5
1130,-6,5,3129,-6,5
1131,-5,5,3130,-7,5
1132,-4,5,3131,-5,5
1133,-3,5,3132,-2,5
1134,0,5,3133,-3,5
1135,-1,5,3134,-2,5
1136,-4,5,3135,-1,5
1137,-5,5,3136,2,5
1138,-7,5,3137,1,5
1139,-8,5,3138,0,5
1140,-6,5,3139,-2,5
1141,-6,5,3140,-5,5
1142,-5,5,3141,-5,5
1143,-9,5,3142,-2,5
1144,-15,5,3143,-2,5
1145,-16,5,3144,-1,5
1146,-13,5,3145,2,5
1147,-9,5,3146,3,5
1148,-7,5,3147,2,5
1149,-6,5,3148,0,5
1150,-5,5,3149,0,5
1151,-5,5,3150,4,5
1152,-5,5,3151,8,5
1153,-6,5,3152,7,5
1154,-3,5,3153,5,5
1155,-2,5,3154,2,5
1156,0,5,3155,0,5
1157,-1,5,3156,-3,5
1158,-3,5,3157,-5,5
1159,-3,5,3158,-3,5
1160,0,5,3159,-2,5
1161,3,5,3160,-3,5
1162,8,5,3161,-7,5
1163,11,5,3162,-9,5
1164,15,5,3163,-10,5
1165,22,5,3164,-8,5
1166,32,5,3165,-7,5
1167,47,5,3166,-4,5
1168,47,5,3167,-2,5
1169,47,5,3168,-4,5
1170,47,5,3169,-7,5
1171,47,5,3170,-8,5
1172,47,5,3171,-12,5
1173,47,5,3172,-14,5
1174,47,5,3173,-12,5
1175,45,5,3174,-10,5
1176,36,5,3175,-11,5
1177,27,5,3176,-13,5
1178,18,5,3177,-12,5
1179,13,5,3178,-11,5
1180,8,5,3179,-10,5
1181,3,5,3180,-9,5
1182,2,5,3181,-6,5
1183,5,5,3182,-5,5
1184,3,5,3183,-7,5
1185,1,5,3184,-6,5
1186,-3,5,3185,-6,5
1187,-5,5,3186,-8,5
1188,-7,5,3187,-10,5
1189,-9,5,3188,-11,5
1190,-10,5,3189,-8,5
1191,-9,5,3190,-10,5
1192,-9,5,3191,-11,5
1193,-8,5,3192,-10,5
1194,-6,5,3193,-10,5
1195,-5,5,3194,-13,5
1196,-3,5,3195,-11,5
1197,-4,5,3196,-6,5
1198,-6,5,3197,-3,5
1199,-5,5,3198,0,5
1200,-4,5,3199,6,5
1201,-4,5,3200,11,5
1202,-5,5,3201,18,5
1203,-4,5,3202,26,5
1204,-3,5,3203,40,5
1205,-4,5,3204,47,5
1206,-4,5,3205,47,5
1207,-3,5,3206,47,5
1208,-6,5,3207,47,5
1209,-8,5,3208,47,5
1210,-6,5,3209,47,5
1211,-2,5,3210,47,5
1212,-1,5,3211,47,5
1213,-2,5,3212,47,5
1214,-1,5,3213,47,5
1215,0,5,3214,40,5
1216,0,5,3215,30,5
1217,-3,5,3216,21,5
1218,-7,5,3217,14,5
1219,-9,5,3218,7,5
1220,-9,5,3219,4,5
1221,-9,5,3220,3,5
1222,-8,5,3221,0,5
1223,-6,5,3222,0,5
1224,-5,5,3223,-3,5
1225,-5,5,3224,-10,5
1226,-3,5,3225,-11,5
1227,-2,5,3226,-12,5
1228,-3,5,3227,-13,5
1229,-2,5,3228,-12,5
1230,0,5,3229,-9,5
1231,0,5,3230,-10,5
1232,0,5,3231,-11,5
1233,-2,5,3232,-9,5
1234,-7,5,3233,-7,5
1235,-9,5,3234,-8,5
1236,-7,5,3235,-8,5
1237,-4,5,3236,-10,5
1238,-4,5,3237,-13,5
1239,-6,5,3238,-11,5
1240,-10,5,3239,-10,5
1241,-7,5,3240,-8,5
1242,-8,5,3241,-8,5
1243,-7,5,3242,-10,5
1244,-3,5,3243,-11,5
1245,-3,5,3244,-9,5
1246,-5,5,3245,-7,5
1247,-6,5,3246,-7,5
1248,-6,5,3247,-8,5
1249,-5,5,3248,-7,5
1250,-4,5,3249,-7,5
1251,-4,5,3250,-7,5
1252,-6,5,3251,-7,5
1253,-6,5,3252,-9,5
1254,-4,5,3253,-11,5
1255,-2,5,3254,-10,5
1256,1,5,3255,-7,5
1257,2,5,3256,-6,5
1258,-2,5,3257,-9,5
1259,-2,5,3258,-13,5
1260,0,5,3259,-15,5
1261,3,5,3260,-15,5
1262,5,5,3261,-11,5
1263,5,5,3262,-5,5
1264,5,5,3263,-5,5
1265,2,5,3264,-6,5
1266,1,5,3265,-4,5
1267,0,5,3266,-4,5
1268,-3,5,3267,-7,5
1269,-4,5,3268,-13,5
1270,-4,5,3269,-13,5
1271,-4,5,3270,-12,5
1272,-5,5,3271,-15,5
1273,-5,5,3272,-16,5
1274,-3,5,3273,-14,5
1275,-2,5,3274,-14,5
1276,-1,5,3275,-16,5
1277,-1,5,3276,-16,5
1278,-2,5,3277,-15,5
1279,0,5,3278,-12,5
1280,2,5,3279,-8,5
1281,3,5,3280,-7,5
1282,5,5,3281,-8,5
1283,3,5,3282,-9,5
1284,1,5,3283,-11,5
1285,1,5,3284,-11,5
1286,3,5,3285,-11,5
1287,5,5,3286,-12,5
1288,7,5,3287,-14,5
1289,9,5,3288,-16,5
1290,11,5,3289,-17,5
1291,13,5,3290,-17,5
1292,14,5,3291,-16,5
1293,14,5,3292,-11,5
1294,14,5,3293,-9,5
1295,13,5,3294,-10,5
1296,11,5,3295,-11,5
1297,12,5,3296,-13,5
1298,11,5,3297,-16,5
1299,10,5,3298,-14,5
1300,10,5,3299,-11,5
1301,12,5,3300,-9,5
1302,10,5,3301,-10,5
1303,8,5,3302,-9,5
1304,9,5,3303,-11,5
1305,9,5,3304,-10,5
1306,11,5,3305,-7,5
1307,11,5,3306,-7,5
1308,9,5,3307,-12,5
1309,9,5,3308,-12,5
1310,9,5,3309,-10,5
1311,9,5,3310,-10,5
1312,12,5,3311,-11,5
1313,13,5,3312,-11,5
1314,11,5,3313,-9,5
1315,10,5,3314,-7,5
1316,10,5,3315,-6,5
1317,13,5,3316,-7,5
1318,13,5,3317,-9,5
1319,12,5,3318,-7,5
1320,12,5,3319,-6,5
1321,12,5,3320,-6,5
1322,13,5,3321,-7,5
1323,13,5,3322,-9,5
1324,13,5,3323,-6,5
1325,11,5,3324,-6,5
1326,10,5,3325,-5,5
1327,9,5,3326,-3,5
1328,9,5,3327,-3,5
1329,7,5,3328,-2,5
1330,7,5,3329,-2,5
1331,8,5,3330,-5,5
1332,10,5,3331,-6,5
1333,11,5,3332,-6,5
1334,9,5,3333,-5,5
1335,5,5,3334,-3,5
1336,4,5,3335,2,5
1337,5,5,3336,5,5
1338,5,5,3337,7,5
1339,2,5,3338,6,5
1340,2,5,3339,7,5
1341,3,5,3340,8,5
1342,1,5,3341,5,5
1343,-2,5,3342,3,5
1344,-2,5,3343,3,5
1345,-3,5,3344,4,5
1346,-1,5,3345,5,5
1347,-4,5,3346,3,5
1348,-5,5,3347,3,5
1349,-6,5,3348,2,5
1350,-7,5,3349,4,5
1351,-7,5,3350,2,5
1352,-5,5,3351,2,5
1353,-4,5,3352,2,5
1354,-4,5,3353,4,5
1355,-5,5,3354,5,5
1356,-6,5,3355,6,5
1357,-6,5,3356,5,5
1358,-2,5,3357,6,5
1359,-1,5,3358,9,5
1360,0,5,3359,9,5
1361,-2,5,3360,8,5
1362,-4,5,3361,5,5
1363,-6,5,3362,0,5
1364,-6,5,3363,-4,5
1365,-6,5,3364,-7,5
1366,-6,5,3365,-6,5
1367,-7,5,3366,-4,5
1368,-10,5,3367,-3,5
1369,-13,5,3368,-5,5
1370,-13,5,3369,-7,5
1371,-13,5,3370,-6,5
1372,-17,5,3371,-4,5
1373,-17,5,3372,0,5
1374,-12,5,3373,4,5
1375,-8,5,3374,3,5
1376,-6,5,3375,1,5
1377,-2,5,3376,-1,5
1378,0,5,3377,-7,5
1379,-2,5,3378,-9,5
1380,-4,5,3379,-7,5
1381,-6,5,3380,-7,5
1382,-6,5,3381,-7,5
1383,-3,5,3382,-9,5
1384,1,5,3383,-8,5
1385,4,5,3384,-4,5
1386,4,5,3385,-4,5
1387,0,5,3386,-4,5
1388,-3,5,3387,-5,5
1389,-4,5,3388,-7,5
1390,-3,5,3389,-9,5
1391,-3,5,3390,-12,5
1392,-4,5,3391,-16,5
1393,-7,5,3392,-16,5
1394,-10,5,3393,-15,5
1395,-7,5,3394,-15,5
1396,-4,5,3395,-14,5
1397,-6,5,3396,-12,5
1398,-7,5,3397,-13,5
1399,-7,5,3398,-13,5
1400,-10,5,3399,-13,5
1401,-11,5,3400,-13,5
1402,-11,5,3401,-13,5
1403,-11,5,3402,-14,5
1404,-9,5,3403,-11,5
1405,-5,5,3404,-7,5
1406,-4,5,3405,-5,5
1407,-3,5,3406,-10,5
1408,-1,5,3407,-15,5
1409,0,5,3408,-17,5
1410,0,5,3409,-17,5
1411,-1,5,3410,-17,5
1412,-4,5,3411,-17,5
1413,-3,5,3412,-17,5
1414,0,5,3413,-17,5
1415,1,5,3414,-17,5
1416,-2,5,3415,-16,5
1417,-6,5,3416,-13,5
1418,-4,5,3417,-12,5
1419,-5,5,3418,-12,5
1420,-5,5,3419,-14,5
1421,-6,5,3420,-16,5
1422,-6,5,3421,-14,5
1423,-5,5,3422,-11,5
1424,-3,5,3423,-11,5
1425,0,5,3424,-13,5
1426,1,5,3425,-12,5
1427,1,5,3426,-11,5
1428,4,5,3427,-11,5
1429,6,5,3428,-14,5
1430,4,5,3429,-12,5
1431,-1,5,3430,-10,5
1432,-1,5,3431,-10,5
1433,1,5,3432,-12,5
1434,1,5,3433,-14,5
1435,0,5,3434,-14,5
1436,0,5,3435,-15,5
1437,-1,5,3436,-15,5
1438,-1,5,3437,-17,5
1439,-2,5,3438,-17,5
1440,-2,5,3439,-16,5
1441,-2,5,3440,-13,5
1442,-3,5,3441,-11,5
1443,-2,5,3442,-11,5
1444,0,5,3443,-12,5
1445,-2,5,3444,-13,5
1446,-6,5,3445,-11,5
1447,-7,5,3446,-11,5
1448,-4,5,3447,-14,5
1449,0,5,3448,-14,5
1450,2,5,3449,-14,5
1451,5,5,3450,-12,5
1452,6,5,3451,-15,5
1453,6,5,3452,-17,5
1454,5,5,3453,-17,5
1455,3,5,3454,-17,5
1456,1,5,3455,-17,5
1457,3,5,3456,-14,5
1458,4,5,3457,-13,5
1459,2,5,3458,-13,5
1460,-3,5,3459,-15,5
1461,-7,5,3460,-15,5
1462,-8,5,3461,-14,5
1463,-7,5,3462,-12,5
1464,-5,5,3463,-10,5
1465,-3,5,3464,-10,5
1466,-4,5,3465,-10,5
1467,-6,5,3466,-10,5
1468,-5,5,3467,-10,5
1469,-5,5,3468,-12,5
1470,-8,5,3469,-14,5
1471,-7,5,3470,-15,5
1472,-6,5,3471,-16,5
1473,-4,5,3472,-15,5
1474,0,5,3473,-12,5
1475,1,5,3474,-8,5
1476,1,5,3475,-6,5
1477,3,5,3476,-6,5
1478,2,5,3477,-7,5
1479,2,5,3478,-10,5
1480,3,5,3479,-10,5
1481,4,5,3480,-5,5
1482,2,5,3481,-2,5
1483,-1,5,3482,-3,5
1484,-3,5,3483,-7,5
1485,-5,5,3484,-9,5
1486,-6,5,3485,-8,5
1487,-5,5,3486,-11,5
1488,-5,5,3487,-10,5
1489,-6,5,3488,-9,5
1490,-7,5,3489,-12,5
1491,-7,5,3490,-13,5
1492,-10,5,3491,-14,5
1493,-12,5,3492,-15,5
1494,-12,5,3493,-15,5
1495,-12,5,3494,-10,5
1496,-12,5,3495,-4,5
1497,-14,5,3496,-1,5
1498,-14,5,3497,1,5
1499,-9,5,3498,0,5
1500,-3,5,3499,-7,5
1501,-1,5,3500,-13,5
1502,-2,5,3501,-16,5
1503,-2,5,3502,-16,5
1504,0,5,3503,-13,5
1505,0,5,3504,-13,5
1506,-3,5,3505,-13,5
1507,-9,5,3506,-11,5
1508,-16,5,3507,-11,5
1509,-17,5,3508,-11,5
1510,-17,5,3509,-14,5
1511,-15,5,3510,-16,5
1512,-15,5,3511,-14,5
1513,-13,5,3512,-12,5
1514,-12,5,3513,-11,5
1515,-12,5,3514,-13,5
1516,-13,5,3515,-14,5
1517,-13,5,3516,-11,5
1518,-13,5,3517,-9,5
1519,-12,5,3518,-10,5
1520,-10,5,3519,-11,5
1521,-12,5,3520,-13,5
1522,-14,5,3521,-10,5
1523,-15,5,3522,-10,5
1524,-13,5,3523,-11,5
1525,-11,5,3524,-10,5
1526,-13,5,3525,-10,5
1527,-17,5,3526,-12,5
1528,-17,5,3527,-12,5
1529,-17,5,3528,-12,5
1530,-17,5,3529,-10,5
1531,-15,5,3530,-9,5
1532,-12,5,3531,-7,5
1533,-12,5,3532,-5,5
1534,-16,5,3533,-6,5
1535,-17,5,3534,-7,5
1536,-17,5,3535,-10,5
1537,-17,5,3536,-12,5
1538,-14,5,3537,-13,5
1539,-12,5,3538,-13,5
1540,-14,5,3539,-15,5
1541,-17,5,3540,-16,5
1542,-17,5,3541,-16,5
1543,-15,5,3542,-16,5
1544,-13,5,3543,-16,5
1545,-16,5,3544,-15,5
1546,-17,5,3545,-13,5
1547,-17,5,3546,-13,5
1548,-17,5,3547,-11,5
1549,-17,5,3548,-11,5
1550,-17,5,3549,-11,5
1551,-17,5,3550,-9,5
1552,-17,5,3551,-9,5
1553,-17,5,3552,-12,5
1554,-17,5,3553,-14,5
1555,-16,5,3554,-15,5
1556,-14,5,3555,-14,5
1557,-11,5,3556,-14,5
1558,-14,5,3557,-14,5
1559,-13,5,3558,-14,5
1560,-12,5,3559,-12,5
1561,-14,5,3560,-13,5
1562,-16,5,3561,-16,5
1563,-14,5,3562,-16,5
1564,-10,5,3563,-14,5
1565,-10,5,3564,-14,5
1566,-9,5,3565,-12,5
1567,-9,5,3566,-9,5
1568,-9,5,3567,-11,5
1569,-8,5,3568,-12,5
1570,-8,5,3569,-15,5
1571,-7,5,3570,-15,5
1572,-7,5,3571,-14,5
1573,-9,5,3572,-13,5
1574,-11,5,3573,-13,5
1575,-11,5,3574,-11,5
1576,-10,5,3575,-7,5
1577,-14,5,3576,-5,5
1578,-17,5,3577,-10,5
1579,-17,5,3578,-13,5
1580,-17,5,3579,-16,5
1581,-14,5,3580,-16,5
1582,-14,5,3581,-15,5
1583,-13,5,3582,-13,5
1584,-10,5,3583,-13,5
1585,-5,5,3584,-12,5
1586,-3,5,3585,-11,5
1587,-5,5,3586,-11,5
1588,-10,5,3587,-11,5
1589,-14,5,3588,-12,5
1590,-14,5,3589,-12,5
1591,-15,5,3590,-11,5
1592,-13,5,3591,-11,5
1593,-13,5,3592,-11,5
1594,-12,5,3593,-10,5
1595,-11,5,3594,-8,5
1596,-11,5,3595,-6,5
1597,-10,5,3596,-10,5
1598,-8,5,3597,-15,5
1599,-8,5,3598,-14,5
1600,-9,5,3599,-12,5
1601,-10,5,3600,-11,5
1602,-12,5,3601,-9,5
1603,-14,5,3602,-7,5
1604,-13,5,3603,-9,5
1605,-8,5,3604,-11,5
1606,-2,5,3605,-11,5
1607,1,5,3606,-12,5
1608,3,5,3607,-12,5
1609,6,5,3608,-13,5
1610,8,5,3609,-12,5
1611,8,5,3610,-10,5
1612,6,5,3611,-10,5
1613,2,5,3612,-9,5
1614,1,5,3613,-12,5
1615,1,5,3614,-15,5
1616,-2,5,3615,-15,5
1617,-4,5,3616,-15,5
1618,-5,5,3617,-12,5
1619,-8,5,3618,-10,5
1620,-10,5,3619,-4,5
1621,-12,5,3620,-3,5
1622,-12,5,3621,-6,5
1623,-12,5,3622,-8,5
1624,-13,5,3623,-6,5
1625,-13,5,3624,-6,5
1626,-10,5,3625,-7,5
1627,-8,5,3626,-9,5
1628,-5,5,3627,-10,5
1629,-3,5,3628,-10,5
1630,-2,5,3629,-8,5
1631,-3,5,3630,-7,5
1632,-4,5,3631,-10,5
1633,-5,5,3632,-11,5
1634,-7,5,3633,-9,5
1635,-6,5,3634,-5,5
1636,-6,5,3635,0,5
1637,-7,5,3636,2,5
1638,-10,5,3637,-1,5
1639,-9,5,3638,-6,5
1640,-9,5,3639,-10,5
1641,-8,5,3640,-10,5
1642,-7,5,3641,-9,5
1643,-8,5,3642,-10,5
1644,-10,5,3643,-9,5
1645,-11,5,3644,-8,5
1646,-10,5,3645,-5,5
1647,-9,5,3646,-2,5
1648,-8,5,3647,-3,5
1649,-6,5,3648,-8,5
1650,-6,5,3649,-10,5
1651,-4,5,3650,-9,5
1652,-3,5,3651,-8,5
1653,-3,5,3652,-8,5
1654,-2,5,3653,-9,5
1655,-4,5,3654,-7,5
1656,-5,5,3655,-8,5
1657,-5,5,3656,-7,5
1658,-6,5,3657,-1,5
1659,-8,5,3658,4,5
1660,-7,5,3659,8,5
1661,-3,5,3660,10,5
1662,0,5,3661,10,5
1663,4,5,3662,10,5
1664,10,5,3663,7,5
1665,17,5,3664,5,5
1666,26,5,3665,4,5
1667,38,5,3666,6,5
1668,47,5,3667,6,5
1669,47,5,3668,5,5
1670,47,5,3669,4,5
1671,47,5,3670,2,5
1672,47,5,3671,0,5
1673,47,5,3672,-3,5
1674,47,5,3673,-4,5
1675,47,5,3674,-6,5
1676,47,5,3675,-5,5
1677,47,5,3676,-5,5
1678,43,5,3677,-6,5
1679,32,5,3678,-5,5
1680,25,5,3679,-3,5
1681,15,5,3680,-6,5
1682,7,5,3681,-7,5
1683,1,5,3682,-7,5
1684,0,5,3683,-8,5
1685,0,5,3684,-8,5
1686,-3,5,3685,-6,5
1687,-5,5,3686,-7,5
1688,-6,5,3687,-10,5
1689,-8,5,3688,-11,5
1690,-7,5,3689,-9,5
1691,-6,5,3690,-7,5
1692,-7,5,3691,-6,5
1693,-7,5,3692,-5,5
1694,-6,5,3693,-3,5
1695,-6,5,3694,-3,5
1696,-7,5,3695,-4,5
1697,-6,5,3696,-6,5
1698,-6,5,3697,-5,5
1699,-8,5,3698,-6,5
1700,-8,5,3699,-9,5
1701,-9,5,3700,-11,5
1702,-11,5,3701,-10,5
1703,-9,5,3702,-7,5
1704,-8,5,3703,-7,5
1705,-5,5,3704,-9,5
1706,-4,5,3705,-8,5
1707,-3,5,3706,-4,5
1708,-4,5,3707,-3,5
1709,-4,5,3708,-3,5
1710,-5,5,3709,-5,5
1711,-8,5,3710,-9,5
1712,-8,5,3711,-11,5
1713,-10,5,3712,-5,5
1714,-9,5,3713,4,5
1715,-9,5,3714,12,5
1716,-9,5,3715,16,5
1717,-10,5,3716,18,5
1718,-11,5,3717,23,5
1719,-9,5,3718,33,5
1720,-6,5,3719,45,5
1721,-5,5,3720,47,5
1722,-5,5,3721,47,5
1723,-5,5,3722,47,5
1724,-6,5,3723,47,5
1725,-6,5,3724,47,5
1726,-3,5,3725,47,5
1727,-4,5,3726,47,5
1728,-8,5,3727,47,5
1729,-9,5,3728,40,5
1730,-9,5,3729,29,5
1731,-10,5,3730,22,5
1732,-9,5,3731,15,5
1733,-7,5,3732,6,5
1734,-3,5,3733,0,5
1735,-3,5,3734,-3,5
1736,-6,5,3735,-1,5
1737,-9,5,3736,-3,5
1738,-12,5,3737,-7,5
1739,-13,5,3738,-11,5
1740,-17,5,3739,-9,5
1741,-17,5,3740,-5,5
1742,-15,5,3741,-4,5
1743,-12,5,3742,-5,5
1744,-14,5,3743,-10,5
1745,-17,5,3744,-12,5
1746,-17,5,3745,-8,5
1747,-15,5,3746,-4,5
1748,-14,5,3747,-2,5
1749,-15,5,3748,0,5
1750,-16,5,3749,3,5
1751,-15,5,3750,2,5
1752,-12,5,3751,-1,5
1753,-12,5,3752,-4,5
1754,-13,5,3753,-8,5
1755,-12,5,3754,-8,5
1756,-12,5,3755,-6,5
1757,-12,5,3756,-6,5
1758,-12,5,3757,-6,5
1759,-11,5,3758,-8,5
1760,-11,5,3759,-9,5
1761,-12,5,3760,-8,5
1762,-13,5,3761,-9,5
1763,-11,5,3762,-8,5
1764,-11,5,3763,-4,5
1765,-10,5,3764,-1,5
1766,-9,5,3765,-5,5
1767,-7,5,3766,-7,5
1768,-5,5,3767,-7,5
1769,-3,5,3768,-9,5
1770,-1,5,3769,-8,5
1771,-3,5,3770,-5,5
1772,-7,5,3771,-5,5
1773,-7,5,3772,-3,5
1774,-5,5,3773,-3,5
1775,-5,5,3774,-6,5
1776,-7,5,3775,-5,5
1777,-8,5,3776,-3,5
1778,-5,5,3777,-5,5
1779,-4,5,3778,-5,5
1780,-5,5,3779,-3,5
1781,-5,5,3780,-3,5
1782,-6,5,3781,-6,5
1783,-8,5,3782,-7,5
1784,-8,5,3783,-12,5
1785,-6,5,3784,-13,5
1786,-4,5,3785,-10,5
1787,-7,5,3786,-6,5
1788,-7,5,3787,-5,5
1789,-6,5,3788,-4,5
1790,-2,5,3789,-6,5
1791,0,5,3790,-8,5
1792,-1,5,3791,-10,5
1793,-1,5,3792,-10,5
1794,1,5,3793,-9,5
1795,2,5,3794,-8,5
1796,1,5,3795,-8,5
1797,0,5,3796,-8,5
1798,0,5,3797,-8,5
1799,0,5,3798,-8,5
1800,5,5,3799,-10,5
1801,8,5,3800,-8,5
1802,8,5,3801,-4,5
1803,7,5,3802,-4,5
1804,6,5,3803,-4,5
1805,6,5,3804,-3,5
1806,5,5,3805,1,5
1807,4,5,3806,2,5
1808,6,5,3807,-3,5
1809,11,5,3808,-9,5
1810,16,5,3809,-12,5
1811,18,5,3810,-12,5
1812,13,5,3811,-11,5
1813,6,5,3812,-10,5
1814,2,5,3813,-9,5
1815,1,5,3814,-10,5
1816,3,5,3815,-10,5
1817,5,5,3816,-7,5
1818,7,5,3817,-6,5
1819,9,5,3818,-6,5
1820,8,5,3819,-5,5
1821,5,5,3820,-2,5
1822,4,5,3821,0,5
1823,4,5,3822,0,5
1824,5,5,3823,0,5
1825,5,5,3824,0,5
1826,5,5,3825,-1,5
1827,4,5,3826,0,5
1828,5,5,3827,0,5
1829,4,5,3828,-3,5
1830,3,5,3829,-4,5
1831,3,5,3830,-6,5
1832,3,5,3831,-3,5
1833,0,5,3832,0,5
1834,0,5,3833,3,5
1835,3,5,3834,1,5
1836,5,5,3835,-4,5
1837,5,5,3836,-6,5
1838,0,5,3837,-6,5
1839,-4,5,3838,-4,5
1840,-6,5,3839,0,5
1841,-9,5,3840,1,5
1842,-8,5,3841,6,5
1843,-4,5,3842,7,5
1844,-2,5,3843,9,5
1845,-4,5,3844,10,5
1846,-4,5,3845,7,5
1847,-3,5,3846,6,5
1848,-3,5,3847,4,5
1849,-3,5,3848,2,5
1850,-5,5,3849,1,5
1851,-9,5,3850,1,5
1852,-12,5,3851,3,5
1853,-9,5,3852,4,5
1854,-8,5,3853,7,5
1855,-7,5,3854,10,5
1856,-6,5,3855,15,5
1857,-6,5,3856,15,5
1858,-7,5,3857,14,5
1859,-9,5,3858,14,5
1860,-9,5,3859,13,5
1861,-5,5,3860,9,5
1862,-4,5,3861,8,5
1863,-4,5,3862,6,5
1864,-6,5,3863,6,5
1865,-11,5,3864,9,5
1866,-13,5,3865,11,5
1867,-13,5,3866,11,5
1868,-13,5,3867,10,5
1869,-14,5,3868,12,5
1870,-14,5,3869,13,5
1871,-13,5,3870,12,5
1872,-8,5,3871,11,5
1873,-4,5,3872,10,5
1874,-2,5,3873,8,5
1875,-6,5,3874,8,5
1876,-8,5,3875,8,5
1877,-9,5,3876,8,5
1878,-10,5,3877,10,5
1879,-14,5,3878,9,5
1880,-15,5,3879,8,5
1881,-12,5,3880,8,5
1882,-8,5,3881,8,5
1883,-7,5,3882,7,5
1884,-8,5,3883,7,5
1885,-10,5,3884,9,5
1886,-13,5,3885,7,5
1887,-14,5,3886,2,5
1888,-16,5,3887,1,5
1889,-14,5,3888,0,5
1890,-12,5,3889,-4,5
1891,-14,5,3890,-6,5
1892,-16,5,3891,-4,5
1893,-14,5,3892,-1,5
1894,-10,5,3893,0,5
1895,-10,5,3894,-2,5
1896,-8,5,3895,-5,5
1897,-8,5,3896,-9,5
1898,-10,5,3897,-11,5
1899,-13,5,3898,-13,5
1900,-15,5,3899,-13,5
1901,-16,5,3900,-14,5
1902,-17,5,3901,-13,5
1903,-17,5,3902,-11,5
1904,-15,5,3903,-12,5
1905,-12,5,3904,-10,5
1906,-10,5,3905,-6,5
1907,-9,5,3906,0,5
1908,-9,5,3907,2,5
1909,-10,5,3908,-1,5
1910,-12,5,3909,-4,5
1911,-12,5,3910,-6,5
1912,-11,5,3911,-7,5
1913,-9,5,3912,-9,5
1914,-9,5,3913,-11,5
1915,-12,5,3914,-13,5
1916,-13,5,3915,-12,5
1917,-13,5,3916,-11,5
1918,-13,5,3917,-10,5
1919,-13,5,3918,-8,5
1920,-12,5,3919,-4,5
1921,-10,5,3920,-3,5
1922,-9,5,3921,-4,5
1923,-11,5,3922,-4,5
1924,-12,5,3923,-6,5
1925,-13,5,3924,-8,5
1926,-11,5,3925,-9,5
1927,-7,5,3926,-10,5
1928,-9,5,3927,-11,5
1929,-11,5,3928,-9,5
1930,-13,5,3929,-9,5
1931,-11,5,3930,-9,5
1932,-11,5,3931,-9,5
1933,-12,5,3932,-11,5
1934,-12,5,3933,-13,5
1935,-12,5,3934,-14,5
1936,-13,5,3935,-15,5
1937,-12,5,3936,-11,5
1938,-10,5,3937,-10,5
1939,-11,5,3938,-11,5
1940,-12,5,3939,-11,5
1941,-14,5,3940,-8,5
1942,-13,5,3941,-7,5
1943,-7,5,3942,-6,5
1944,-2,5,3943,-6,5
1945,0,5,3944,-7,5
1946,0,5,3945,-7,5
1947,-4,5,3946,-8,5
1948,-9,5,3947,-9,5
1949,-10,5,3948,-8,5
1950,-7,5,3949,-8,5
1951,-4,5,3950,-10,5
1952,-4,5,3951,-13,5
1953,-9,5,3952,-14,5
1954,-14,5,3953,-13,5
1955,-14,5,3954,-12,5
1956,-11,5,3955,-8,5
1957,-12,5,3956,-8,5
1958,-14,5,3957,-9,5
1959,-13,5,3958,-8,5
1960,-14,5,3959,-8,5
1961,-17,5,3960,-9,5
1962,-14,5,3961,-9,5
1963,-13,5,3962,-6,5
1964,-12,5,3963,-4,5
1965,-8,5,3964,-4,5
1966,-5,5,3965,-5,5
1967,-5,5,3966,-3,5
1968,-6,5,3967,-3,5
1969,-8,5,3968,-5,5
1970,-10,5,3969,-6,5
1971,-11,5,3970,-7,5
1972,-13,5,3971,-8,5
1973,-13,5,3972,-9,5
1974,-16,5,3973,-9,5
1975,-16,5,3974,-9,5
1976,-15,5,3975,-6,5
1977,-12,5,3976,-5,5
1978,-10,5,3977,-5,5
1979,-8,5,3978,-9,5
1980,-9,5,3979,-8,5
1981,-10,5,3980,-7,5
1982,-9,5,3981,-5,5
1983,-10,5,3982,-3,5
1984,-12,5,3983,-2,5
1985,-12,5,3984,-1,5
1986,-11,5,3985,-4,5
1987,-10,5,3986,-6,5
1988,-11,5,3987,-4,5
1989,-13,5,3988,-3,5
1990,-13,5,3989,-1,5
1991,-13,5,3990,1,5
1992,-10,5,3991,-4,5
1993,-8,5,3992,-10,5
1994,-8,5,3993,-12,5
1995,-7,5,3994,-11,5
1996,-6,5,3995,-10,5
1997,-8,5,3996,-7,5
1998,-10,5,3997,-5,5
1999,-9,5,3998,-5,5
2000,-10,5,3999,-7,5
2001,-11,5,4000,-7,5
2002,-11,5,4001,-6,5
2003,-10,5,4002,-6,5
2004,-12,5,4003,-5,5
2005,-16,5,4004,-5,5
2006,-16,5,4005,-5,5
2007,-16,5,4006,-4,5
2008,-16,5,4007,-7,5
2009,-16,5,4008,-8,5
2010,-15,5,4009,-8,5
2011,-13,5,4010,-9,5
2012,-12,5,4011,-7,5
2013,-11,5,4012,-5,5
2014,-11,5,4013,-3,5
2015,-12,5,4014,-3,5
2016,-11,5,4015,-5,5
2017,-11,5,4016,-7,5
2018,-11,5,4017,-6,5
2019,-11,5,4018,-2,5
2020,-11,5,4019,0,5
2021,-12,5,4020,-3,5
2022,-9,5,4021,-5,5
2023,-8,5,4022,-7,5
2024,-7,5,4023,-9,5
2025,-9,5,4024,-9,5
2026,-10,5,4025,-12,5
2027,-8,5,4026,-14,5
2028,-9,5,4027,-12,5
2029,-9,5,4028,-9,5
2030,-7,5,4029,-5,5
2031,-3,5,4030,-4,5
2032,-3,5,4031,-6,5
2033,-7,5,4032,-9,5
2034,-10,5,4033,-7,5
2035,-11,5,4034,-4,5
2036,-8,5,4035,-3,5
2037,-8,5,4036,-6,5
2038,-10,5,4037,-9,5
2039,-13,5,4038,-8,5
2040,-16,5,4039,-11,5
2041,-16,5,4040,-12,5
2042,-14,5,4041,-14,5
2043,-13,5,4042,-15,5
2044,-10,5,4043,-11,5
2045,-6,5,4044,-9,5
2046,-3,5,4045,-6,5
2047,-5,5,4046,-3,5
2048,-8,5,4047,-1,5
2049,-11,5,4048,-4,5
2050,-12,5,4049,-6,5
2051,-13,5,4050,-6,5
2052,-15,5,4051,-7,5
2053,-15,5,4052,-7,5
2054,-10,5,4053,-7,5
2055,-7,5,4054,-6,5
2056,-7,5,4055,-5,5
2057,-8,5,4056,-6,5
2058,-11,5,4057,-6,5
2059,-13,5,4058,-7,5
2060,-13,5,4059,-7,5
2061,-12,5,4060,-6,5
2062,-13,5,4061,-4,5
2063,-14,5,4062,-4,5
2064,-14,5,4063,-6,5
2065,-12,5,4064,-7,5
2066,-11,5,4065,-3,5
2067,-12,5,4066,2,5
2068,-12,5,4067,5,5
2069,-13,5,4068,4,5
2070,-16,5,4069,-1,5
2071,-14,5,4070,-5,5
2072,-10,5,4071,-11,5
2073,-9,5,4072,-14,5
2074,-9,5,4073,-16,5
2075,-10,5,4074,-15,5
2076,-9,5,4075,-13,5
2077,-6,5,4076,-12,5
2078,-6,5,4077,-14,5
2079,-7,5,4078,-15,5
2080,-8,5,4079,-13,5
2081,-7,5,4080,-10,5
2082,-7,5,4081,-6,5
2083,-7,5,4082,-6,5
2084,-8,5,4083,-5,5
2085,-11,5,4084,-4,5
2086,-13,5,4085,-4,5
2087,-10,5,4086,-7,5
2088,-12,5,4087,-8,5
2089,-14,5,4088,-6,5
2090,-12,5,4089,-5,5
2091,-9,5,4090,-6,5
2092,-9,5,4091,-5,5
2093,-9,5,4092,-7,5
2094,-9,5,4093,-6,5
2095,-8,5,4094,-6,5
2096,-8,5,4095,-8,5
2097,-9,5,4096,-10,5
2098,-9,5,4097,-12,5
2099,-11,5,4098,-13,5
2100,-13,5,4099,-13,5
2101,-12,5,4100,-14,5
2102,-12,5,4101,-14,5
2103,-12,5,4102,-14,5
2104,-12,5,4103,-14,5
2105,-12,5,4104,-8,5
2106,-12,5,4105,-5,5
2107,-11,5,4106,-5,5
2108,-13,5,4107,-3,5
2109,-14,5,4108,0,5
2110,-13,5,4109,2,5
2111,-11,5,4110,0,5
2112,-10,5,4111,-7,5
2113,-10,5,4112,-11,5
2114,-7,5,4113,-16,5
2115,-4,5,4114,-16,5
2116,-8,5,4115,-14,5
2117,-10,5,4116,-11,5
2118,-7,5,4117,-11,5
2119,-5,5,4118,-11,5
2120,-4,5,4119,-8,5
2121,-3,5,4120,-5,5
2122,0,5,4121,-3,5
2123,0,5,4122,-3,5
2124,-2,5,4123,-6,5
2125,-5,5,4124,-8,5
2126,-4,5,4125,-7,5
2127,0,5,4126,-6,5
2128,5,5,4127,-6,5
2129,10,5,4128,-8,5
2130,12,5,4129,-9,5
2131,10,5,4130,-9,5
2132,2,5,4131,-9,5
2133,-2,5,4132,-8,5
2134,-5,5,4133,-6,5
2135,-7,5,4134,-4,5
2136,-8,5,4135,-2,5
2137,-9,5,4136,-3,5
2138,-11,5,4137,-4,5
2139,-11,5,4138,-7,5
2140,-9,5,4139,-8,5
2141,-7,5,4140,-5,5
2142,-4,5,4141,-5,5
2143,-4,5,4142,-5,5
2144,-5,5,4143,-5,5
2145,-9,5,4144,-5,5
2146,-8,5,4145,-6,5
2147,-7,5,4146,-6,5
2148,-8,5,4147,-9,5
2149,-8,5,4148,-11,5
2150,-8,5,4149,-9,5
2151,-6,5,4150,-7,5
2152,-5,5,4151,-6,5
2153,-9,5,4152,-5,5
2154,-11,5,4153,-5,5
2155,-11,5,4154,-4,5
2156,-12,5,4155,-4,5
2157,-13,5,4156,-3,5
2158,-12,5,4157,-1,5
2159,-12,5,4158,2,5
2160,-11,5,4159,0,5
2161,-9,5,4160,-5,5
2162,-7,5,4161,-5,5
2163,-9,5,4162,-3,5
2164,-12,5,4163,-2,5
2165,-15,5,4164,0,5
2166,-14,5,4165,5,5
2167,-8,5,4166,7,5
2168,-6,5,4167,10,5
2169,-8,5,4168,11,5
2170,-9,5,4169,8,5
2171,-10,5,4170,7,5
2172,-11,5,4171,9,5
2173,-9,5,4172,8,5
2174,-6,5,4173,6,5
2175,-2,5,4174,5,5
2176,0,5,4175,3,5
2177,2,5,4176,0,5
2178,3,5,4177,-7,5
2179,4,5,4178,-9,5
2180,8,5,4179,-11,5
2181,11,5,4180,-10,5
2182,21,5,4181,-9,5
2183,36,5,4182,-8,5
2184,47,5,4183,-8,5
2185,47,5,4184,-6,5
2186,47,5,4185,-4,5
2187,47,5,4186,-4,5
2188,47,5,4187,-5,5
2189,47,5,4188,-6,5
2190,47,5,4189,-7,5
2191,47,5,4190,-6,5
2192,47,5,4191,-5,5
2193,47,5,4192,-7,5
2194,40,5,4193,-7,5
2195,28,5,4194,-7,5
2196,21,5,4195,-8,5
2197,15,5,4196,-9,5
2198,10,5,4197,-8,5
2199,8,5,4198,-8,5
2200,3,5,4199,-7,5
2201,-2,5,4200,-5,5
2202,-5,5,4201,-1,5
2203,-7,5,4202,0,5
2204,-7,5,4203,-4,5
2205,-8,5,4204,-10,5
2206,-10,5,4205,-14,5
2207,-8,5,4206,-12,5
2208,-6,5,4207,-10,5
2209,-5,5,4208,-5,5
2210,-3,5,4209,-1,5
2211,-3,5,4210,0,5
2212,-4,5,4211,-1,5
2213,-5,5,4212,-2,5
2214,-5,5,4213,-5,5
2215,-5,5,4214,-7,5
2216,-6,5,4215,-7,5
2217,-6,5,4216,-4,5
2218,-7,5,4217,0,5
2219,-9,5,4218,4,5
2220,-9,5,4219,10,5
2221,-5,5,4220,14,5
2222,-4,5,4221,16,5
2223,-4,5,4222,24,5
2224,-4,5,4223,39,5
2225,-5,5,4224,47,5
2226,-7,5,4225,47,5
2227,-9,5,4226,47,5
2228,-9,5,4227,47,5
2229,-10,5,4228,47,5
2230,-12,5,4229,47,5
2231,-10,5,4230,47,5
2232,-8,5,4231,47,5
2233,-5,5,4232,47,5
2234,-4,5,4233,45,5
2235,-5,5,4234,33,5
2236,-5,5,4235,23,5
2237,-8,5,4236,15,5
2238,-9,5,4237,11,5
2239,-11,5,4238,10,5
2240,-11,5,4239,7,5
2241,-9,5,4240,6,5
2242,-8,5,4241,6,5
2243,-9,5,4242,6,5
2244,-10,5,4243,2,5
2245,-10,5,4244,4,5
2246,-8,5,4245,3,5
2247,-8,5,4246,-4,5
2248,-8,5,4247,-8,5
2249,-9,5,4248,-8,5
2250,-12,5,4249,-13,5
2251,-14,5,4250,-13,5
2252,-14,5,4251,-12,5
2253,-10,5,4252,-12,5
2254,-7,5,4253,-13,5
2255,-7,5,4254,-13,5
2256,-10,5,4255,-10,5
2257,-11,5,4256,-6,5
2258,-11,5,4257,-3,5
2259,-9,5,4258,-3,5
2260,-9,5,4259,-3,5
2261,-12,5,4260,-1,5
2262,-14,5,4261,-6,5
2263,-13,5,4262,-9,5
2264,-8,5,4263,-10,5
2265,-6,5,4264,-10,5
2266,-5,5,4265,-9,5
2267,-3,5,4266,-6,5
2268,-2,5,4267,-3,5
2269,-2,5,4268,-3,5
2270,-3,5,4269,-6,5
2271,-5,5,4270,-8,5
2272,-7,5,4271,-9,5
2273,-9,5,4272,-7,5
2274,-10,5,4273,-7,5
2275,-12,5,4274,-10,5
2276,-13,5,4275,-11,5
2277,-14,5,4276,-8,5
2278,-14,5,4277,-5,5
2279,-15,5,4278,-5,5
2280,-12,5,4279,-5,5
2281,-8,5,4280,-4,5
2282,-5,5,4281,-5,5
2283,-4,5,4282,-3,5
2284,-2,5,4283,0,5
2285,-2,5,4284,-3,5
2286,-3,5,4285,-5,5
2287,-3,5,4286,-5,5
2288,-3,5,4287,-6,5
2289,-3,5,4288,-8,5
2290,-4,5,4289,-8,5
2291,-7,5,4290,-11,5
2292,-8,5,4291,-12,5
2293,-8,5,4292,-14,5
2294,-8,5,4293,-15,5
2295,-5,5,4294,-13,5
2296,-1,5,4295,-12,5
2297,1,5,4296,-10,5
2298,3,5,4297,-8,5
2299,3,5,4298,-10,5
2300,5,5,4299,-13,5
2301,4,5,4300,-16,5
2302,1,5,4301,-14,5
2303,-1,5,4302,-14,5
2304,0,5,4303,-14,5
2305,2,5,4304,-13,5
2306,2,5,4305,-12,5
2307,1,5,4306,-11,5
2308,0,5,4307,-10,5
2309,-1,5,4308,-12,5
2310,-2,5,4309,-15,5
2311,-1,5,4310,-15,5
2312,0,5,4311,-13,5
2313,2,5,4312,-12,5
2314,4,5,4313,-10,5
2315,8,5,4314,-7,5
2316,10,5,4315,-4,5
2317,10,5,4316,-4,5
2318,10,5,4317,-8,5
2319,8,5,4318,-14,5
2320,5,5,4319,-13,5
2321,7,5,4320,-11,5
2322,9,5,4321,-7,5
2323,9,5,4322,-2,5
2324,10,5,4323,-2,5
2325,14,5,4324,-6,5
2326,16,5,4325,-8,5
2327,15,5,4326,-9,5
2328,11,5,4327,-8,5
2329,9,5,4328,-7,5
2330,12,5,4329,-7,5
2331,14,5,4330,-6,5
2332,13,5,4331,-4,5
2333,13,5,4332,-5,5
2334,13,5,4333,-3,5
2335,14,5,4334,-5,5
2336,16,5,4335,-7,5
2337,14,5,4336,-11,5
2338,13,5,4337,-13,5
2339,16,5,4338,-11,5
2340,16,5,4339,-9,5
2341,13,5,4340,-10,5
2342,10,5,4341,-8,5
2343,7,5,4342,-5,5
2344,8,5,4343,-3,5
2345,8,5,4344,-3,5
2346,6,5,4345,-2,5
2347,5,5,4346,0,5
2348,6,5,4347,2,5
2349,7,5,4348,2,5
2350,9,5,4349,1,5
2351,7,5,4350,-2,5
2352,2,5,4351,-4,5
2353,1,5,4352,-4,5
2354,1,5,4353,-4,5
2355,0,5,4354,-3,5
2356,0,5,4355,0,5
2357,1,5,4356,6,5
2358,3,5,4357,7,5
2359,3,5,4358,6,5
2360,2,5,4359,6,5
2361,2,5,4360,7,5
2362,4,5,4361,5,5
2363,3,5,4362,4,5
2364,2,5,4363,7,5
2365,-4,5,4364,10,5
2366,-9,5,4365,9,5
2367,-11,5,4366,8,5
2368,-12,5,4367,9,5
2369,-12,5,4368,8,5
2370,-11,5,4369,5,5
2371,-8,5,4370,3,5
2372,-4,5,4371,1,5
2373,-1,5,4372,3,5
2374,0,5,4373,5,5
2375,0,5,4374,6,5
2376,0,5,4375,7,5
2377,0,5,4376,7,5
2378,-2,5,4377,4,5
2379,-4,5,4378,4,5
2380,-4,5,4379,5,5
2381,-4,5,4380,5,5
2382,-3,5,4381,3,5
2383,-1,5,4382,3,5
2384,-2,5,4383,2,5
2385,-6,5,4384,3,5
2386,-8,5,4385,4,5
2387,-6,5,4386,2,5
2388,-6,5,4387,3,5
2389,-9,5,4388,2,5
2390,-11,5,4389,1,5
2391,-10,5,4390,-2,5
2392,-10,5,4391,-7,5
2393,-9,5,4392,-7,5
2394,-5,5,4393,-8,5
2395,-1,5,4394,-13,5
2396,0,5,4395,-16,5
2397,-2,5,4396,-16,5
2398,-6,5,4397,-13,5
2399,-13,5,4398,-12,5
2400,-16,5,4399,-13,5
2401,-17,5,4400,-13,5
2402,-15,5,4401,-10,5
2403,-11,5,4402,-9,5
2404,-9,5,4403,-8,5
2405,-7,5,4404,-8,5
2406,-7,5,4405,-14,5
2407,-9,5,4406,-14,5
2408,-12,5,4407,-11,5
2409,-13,5,4408,-11,5
2410,-10,5,4409,-12,5
2411,-10,5,4410,-12,5
2412,-10,5,4411,-13,5
2413,-12,5,4412,-15,5
2414,-13,5,4413,-17,5
2415,-11,5,4414,-17,5
2416,-10,5,4415,-15,5
2417,-8,5,4416,-15,5
2418,-7,5,4417,-16,5
2419,-7,5,4418,-13,5
2420,-5,5,4419,-12,5
2421,-6,5,4420,-14,5
2422,-8,5,4421,-17,5
2423,-9,5,4422,-17,5
2424,-9,5,4423,-16,5
2425,-11,5,4424,-11,5
2426,-13,5,4425,-10,5
2427,-12,5,4426,-14,5
2428,-10,5,4427,-16,5
2429,-8,5,4428,-17,5
2430,-10,5,4429,-17,5
2431,-10,5,4430,-17,5
2432,-11,5,4431,-17,5
2433,-12,5,4432,-17,5
2434,-13,5,4433,-17,5
2435,-13,5,4434,-17,5
2436,-11,5,4435,-17,5
2437,-10,5,4436,-17,5
2438,-8,5,4437,-17,5
2439,-8,5,4438,-17,5
2440,-7,5,4439,-17,5
2441,-7,5,4440,-17,5
2442,-11,5,4441,-17,5
2443,-13,5,4442,-17,5
2444,-8,5,4443,-17,5
2445,-6,5,4444,-17,5
2446,-6,5,4445,-17,5
2447,-8,5,4446,-17,5
2448,-11,5,4447,-17,5
2449,-11,5,4448,-17,5
2450,-10,5,4449,-17,5
2451,-8,5,4450,-17,5
2452,-9,5,4451,-17,5
2453,-9,5,4452,-17,5
2454,-10,5,4453,-17,5
2455,-9,5,4454,-17,5
2456,-8,5,4455,-17,5
2457,-6,5,4456,-17,5
2458,-3,5,4457,-17,5
2459,-4,5,4458,-17,5
2460,-6,5,4459,-17,5
2461,-10,5,4460,-17,5
2462,-13,5,4461,-17,5
2463,-15,5,4462,-17,5
2464,-15,5,4463,-17,5
2465,-16,5,4464,-17,5
2466,-15,5,4465,-17,5
2467,-11,5,4466,-17,5
2468,-7,5,4467,-17,5
2469,-6,5,4468,-17,5
2470,-4,5,4469,-17,5
2471,-2,5,4470,-17,5
2472,-1,5,4471,-17,5
2473,-2,5,4472,-17,5
2474,-2,5,4473,-17,5
2475,-2,5,4474,-17,5
2476,-3,5,4475,-16,5
2477,-7,5,4476,-17,5
2478,-13,5,4477,-16,5
2479,-17,5,4478,-17,5
2480,-16,5,4479,-17,5
2481,-14,5,4480,-17,5
2482,-9,5,4481,-17,5
2483,-9,5,4482,-17,5
2484,-7,5,4483,-17,5
2485,-6,5,4484,-17,5
2486,-4,5,4485,-17,5
2487,-3,5,4486,-17,5
2488,-6,5,4487,-17,5
2489,-7,5,4488,-17,5
2490,-7,5,4489,-17,5
2491,-7,5,4490,-17,5
2492,-7,5,4491,-17,5
2493,-7,5,4492,-17,5
2494,-7,5,4493,-17,5
2495,-4,5,4494,-17,5
2496,-3,5,4495,-17,5
2497,-4,5,4496,-17,5
2498,-7,5,4497,-17,5
2499,-10,5,4498,-17,5
2500,-9,5,4499,-17,5
2501,-11,5,4500,-17,5
2502,-12,5,4501,-17,5
2503,-9,5,4502,-17,5
2504,-10,5,4503,-17,5
2505,-11,5,4504,-17,5
2506,-12,5,4505,-17,5
2507,-14,5,4506,-17,5
2508,-12,5,4507,-17,5
2509,-11,5,4508,-17,5
2510,-8,5,4509,-17,5
2511,-6,5,4510,-17,5
2512,-7,5,4511,-17,5
2513,-7,5,4512,-17,5
2514,-5,5,4513,-17,5
2515,-3,5,4514,-17,5
2516,-2,5,4515,-16,5
2517,-3,5,4516,-17,5
2518,-5,5,4517,-17,5
2519,-9,5,4518,-17,5
2520,-9,5,4519,-17,5
2521,-6,5,4520,-17,5
2522,-5,5,4521,-17,5
2523,-3,5,4522,-17,5
2524,-1,5,4523,-17,5
2525,-1,5,4524,-17,5
2526,-7,5,4525,-17,5
2527,-12,5,4526,-17,5
2528,-10,5,4527,-17,5
2529,-10,5,4528,-17,5
2530,-9,5,4529,-17,5
2531,-7,5,4530,-17,5
2532,-7,5,4531,-17,5
2533,-6,5,4532,-16,5
2534,-3,5,4533,-15,5
2535,-2,5,4534,-17,5
2536,-5,5,4535,-17,5
2537,-5,5,4536,-17,5
2538,-3,5,4537,-17,5
2539,-3,5,4538,-17,5
2540,-7,5,4539,-17,5
2541,-8,5,4540,-17,5
2542,-5,5,4541,-17,5
2543,-2,5,4542,-17,5
2544,-1,5,4543,-17,5
2545,-4,5,4544,-17,5
2546,-6,5,4545,-17,5
2547,-4,5,4546,-17,5
2548,-3,5,4547,-15,5
2549,-3,5,4548,-13,5
2550,-2,5,4549,-14,5
2551,1,5,4550,-16,5
2552,3,5,4551,-17,5
2553,2,5,4552,-17,5
2554,-1,5,4553,-17,5
2555,-2,5,4554,-17,5
2556,0,5,4555,-17,5
2557,0,5,4556,-17,5
2558,-2,5,4557,-17,5
2559,-2,5,4558,-17,5
2560,-2,5,4559,-17,5
2561,-1,5,4560,-17,5
2562,0,5,4561,-17,5
2563,-4,5,4562,-17,5
2564,-5,5,4563,-17,5
2565,-5,5,4564,-17,5
2566,-4,5,4565,-17,5
2567,-2,5,4566,-17,5
2568,-1,5,4567,-17,5
2569,1,5,4568,-17,5
2570,4,5,4569,-17,5
2571,7,5,4570,-17,5
2572,7,5,4571,-17,5
2573,6,5,4572,-17,5
2574,5,5,4573,-17,5
2575,2,5,4574,-17,5
2576,2,5,4575,-17,5
2577,4,5,4576,-17,5
2578,2,5,4577,-17,5
2579,1,5,4578,-17,5
2580,0,5,4579,-17,5
2581,-1,5,4580,-17,5
2582,1,5,4581,-17,5
2583,2,5,4582,-17,5
2584,0,5,4583,-17,5
2585,-1,5,4584,-17,5
2586,0,5,4585,-17,5
2587,0,5,4586,-17,5
2588,-1,5,4587,-17,5
2589,-1,5,4588,-17,5
2590,-1,5,4589,-17,5
2591,-1,5,4590,-17,5
2592,0,5,4591,-17,5
2593,0,5,4592,-17,5
2594,1,5,4593,-17,5
2595,3,5,4594,-17,5
2596,2,5,4595,-17,5
2597,-1,5,4596,-17,5
2598,-4,5,4597,-17,5
2599,-7,5,4598,-17,5
2600,-9,5,4599,-17,5
2601,-11,5,4600,-17,5
2602,-12,5,4601,-17,5
2603,-10,5,4602,-17,5
2604,-9,5,4603,-17,5
2605,-11,5,4604,-17,5
2606,-10,5,4605,-17,5
2607,-7,5,4606,-17,5
2608,-5,5,4607,-17,5
2609,-7,5,4608,-17,5
2610,-9,5,4609,-17,5
2611,-11,5,4610,-17,5
2612,-12,5,4611,-17,5
2613,-13,5,4612,-17,5
2614,-15,5,4613,-17,5
2615,-16,5,4614,-17,5
2616,-16,5,4615,-17,5
2617,-15,5,4616,-17,5
2618,-13,5,4617,-17,5
2619,-13,5,4618,-17,5
2620,-14,5,4619,-17,5
2621,-12,5,4620,-17,5
2622,-12,5,4621,-17,5
2623,-13,5,4622,-14,5
2624,-14,5,4623,-12,5
2625,-14,5,4624,-16,5
2626,-12,5,4625,-17,5
2627,-10,5,4626,-17,5
2628,-9,5,4627,-17,5
2629,-14,5,4628,-17,5
2630,-17,5,4629,-17,5
2631,-14,5,4630,-17,5
2632,-11,5,4631,-17,5
2633,-9,5,4632,-17,5
2634,-8,5,4633,-17,5
2635,-8,5,4634,-17,5
2636,-9,5,4635,-13,5
2637,-9,5,4636,-13,5
2638,-10,5,4637,-16,5
2639,-9,5,4638,-17,5
2640,-8,5,4639,-17,5
2641,-8,5,4640,-17,5
2642,-8,5,4641,-17,5
2643,-9,5,4642,-17,5
2644,-10,5,4643,-17,5
2645,-12,5,4644,-17,5
2646,-11,5,4645,-17,5
2647,-10,5,4646,-17,5
2648,-12,5,4647,-17,5
2649,-15,5,4648,-17,5
2650,-17,5,4649,-17,5
2651,-17,5,4650,-15,5
2652,-17,5,4651,-15,5
2653,-17,5,4652,-17,5
2654,-17,5,4653,-17,5
2655,-17,5,4654,-17,5
2656,-17,5,4655,-17,5
2657,-17,5,4656,-17,5
2658,-17,5,4657,-17,5
2659,-17,5,4658,-17,5
2660,-17,5,4659,-17,5
2661,-17,5,4660,-17,5
2662,-17,5,4661,-16,5
2663,-17,5,4662,-16,5
2664,-17,5,4663,-17,5
2665,-17,5,4664,-17,5
2666,-17,5,4665,-17,5
2667,-17,5,4666,-17,5
2668,-17,5,4667,-17,5
2669,-17,5,4668,-17,5
2670,-17,5,4669,-16,5
2671,-17,5,4670,-13,5
2672,-17,5,4671,-13,5
2673,-17,5,4672,-15,5
2674,-17,5,4673,-14,5
2675,-17,5,4674,-13,5
2676,-17,5,4675,-13,5
2677,-17,5,4676,-15,5
2678,-17,5,4677,-15,5
2679,-17,5,4678,-16,5
2680,-17,5,4679,-15,5
2681,-17,5,4680,-14,5
2682,-17,5,4681,-9,5
2683,-17,5,4682,-4,5
2684,-17,5,4683,-6,5
2685,-17,5,4684,-9,5
2686,-17,5,4685,-10,5
2687,-17,5,4686,-7,5
2688,-12,5,4687,-7,5
2689,-3,5,4688,-9,5
2690,0,5,4689,-7,5
2691,5,5,4690,-6,5
2692,16,5,4691,-8,5
2693,28,5,4692,-11,5
2694,43,5,4693,-13,5
2695,47,5,4694,-15,5
2696,47,5,4695,-17,5
2697,47,5,4696,-17,5
2698,47,5,4697,-17,5
2699,43,5,4698,-17,5
2700,33,5,4699,-17,5
2701,26,5,4700,-17,5
2702,16,5,4701,-17,5
2703,8,5,4702,-17,5
2704,0,5,4703,-17,5
2705,-8,5,4704,-17,5
2706,-14,5,4705,-16,5
2707,-17,5,4706,-15,5
2708,-17,5,4707,-15,5
2709,-17,5,4708,-17,5
2710,-17,5,4709,-17,5
2711,-17,5,4710,-17,5
2712,-17,5,4711,-17,5
2713,-17,5,4712,-17,5
2714,-17,5,4713,-17,5
2715,-17,5,4714,-17,5
2716,-17,5,4715,-17,5
2717,-17,5,4716,-17,5
2718,-17,5,4717,-17,5
2719,-17,5,4718,-17,5
2720,-17,5,4719,-17,5
2721,-17,5,4720,-17,5
2722,-17,5,4721,-14,5
2723,-17,5,4722,-14,5
2724,-17,5,4723,-17,5
2725,-17,5,4724,-17,5
2726,-17,5,4725,-17,5
2727,-17,5,4726,-17,5
2728,-17,5,4727,-17,5
2729,-17,5,4728,-16,5
2730,-17,5,4729,-16,5
2731,-17,5,4730,-17,5
2732,-17,5,4731,-16,5
2733,-17,5,4732,-13,5
2734,-17,5,4733,-12,5
2735,-17,5,4734,-11,5
2736,-17,5,4735,-12,5
2737,-17,5,4736,-10,5
2738,-17,5,4737,-4,5
2739,-17,5,4738,2,5
2740,-17,5,4739,11,5
2741,-17,5,4740,23,5
2742,-17,5,4741,38,5
2743,-17,5,4742,47,5
2744,-17,5,4743,47,5
2745,-17,5,4744,47,5
2746,-17,5,4745,47,5
2747,-17,5,4746,47,5
2748,-17,5,4747,47,5
2749,-17,5,4748,47,5
2750,-17,5,4749,47,5
2751,-17,5,4750,47,5
2752,-17,5,4751,37,5
2753,-17,5,4752,26,5
2754,-17,5,4753,14,5
2755,-17,5,4754,5,5
2756,-17,5,4755,0,5
2757,-17,5,4756,-3,5
2758,-17,5,4757,-2,5
2759,-17,5,4758,0,5
2760,-17,5,4759,-2,5
2761,-17,5,4760,-6,5
2762,-17,5,4761,-10,5
2763,-17,5,4762,-14,5
2764,-17,5,4763,-17,5
2765,-17,5,4764,-17,5
2766,-17,5,4765,-17,5
2767,-17,5,4766,-17,5
2768,-17,5,4767,-17,5
2769,-17,5,4768,-17,5
2770,-17,5,4769,-14,5
2771,-17,5,4770,-12,5
2772,-17,5,4771,-10,5
2773,-17,5,4772,-9,5
2774,-17,5,4773,-9,5
2775,-17,5,4774,-11,5
2776,-17,5,4775,-13,5
2777,-17,5,4776,-15,5
2778,-17,5,4777,-17,5
2779,-17,5,4778,-17,5
2780,-17,5,4779,-17,5
2781,-17,5,4780,-15,5
2782,-17,5,4781,-12,5
2783,-17,5,4782,-11,5
2784,-17,5,4783,-11,5
2785,-17,5,4784,-11,5
2786,-17,5,4785,-12,5
2787,-17,5,4786,-13,5
2788,-17,5,4787,-12,5
2789,-17,5,4788,-10,5
2790,-17,5,4789,-10,5
2791,-17,5,4790,-14,5
2792,-17,5,4791,-13,5
2793,-17,5,4792,-9,5
2794,-17,5,4793,-9,5
2795,-17,5,4794,-10,5
2796,-17,5,4795,-12,5
2797,-17,5,4796,-14,5
2798,-17,5,4797,-17,5
2799,-16,5,4798,-17,5
2800,-15,5,4799,-17,5
2801,-12,5,4800,-17,5
2802,-10,5,4801,-17,5
2803,-11,5,4802,-16,5
2804,-9,5,4803,-16,5
2805,-8,5,4804,-15,5
2806,-12,5,4805,-12,5
2807,-14,5,4806,-11,5
2808,-13,5,4807,-14,5
2809,-10,5,4808,-12,5
2810,-9,5,4809,-10,5
2811,-7,5,4810,-10,5
2812,-6,5,4811,-8,5
2813,-6,5,4812,-4,5
2814,-7,5,4813,-4,5
2815,-9,5,4814,-7,5
2816,-7,5,4815,-10,5
2817,-7,5,4816,-15,5
2818,-10,5,4817,-17,5
2819,-11,5,4818,-17,5
2820,-9,5,4819,-17,5
2821,-7,5,4820,-17,5
2822,-5,5,4821,-16,5
2823,-3,5,4822,-16,5
2824,0,5,4823,-17,5
2825,-1,5,4824,-17,5
2826,-2,5,4825,-17,5
2827,-4,5,4826,-17,5
2828,-3,5,4827,-16,5
2829,-4,5,4828,-12,5
2830,-2,5,4829,-9,5
2831,0,5,4830,-9,5
2832,-3,5,4831,-10,5
2833,-2,5,4832,-11,5
2834,0,5,4833,-10,5
2835,0,5,4834,-11,5
2836,0,5,4835,-11,5
2837,1,5,4836,-12,5
2838,3,5,4837,-13,5
2839,5,5,4838,-10,5
2840,7,5,4839,-10,5
2841,8,5,4840,-10,5
2842,8,5,4841,-8,5
2843,8,5,4842,-8,5
2844,6,5,4843,-12,5
2845,4,5,4844,-14,5
2846,4,5,4845,-17,5
2847,4,5,4846,-17,5
2848,5,5,4847,-16,5
2849,4,5,4848,-12,5
2850,-1,5,4849,-9,5
2851,-3,5,4850,-5,5
2852,-6,5,4851,-3,5
2853,-7,5,4852,-3,5
2854,-7,5,4853,-2,5
2855,-5,5,4854,-4,5
2856,-4,5,4855,-2,5
2857,-3,5,4856,0,5
2858,-4,5,4857,0,5
2859,-5,5,4858,0,5
2860,-7,5,4859,2,5
2861,-8,5,4860,1,5
2862,-9,5,4861,1,5
2863,-10,5,4862,1,5
2864,-10,5,4863,0,5
2865,-7,5,4864,-2,5
2866,-4,5,4865,-3,5
2867,-4,5,4866,-3,5
2868,-9,5,4867,-3,5
2869,-12,5,4868,-4,5
2870,-12,5,4869,-4,5
2871,-12,5,4870,-4,5
2872,-15,5,4871,-3,5
2873,-16,5,4872,-2,5
2874,-15,5,4873,1,5
2875,-16,5,4874,3,5
2876,-17,5,4875,5,5
2877,-17,5,4876,6,5
2878,-17,5,4877,5,5
2879,-16,5,4878,2,5
2880,-14,5,4879,2,5
2881,-13,5,4880,3,5
2882,-12,5,4881,6,5
2883,-12,5,4882,8,5
2884,-13,5,4883,5,5
2885,-16,5,4884,2,5
2886,-17,5,4885,2,5
2887,-17,5,4886,4,5
2888,-15,5,4887,7,5
2889,-14,5,4888,9,5
2890,-13,5,4889,11,5
2891,-14,5,4890,12,5
2892,-17,5,4891,9,5
2893,-17,5,4892,7,5
2894,-17,5,4893,4,5
2895,-17,5,4894,4,5
2896,-17,5,4895,6,5
2897,-17,5,4896,6,5
2898,-17,5,4897,4,5
2899,-17,5,4898,3,5
2900,-17,5,4899,4,5
2901,-17,5,4900,6,5
2902,-17,5,4901,6,5
2903,-17,5,4902,7,5
2904,-17,5,4903,7,5
2905,-17,5,4904,8,5
2906,-17,5,4905,7,5
2907,-17,5,4906,3,5
2908,-17,5,4907,2,5
2909,-17,5,4908,6,5
2910,-17,5,4909,10,5
2911,-17,5,4910,9,5
2912,-17,5,4911,5,5
2913,-17,5,4912,5,5
2914,-14,5,4913,4,5
2915,-15,5,4914,2,5
2916,-17,5,4915,0,5
2917,-17,5,4916,-2,5
2918,-17,5,4917,-6,5
2919,-17,5,4918,-11,5
2920,-17,5,4919,-13,5
2921,-17,5,4920,-14,5
2922,-17,5,4921,-16,5
2923,-17,5,4922,-16,5
2924,-17,5,4923,-17,5
2925,-16,5,4924,-15,5
2926,-13,5,4925,-10,5
2927,-13,5,4926,-6,5
2928,-15,5,4927,-3,5
2929,-17,5,4928,-4,5
2930,-17,5,4929,-8,5
2931,-17,5,4930,-9,5
2932,-17,5,4931,-8,5
2933,-17,5,4932,-9,5
2934,-17,5,4933,-10,5
2935,-15,5,4934,-9,5
2936,-13,5,4935,-9,5
2937,-11,5,4936,-9,5
2938,-11,5,4937,-8,5
2939,-11,5,4938,-8,5
2940,-12,5,4939,-11,5
2941,-14,5,4940,-12,5
2942,-15,5,4941,-12,5
2943,-15,5,4942,-11,5
2944,-14,5,4943,-10,5
2945,-15,5,4944,-9,5
2946,-14,5,4945,-9,5
2947,-14,5,4946,-7,5
2948,-14,5,4947,-6,5
2949,-13,5,4948,-7,5
2950,-11,5,4949,-9,5
2951,-8,5,4950,-9,5
2952,-4,5,4951,-8,5
2953,-2,5,4952,-10,5
2954,-7,5,4953,-10,5
2955,-11,5,4954,-9,5
2956,-11,5,4955,-9,5
2957,-11,5,4956,-7,5
2958,-14,5,4957,-5,5
2959,-16,5,4958,-4,5
2960,-17,5,4959,-5,5
2961,-17,5,4960,-8,5
2962,-17,5,4961,-10,5
2963,-17,5,4962,-10,5
2964,-14,5,4963,-8,5
2965,-11,5,4964,-7,5
2966,-7,5,4965,-8,5
2967,-8,5,4966,-6,5
2968,-12,5,4967,-3,5
2969,-14,5,4968,0,5
2970,-16,5,4969,-5,5
2971,-16,5,4970,-11,5
2972,-12,5,4971,-14,5
2973,-9,5,4972,-16,5
2974,-8,5,4973,-16,5
2975,-8,5,4974,-16,5
2976,-7,5,4975,-14,5
2977,-5,5,4976,-10,5
2978,-4,5,4977,-10,5
2979,-3,5,4978,-10,5
2980,-7,5,4979,-12,5
2981,-9,5,4980,-12,5
2982,-13,5,4981,-9,5
2983,-15,5,4982,-9,5
2984,-15,5,4983,-9,5
2985,-13,5,4984,-6,5
2986,-12,5,4985,-2,5
2987,-11,5,4986,-1,5
2988,-9,5,4987,-4,5
2989,-7,5,4988,-10,5
2990,-7,5,4989,-13,5
2991,-8,5,4990,-12,5
2992,-6,5,4991,-11,5
2993,-2,5,4992,-10,5
2994,-1,5,4993,-9,5
2995,-3,5,4994,-9,5
2996,-7,5,4995,-8,5
2997,-8,5,4996,-7,5
2998,-10,5,4997,-6,5
2999,-14,5,4998,-6,5
3000,-15,5,4999,-5,5
