TS,Reading
1,-0.7
2,-0.3
3,-0.2
4,-0.3
5,-0.4
6,-0.2
7,-0.2
8,-0.3
9,-0.1
10,-0.2
11,-0.5
12,-0.6
13,-0.6
14,-0.1
15,-0.1
16,-0.3
17,-0.6
18,-0.8
19,-0.5
20,-0.2
21,-0.3
22,-0.4
23,-0.7
24,-0.8
25,-0.6
26,-0.5
27,-0.3
28,0
29,0.2
30,0
31,-0.1
32,-0.3
33,-0.6
34,-0.6
35,-0.5
36,-0.1
37,-0.2
38,-0.4
39,-0.3
40,-0.6
41,-0.7
42,-0.7
43,-0.8
44,-0.5
45,-0.5
46,-0.8
47,-0.8
48,-0.4
49,-0.3
50,-0.5
51,-0.6
52,-0.7
53,-0.4
54,-0.6
55,-0.6
56,-0.6
57,-0.7
58,-0.4
59,-0.2
60,-0.4
61,-0.4
62,-0.2
63,-0.3
64,-0.5
65,-0.3
66,-0.5
67,-0.3
68,0.1
69,0.2
70,0.2
71,-0.1
72,-0.3
73,0.1
74,0.1
75,0
76,-0.1
77,0.1
78,0.2
79,0.2
80,0
81,-0.1
82,-0.3
83,-0.8
84,-0.4
85,-0.3
86,-0.4
87,-0.2
88,-0.2
89,-0.6
90,-0.7
91,-0.7
92,-0.6
93,-0.6
94,-0.8
95,-1
96,-1
97,-1
98,-0.8
99,-0.8
100,-1
101,-0.6
102,-0.6
103,-0.6
104,-0.6
105,-0.7
106,-0.7
107,-0.7
108,-0.7
109,-0.7
110,-0.7
111,-0.5
112,-0.5
113,-0.8
114,-0.6
115,-0.6
116,-0.7
117,-0.8
118,-1.6
119,-2.3
120,-2.7
121,-2.9
122,-3.1
123,-3.1
124,-2.4
125,-1.3
126,0.1
127,0.8
128,1.9
129,3.5
130,5.1
131,6.9
132,8
133,8.8
134,9.6
135,10.5
136,11.2
137,11.2
138,11.1
139,11.3
140,11.3
141,10.5
142,10
143,9.7
144,9.2
145,9.1
146,8.9
147,8.2
148,7.5
149,6.5
150,5.2
151,3.3
152,2.1
153,1.7
154,1.4
155,0.9
156,0.6
157,0.7
158,0.4
159,0.1
160,0.2
161,0
162,-0.4
163,-0.7
164,-0.4
165,-0.1
166,-0.4
167,-0.5
168,-0.4
169,-0.4
170,-0.6
171,-0.6
172,-0.7
173,-1
174,-0.9
175,-0.7
176,-0.5
177,-0.6
178,-0.7
179,-1.2
180,-1.1
181,-0.7
182,-0.7
183,-1
184,-0.6
185,-0.5
186,-0.8
187,-0.9
188,-0.8
189,-0.6
190,-0.5
191,-0.6
192,-0.4
193,-0.3
194,-0.4
195,-0.4
196,-0.8
197,-0.9
198,-0.8
199,-0.7
200,-0.6
201,-1
202,-1
203,-1
204,-0.8
205,-0.6
206,-0.5
207,-0.5
208,-0.4
209,-0.7
210,-1
211,-0.9
212,-0.6
213,-0.5
214,-0.7
215,-0.5
216,-0.2
217,-0.4
218,-0.2
219,-0.2
220,-0.3
221,-0.5
222,-0.8
223,-0.6
224,-0.4
225,-0.4
226,-0.3
227,-0.2
228,0
229,0.1
230,0
231,-0.1
232,0
233,0
234,-0.2
235,-0.3
236,0.1
237,0.4
238,0.4
239,0.1
240,-0.1
241,0.2
242,0.4
243,0.7
244,0.9
245,0.5
246,0.4
247,0.4
248,0.9
249,1.2
250,1.2
251,1.4
252,1.4
253,1.5
254,1.5
255,1.5
256,1.5
257,1.9
258,1.7
259,1.6
260,1.7
261,1.5
262,1.3
263,1.8
264,1.8
265,1.9
266,2
267,2.1
268,2.1
269,2.2
270,2.1
271,2
272,1.8
273,2.2
274,2.3
275,2.6
276,2.6
277,2.7
278,2.8
279,2.6
280,2.7
281,2.7
282,2.6
283,2.6
284,2.7
285,2.7
286,2.5
287,2.2
288,2.1
289,2.1
290,1.8
291,1.5
292,1.4
293,1.5
294,1.5
295,1.9
296,1.9
297,1.4
298,1
299,0.8
300,1
301,0.9
302,1
303,0.9
304,0.7
305,0.6
306,0.4
307,0.4
308,0.1
309,0.1
310,0
311,0.2
312,0.2
313,0
314,0
315,-0.2
316,-0.2
317,-0.1
318,-0.1
319,-0.2
320,-0.3
321,-0.3
322,-0.2
323,-0.1
324,-0.1
325,0
326,0.4
327,0.7
328,0.3
329,-0.4
330,-0.1
331,0
332,-0.1
333,-0.2
334,-0.3
335,-0.3
336,0
337,0.2
338,0.1
339,0.2
340,0.4
341,0.5
342,0.2
343,0.1
344,-0.1
345,0
346,0.2
347,0.1
348,-0.2
349,-0.3
350,-0.3
351,-0.2
352,-0.1
353,0
354,0.1
355,0.2
356,0.1
357,0.3
358,0.2
359,0
360,-0.1
361,-0.1
362,-0.6
363,-0.4
364,-0.5
365,-0.4
366,-0.5
367,-0.3
368,0
369,0.1
370,0.1
371,-0.1
372,-0.2
373,-0.1
374,-0.1
375,0
376,-0.3
377,-0.2
378,0.1
379,0.1
380,-0.1
381,0.2
382,0.4
383,0.1
384,-0.1
385,-0.3
386,-0.1
387,0
388,-0.1
389,-0.2
390,0.1
391,0.2
392,0.1
393,-0.1
394,0.1
395,0.2
396,0
397,-0.5
398,-0.5
399,-0.5
400,-0.4
401,-0.3
402,-0.4
403,-0.5
404,-0.6
405,-0.4
406,0
407,-0.1
408,-0.4
409,-0.4
410,-0.3
411,-0.5
412,-0.5
413,-0.6
414,-0.5
415,-0.5
416,-0.9
417,-0.3
418,-0.3
419,-0.2
420,0
421,0.3
422,0.2
423,-0.3
424,-0.5
425,-0.6
426,-0.2
427,-0.2
428,-0.5
429,-0.5
430,-0.7
431,-0.8
432,-0.8
433,-0.6
434,-0.5
435,-0.3
436,-0.4
437,-0.6
438,-0.7
439,-0.8
440,-0.5
441,-0.3
442,-0.3
443,-0.6
444,-1
445,-0.8
446,-0.6
447,-0.5
448,-0.6
449,-0.9
450,-0.9
451,-0.9
452,-0.9
453,-0.8
454,-0.5
455,-0.4
456,-0.1
457,-0.1
458,-0.7
459,-1
460,-1.2
461,-1.5
462,-1.3
463,-1.3
464,-1.3
465,-1
466,-0.5
467,-0.6
468,-0.5
469,-0.5
470,-0.5
471,-0.3
472,-0.2
473,-0.6
474,-0.9
475,-0.8
476,-0.6
477,-0.7
478,-0.9
479,-0.9
480,-0.5
481,-0.4
482,-0.9
483,-0.9
484,-0.7
485,-0.7
486,-0.8
487,-1
488,-0.9
489,-0.7
490,-0.5
491,-0.9
492,-0.7
493,-0.4
494,-0.5
495,-0.8
496,-0.7
497,-0.8
498,-0.9
499,-0.9
500,-0.9
501,-0.9
502,-1
503,-1.1
504,-0.6
505,-0.4
506,-0.8
507,-0.9
508,-0.8
509,-0.9
510,-1
511,-1.1
512,-0.9
513,-0.7
514,-1
515,-0.9
516,-0.9
517,-1.1
518,-1
519,-0.8
520,-1
521,-1.2
522,-1.1
523,-1
524,-0.8
525,-0.7
526,-0.8
527,-1.1
528,-1
529,-1.1
530,-1.2
531,-1
532,-0.8
533,-1
534,-1.1
535,-1.2
536,-1.1
537,-1
538,-1.1
539,-1.4
540,-1
541,-0.8
542,-1
543,-1.3
544,-1.5
545,-1.2
546,-0.9
547,-0.7
548,-0.6
549,-0.9
550,-0.9
551,-0.7
552,-1.1
553,-1.4
554,-1.1
555,-0.3
556,0
557,-0.2
558,-0.2
559,-0.5
560,-0.8
561,-0.7
562,-0.6
563,-0.4
564,-0.3
565,-0.3
566,-0.3
567,-0.3
568,-0.3
569,-0.5
570,-0.7
571,-1
572,-1.3
573,-1.4
574,-1.2
575,-1.6
576,-1.1
577,-0.8
578,-1
579,-1
580,-1.5
581,-1.6
582,-1.5
583,-1.2
584,-0.8
585,-0.3
586,-0.5
587,-1.2
588,-1.2
589,-1.2
590,-1.3
591,-1.6
592,-1.5
593,-1.6
594,-1.5
595,-1.2
596,-1
597,-1.4
598,-1.4
599,-1.5
600,-1.3
601,-1.2
602,-1.8
603,-2.6
604,-3.2
605,-3.8
606,-3.6
607,-3.6
608,-3
609,-2.1
610,-0.8
611,0.2
612,1.5
613,3.2
614,5.3
615,7.3
616,8.3
617,9.2
618,10
619,11
620,11.6
621,11.7
622,11.3
623,11.3
624,11.3
625,10.4
626,10.1
627,10
628,9.8
629,9.7
630,9.3
631,8.5
632,7.6
633,6.5
634,5.7
635,3.8
636,2.5
637,1.7
638,1.5
639,1.1
640,0.8
641,0.5
642,0.2
643,-0.1
644,-0.2
645,-0.1
646,-0.2
647,-0.5
648,-0.6
649,-0.7
650,-1
651,-1.3
652,-1.4
653,-1.2
654,-1.2
655,-1.3
656,-1
657,-1.2
658,-1.1
659,-0.9
660,-0.9
661,-1
662,-1
663,-1.2
664,-1.5
665,-1.5
666,-1.4
667,-1.3
668,-1.3
669,-1.4
670,-1.5
671,-1.2
672,-1.2
673,-1
674,-1.1
675,-1.1
676,-0.9
677,-0.9
678,-1.1
679,-1.1
680,-0.8
681,-0.5
682,-0.7
683,-0.7
684,-0.9
685,-1.1
686,-1.1
687,-1.2
688,-1.3
689,-1.1
690,-1
691,-1
692,-0.8
693,-1
694,-1.1
695,-1.1
696,-1
697,-0.7
698,-0.6
699,-0.8
700,-1.2
701,-1.1
702,-0.7
703,-0.5
704,-0.4
705,-0.5
706,-0.6
707,-0.9
708,-0.7
709,-0.6
710,-0.3
711,-0.2
712,-0.3
713,-0.2
714,-0.4
715,-0.2
716,-0.1
717,-0.3
718,-0.4
719,-0.4
720,0
721,0
722,0
723,-0.2
724,0
725,-0.1
726,-0.2
727,0
728,0.3
729,0.5
730,0.3
731,0.6
732,0.8
733,0.7
734,0.8
735,0.6
736,0.7
737,0.8
738,0.5
739,0.4
740,0.6
741,0.7
742,0.9
743,1.3
744,1.4
745,1.3
746,1.4
747,1.2
748,1.5
749,1.8
750,2
751,2
752,2.1
753,2.1
754,2
755,1.9
756,2.2
757,2.4
758,2.4
759,2.4
760,2.2
761,2.3
762,2.2
763,2.3
764,2.3
765,2.4
766,2.4
767,2.2
768,2.1
769,2.4
770,2.5
771,2.4
772,2.2
773,2
774,1.8
775,1.8
776,1.7
777,1.6
778,1.7
779,1.3
780,0.8
781,0.5
782,0.6
783,0.6
784,0.9
785,0.6
786,0.4
787,0.4
788,0.3
789,0.3
790,0.4
791,0.4
792,0.2
793,-0.1
794,-0.3
795,0.1
796,0
797,-0.1
798,-0.4
799,-0.6
800,-0.6
801,-0.6
802,-0.2
803,-0.1
804,0
805,-0.1
806,-0.4
807,-0.4
808,-0.5
809,-0.5
810,-0.4
811,-0.5
812,-0.6
813,-0.8
814,-0.4
815,0
816,-0.4
817,-0.5
818,-0.3
819,-0.2
820,-0.3
821,-0.5
822,-0.4
823,-0.4
824,-0.3
825,-0.1
826,-0.2
827,-0.1
828,0
829,0
830,-0.1
831,0
832,0
833,-0.1
834,0.1
835,0.2
836,0.2
837,0.2
838,0
839,-0.2
840,-0.5
841,-0.4
842,-0.2
843,-0.2
844,-0.3
845,-0.2
846,0.1
847,0
848,-0.4
849,-0.5
850,-0.3
851,-0.1
852,0
853,0.1
854,-0.1
855,-0.3
856,0
857,0.1
858,0.1
859,-0.3
860,-0.3
861,0
862,-0.1
863,-0.1
864,-0.1
865,-0.2
866,-0.2
867,-0.4
868,-0.4
869,-0.4
870,-0.4
871,-0.4
872,-0.2
873,-0.1
874,-0.1
875,-0.2
876,-0.1
877,-0.2
878,-0.4
879,-0.1
880,-0.1
881,-0.1
882,0
883,-0.1
884,0
885,-0.1
886,-0.1
887,-0.4
888,-0.5
889,-0.5
890,-0.7
891,-0.4
892,-0.4
893,-0.3
894,-0.2
895,-0.3
896,-0.4
897,-0.5
898,-0.7
899,-0.2
900,0.1
901,-0.1
902,-0.2
903,-0.3
904,-0.4
905,-0.4
906,-0.3
907,-0.2
908,-0.2
909,-0.4
910,-0.7
911,-0.8
912,-1
913,-0.5
914,-0.3
915,-0.6
916,-0.6
917,-0.3
918,-0.3
919,-0.1
920,0.1
921,-0.4
922,-0.6
923,-0.2
924,-0.2
925,-0.2
926,-0.2
927,-0.4
928,-0.6
929,-0.6
930,-0.6
931,-0.2
932,-0.1
933,-0.1
934,-0.5
935,-0.7
936,-0.6
937,0
938,0.1
939,-0.2
940,-0.4
941,-0.6
942,-0.8
943,-0.8
944,-0.6
945,-0.3
946,-0.1
947,-0.3
948,-0.5
949,-0.7
950,-0.9
951,-0.9
952,-0.8
953,-0.7
954,-0.9
955,-0.7
956,-0.5
957,-0.6
958,-0.5
959,-0.2
960,-0.3
961,-0.8
962,-0.9
963,-0.7
964,-0.4
965,-0.5
966,-0.5
967,-0.8
968,-1.1
969,-1
970,-0.9
971,-0.8
972,-0.6
973,-0.5
974,-0.6
975,-0.6
976,-0.6
977,-0.9
978,-0.5
979,-0.5
980,-0.4
981,-0.7
982,-1
983,-0.8
984,-0.8
985,-0.6
986,-0.7
987,-0.9
988,-0.8
989,-0.6
990,-0.5
991,-0.7
992,-0.5
993,-0.7
994,-1
995,-1
996,-0.9
997,-0.9
998,-1
999,-1.1
1000,-0.8
1001,-0.7
1002,-0.6
1003,-0.6
1004,-0.4
1005,-0.2
1006,-0.5
1007,-0.5
1008,-0.7
1009,-0.9
1010,-0.7
1011,-0.9
1012,-0.8
1013,-0.8
1014,-1
1015,-0.9
1016,-0.6
1017,-0.7
1018,-0.8
1019,-0.8
1020,-0.9
1021,-0.6
1022,-0.3
1023,-0.7
1024,-1
1025,-1.1
1026,-0.9
1027,-0.7
1028,-0.8
1029,-0.8
1030,-0.8
1031,-0.7
1032,-0.7
1033,-0.9
1034,-1.3
1035,-1.1
1036,-0.9
1037,-0.8
1038,-0.6
1039,-0.7
1040,-0.6
1041,-0.6
1042,-0.7
1043,-0.6
1044,-0.4
1045,-0.5
1046,-0.1
1047,0.4
1048,0.2
1049,0
1050,-0.7
1051,-0.6
1052,-0.5
1053,-0.4
1054,-0.2
1055,0
1056,0.1
1057,0.1
1058,-0.2
1059,-0.1
1060,-0.2
1061,-0.5
1062,-0.4
1063,-0.2
1064,0.1
1065,-0.4
1066,-0.9
1067,-0.7
1068,-0.4
1069,-0.5
1070,-0.7
1071,-0.6
1072,-0.4
1073,-0.9
1074,-1.1
1075,-1
1076,-1
1077,-0.9
1078,-0.8
1079,-0.7
1080,-0.6
1081,-0.6
1082,-1
1083,-1.1
1084,-0.6
1085,-0.6
1086,-0.8
1087,-0.8
1088,-0.9
1089,-0.6
1090,-0.4
1091,-0.7
1092,-0.9
1093,-1.4
1094,-1.9
1095,-2.4
1096,-3.5
1097,-4
1098,-3.6
1099,-2.6
1100,-1.4
1101,0.1
1102,1.1
1103,2.6
1104,4.1
1105,6.2
1106,8
1107,8.7
1108,9.5
1109,10.7
1110,11.5
1111,12.1
1112,12.7
1113,12.8
1114,12.6
1115,12
1116,11.2
1117,11
1118,10.5
1119,9.8
1120,9.7
1121,9.5
1122,8.6
1123,8
1124,7
1125,5.7
1126,3.9
1127,2.6
1128,1.8
1129,1.3
1130,1.1
1131,0.9
1132,0.4
1133,0.4
1134,0.4
1135,0.4
1136,0.1
1137,-0.3
1138,-0.5
1139,-0.5
1140,-0.4
1141,-0.4
1142,-0.6
1143,-0.8
1144,-0.8
1145,-0.7
1146,-0.8
1147,-0.8
1148,-0.6
1149,-0.6
1150,-0.9
1151,-1.3
1152,-1.4
1153,-1.1
1154,-1.2
1155,-1.1
1156,-0.6
1157,-0.3
1158,-0.8
1159,-0.8
1160,-0.7
1161,-0.7
1162,-0.8
1163,-0.6
1164,-0.3
1165,-0.5
1166,-0.8
1167,-0.9
1168,-1
1169,-0.5
1170,-0.4
1171,-1.1
1172,-1.2
1173,-1.1
1174,-0.9
1175,-0.5
1176,-0.5
1177,-1
1178,-1.2
1179,-0.8
1180,-0.6
1181,-0.5
1182,-0.5
1183,-0.7
1184,-0.9
1185,-0.9
1186,-0.7
1187,-0.7
1188,-0.9
1189,-0.8
1190,-0.6
1191,-0.4
1192,-0.3
1193,-0.3
1194,-0.7
1195,-0.5
1196,-0.5
1197,-0.6
1198,-0.5
1199,-0.5
1200,-0.5
1201,-0.3
1202,-0.2
1203,-0.3
1204,0
1205,-0.2
1206,-0.4
1207,0.1
1208,0.1
1209,0
1210,-0.1
1211,0
1212,0.1
1213,0.1
1214,0.3
1215,0.5
1216,0.6
1217,0.8
1218,0.9
1219,0.9
1220,0.8
1221,0.6
1222,0.5
1223,0.5
1224,0.7
1225,0.8
1226,1.1
1227,1.3
1228,1.7
1229,2
1230,1.9
1231,1.8
1232,1.7
1233,1.9
1234,2
1235,2.2
1236,2.4
1237,2.4
1238,2.6
1239,2.7
1240,2.5
1241,2.8
1242,2.8
1243,3
1244,3.2
1245,3.1
1246,3
1247,2.4
1248,2.4
1249,2.2
1250,2.4
1251,2.7
1252,2.9
1253,3.3
1254,3.3
1255,2.9
1256,2.9
1257,2.8
1258,2.5
1259,2.5
1260,2.6
1261,2.8
1262,2.6
1263,2.6
1264,2.5
1265,2.4
1266,2.1
1267,1.9
1268,2
1269,2
1270,1.8
1271,1.6
1272,1.4
1273,1.3
1274,1.3
1275,1.3
1276,1.1
1277,0.9
1278,1
1279,0.9
1280,0.8
1281,0.5
1282,0.3
1283,0.3
1284,0
1285,0.1
1286,0.2
1287,0.3
1288,0.3
1289,-0.2
1290,-0.3
1291,-0.3
1292,-0.6
1293,-0.5
1294,0
1295,0.1
1296,0.2
1297,0.2
1298,0.1
1299,-0.3
1300,-0.4
1301,-0.5
1302,-0.5
1303,-0.2
1304,-0.4
1305,-0.4
1306,0
1307,0.2
1308,0.1
1309,0.2
1310,0.2
1311,0.4
1312,0.9
1313,0.5
1314,-0.1
1315,-0.1
1316,-0.2
1317,-0.5
1318,-0.2
1319,0.3
1320,0.1
1321,-0.2
1322,0.1
1323,0.1
1324,0
1325,0
1326,-0.2
1327,0
1328,0
1329,-0.1
1330,-0.4
1331,-0.4
1332,-0.3
1333,0
1334,0.1
1335,0.3
1336,0.3
1337,0.2
1338,0.2
1339,0.1
1340,-0.1
1341,-0.1
1342,0.1
1343,0.3
1344,-0.1
1345,0.1
1346,0.2
1347,-0.1
1348,0.1
1349,0.3
1350,-0.1
1351,0
1352,0
1353,-0.4
1354,-0.4
1355,-0.2
1356,-0.1
1357,0
1358,0
1359,0
1360,-0.2
1361,-0.3
1362,-0.5
1363,-0.4
1364,-0.2
1365,0
1366,0
1367,0
1368,0.1
1369,0
1370,-0.2
1371,-0.1
1372,0.2
1373,0.5
1374,0.2
1375,-0.1
1376,-0.1
1377,-0.2
1378,-0.3
1379,-0.3
1380,-0.2
1381,0.1
1382,0
1383,-0.1
1384,-0.2
1385,-0.2
1386,-0.1
1387,0.1
1388,0.4
1389,-0.2
1390,-0.2
1391,-0.2
1392,-0.1
1393,0
1394,-0.5
1395,-0.3
1396,0.2
1397,0.1
1398,-0.1
1399,-0.6
1400,-0.4
1401,-0.2
1402,-0.4
1403,-0.4
1404,-0.1
1405,0
1406,-0.2
1407,-0.2
1408,-0.1
1409,-0.3
1410,-0.2
1411,-0.3
1412,-0.3
1413,-0.4
1414,-0.4
1415,-0.2
1416,-0.2
1417,-0.3
1418,-0.1
1419,-0.1
1420,-0.3
1421,-0.2
1422,-0.1
1423,0
1424,-0.1
1425,-0.1
1426,-0.1
1427,0.1
1428,0
1429,-0.3
1430,-0.5
1431,-0.6
1432,-0.4
1433,-0.4
1434,-0.4
1435,-0.4
1436,-0.2
1437,-0.2
1438,-0.4
1439,-0.4
1440,-0.5
1441,-0.6
1442,-0.3
1443,0.1
1444,0
1445,-0.2
1446,-0.2
1447,-0.4
1448,-0.5
1449,-0.4
1450,-0.7
1451,-0.3
1452,-0.3
1453,-0.7
1454,-0.8
1455,-0.1
1456,-0.1
1457,0
1458,-0.3
1459,-0.3
1460,0
1461,-0.2
1462,-0.4
1463,-0.2
1464,-0.2
1465,-0.4
1466,-0.4
1467,-0.3
1468,-0.4
1469,-0.2
1470,-0.5
1471,-0.9
1472,-1
1473,-1
1474,-0.8
1475,-0.5
1476,-0.6
1477,-0.6
1478,-0.3
1479,-0.2
1480,-0.3
1481,-0.2
1482,-0.2
1483,-0.4
1484,-0.3
1485,-0.4
1486,-0.1
1487,0
1488,-0.3
1489,-0.5
1490,-0.6
1491,-0.7
1492,-0.6
1493,-0.5
1494,-0.5
1495,-0.5
1496,-0.5
1497,-0.5
1498,-0.6
1499,-0.9
1500,-0.9
1501,-0.7
1502,-0.6
1503,-0.5
1504,-0.2
1505,-0.1
1506,-0.5
1507,-0.6
1508,-0.4
1509,-0.5
1510,-0.8
1511,-0.3
1512,-0.2
1513,0
1514,0.1
1515,0.1
1516,0.3
1517,0.3
1518,0
1519,0
1520,-0.1
1521,-0.2
1522,-0.6
1523,-0.3
1524,-0.1
1525,-0.2
1526,-0.3
1527,0
1528,-0.1
1529,-0.5
1530,-0.5
1531,-0.3
1532,-0.6
1533,-0.7
1534,-0.7
1535,-0.4
1536,-0.4
1537,-0.5
1538,-0.7
1539,-0.8
1540,-0.7
1541,-0.8
1542,-0.7
1543,-0.6
1544,-0.6
1545,-0.6
1546,-0.7
1547,-1
1548,-0.7
1549,-0.8
1550,-1.2
1551,-1.1
1552,-0.9
1553,-0.4
1554,-0.7
1555,-0.7
1556,-0.5
1557,-0.8
1558,-0.9
1559,-0.7
1560,-0.5
1561,-0.6
1562,-1
1563,-1.2
1564,-1.7
1565,-2.3
1566,-3
1567,-3.2
1568,-3
1569,-2.1
1570,-1.4
1571,-0.5
1572,0.3
1573,1.3
1574,2.7
1575,4.6
1576,6.7
1577,7.8
1578,8.3
1579,9.2
1580,10.4
1581,11
1582,10.7
1583,10.5
1584,10.9
1585,11.2
1586,10.3
1587,9.9
1588,9
1589,8.2
1590,7.9
1591,7.6
1592,6.8
1593,5.9
1594,5
1595,3.5
1596,1.4
1597,0.8
1598,0.8
1599,1
1600,0.9
1601,0.5
1602,0.3
1603,0.3
1604,0.4
1605,0.1
1606,0.1
1607,0.2
1608,-0.1
1609,-0.4
1610,-0.6
1611,-0.5
1612,-0.4
1613,-0.3
1614,-0.3
1615,-0.1
1616,0.1
1617,0.1
1618,0
1619,-0.3
1620,-0.6
1621,-0.7
1622,-0.5
1623,-0.2
1624,-0.4
1625,-0.6
1626,-0.5
1627,-0.3
1628,-0.5
1629,-0.5
1630,-0.6
1631,-0.7
1632,-0.8
1633,-1
1634,-0.7
1635,-0.5
1636,-0.4
1637,-0.5
1638,-0.8
1639,-0.8
1640,-0.6
1641,-0.7
1642,-0.6
1643,-0.3
1644,-0.1
1645,-0.1
1646,0
1647,-0.2
1648,-0.6
1649,-0.8
1650,-0.5
1651,-0.6
1652,-0.3
1653,0.1
1654,0
1655,0.1
1656,0.1
1657,0.2
1658,0
1659,-0.1
1660,0
1661,0.1
1662,-0.1
1663,-0.2
1664,-0.5
1665,-0.1
1666,0.1
1667,0.2
1668,0.3
1669,0.3
1670,0.3
1671,0
1672,-0.2
1673,-0.1
1674,-0.1
1675,0.1
1676,0.2
1677,0.2
1678,0.3
1679,-0.1
1680,0.4
1681,0.5
1682,0.4
1683,0.5
1684,0.5
1685,1
1686,0.9
1687,0.6
1688,0.5
1689,0.2
1690,0.3
1691,0.5
1692,1
1693,1.1
1694,1.4
1695,1.6
1696,1.8
1697,1.5
1698,1.7
1699,2
1700,1.9
1701,1.8
1702,1.8
1703,2.3
1704,2.4
1705,2.2
1706,2.4
1707,2.6
1708,2.2
1709,2.4
1710,2.4
1711,2.5
1712,2.7
1713,3
1714,2.9
1715,2.4
1716,2.6
1717,2.9
1718,2.4
1719,2.6
1720,2.7
1721,2.8
1722,3.1
1723,3
1724,3
1725,2.8
1726,2.9
1727,3.1
1728,3.2
1729,3
1730,2.7
1731,2.7
1732,2.9
1733,2.7
1734,2.6
1735,2.4
1736,2.3
1737,1.8
1738,1.6
1739,1.7
1740,1.6
1741,1.1
1742,1
1743,1
1744,1.2
1745,0.8
1746,0.6
1747,0.9
1748,1.2
1749,0.9
1750,0.7
1751,0.4
1752,0.8
1753,0.9
1754,0.6
1755,0.2
1756,0
1757,0.2
1758,0.1
1759,0.2
1760,0.3
1761,0.4
1762,0.4
1763,0.2
1764,0.2
1765,0.1
1766,0.3
1767,0.2
1768,0.1
1769,0.1
1770,0.4
1771,0.3
1772,0.5
1773,0.6
1774,0.6
1775,0.3
1776,0.3
1777,0.5
1778,0.4
1779,0.2
1780,0.4
1781,0.3
1782,0.4
1783,0.2
1784,0.5
1785,0.5
1786,0.4
1787,0.2
1788,0.1
1789,0
1790,0
1791,-0.1
1792,0.1
1793,0.1
1794,0.2
1795,0
1796,-0.2
1797,-0.1
1798,0.2
1799,0.3
1800,0
1801,0
1802,0
1803,0.2
1804,0.1
1805,0.3
1806,0.2
1807,0.4
1808,0.6
1809,0.4
1810,0.4
1811,0.2
1812,-0.1
1813,0.1
1814,0.2
1815,0
1816,0.2
1817,0.3
1818,0.1
1819,0.3
1820,0.4
1821,0.2
1822,-0.1
1823,0
1824,0.3
1825,0.4
1826,0.3
1827,0
1828,0.2
1829,0
1830,0.1
1831,0.3
1832,0.2
1833,0.2
1834,0.3
1835,0.4
1836,0.2
1837,0.4
1838,0.2
1839,-0.2
1840,0
1841,0
1842,-0.3
1843,-0.1
1844,-0.2
1845,-0.2
1846,0
1847,0.3
1848,0.7
1849,0.2
1850,-0.2
1851,-0.3
1852,0
1853,-0.1
1854,0
1855,-0.1
1856,-0.1
1857,-0.1
1858,-0.2
1859,-0.1
1860,0.4
1861,0.7
1862,0.2
1863,0
1864,0.1
1865,0.2
1866,0.1
1867,0
1868,-0.1
1869,0.1
1870,-0.1
1871,-0.4
1872,-0.2
1873,0.1
1874,0.1
1875,0
1876,0
1877,-0.1
1878,-0.1
1879,-0.3
1880,-0.5
1881,-0.3
1882,-0.5
1883,-0.6
1884,-0.5
1885,-0.3
1886,-0.4
1887,-0.2
1888,-0.1
1889,-0.3
1890,-0.3
1891,-0.2
1892,-0.2
1893,-0.5
1894,-0.6
1895,-0.3
1896,-0.4
1897,-0.7
1898,-0.5
1899,-0.2
1900,-0.3
1901,-0.4
1902,-0.3
1903,-0.3
1904,-0.6
1905,-0.8
1906,-0.6
1907,0
1908,0
1909,0
1910,0.2
1911,0.1
1912,-0.4
1913,-0.7
1914,-0.7
1915,-0.4
1916,-0.4
1917,-0.4
1918,-0.7
1919,-0.8
1920,-0.6
1921,-0.2
1922,0
1923,0
1924,-0.5
1925,-0.5
1926,-0.5
1927,-0.3
1928,-0.2
1929,-0.4
1930,-0.5
1931,-0.6
1932,-0.4
1933,-0.6
1934,-1
1935,-0.7
1936,-0.5
1937,-0.6
1938,-0.8
1939,-0.9
1940,-0.7
1941,-0.4
1942,-0.2
1943,-0.1
1944,-0.2
1945,-0.4
1946,-0.7
1947,-0.8
1948,-0.4
1949,-0.2
1950,-0.3
1951,-0.6
1952,-1
1953,-0.9
1954,-0.8
1955,-0.5
1956,-0.6
1957,-0.6
1958,-0.5
1959,-0.1
1960,-0.2
1961,-0.7
1962,-0.6
1963,-0.7
1964,-1.1
1965,-0.4
1966,-0.2
1967,-0.6
1968,-0.5
1969,-0.4
1970,-0.5
1971,-0.6
1972,-0.6
1973,-0.3
1974,0.1
1975,-0.1
1976,-0.4
1977,-0.2
1978,-0.1
1979,-0.2
1980,0
1981,-0.2
1982,-0.3
1983,-0.2
1984,-0.3
1985,-0.2
1986,-0.1
1987,-0.1
1988,-0.1
1989,0
1990,0.1
1991,0.1
1992,0.1
1993,-0.1
1994,-0.3
1995,-0.3
1996,-0.2
1997,-0.3
1998,-0.1
1999,-0.1
2000,-0.4
2001,-0.4
2002,-0.7
2003,-1.3
2004,-1.5
2005,-1.3
2006,-1.1
2007,-1.2
2008,-0.7
2009,-0.4
2010,-0.5
2011,-0.5
2012,-0.2
2013,0
2014,-0.4
2015,-0.5
2016,-0.6
2017,-0.5
2018,-0.6
2019,-0.6
2020,-0.4
2021,-0.5
2022,-0.9
2023,-1.1
2024,-0.8
2025,-0.8
2026,-0.8
2027,-0.7
2028,-1
2029,-1.1
2030,-1.5
2031,-2.1
2032,-2.7
2033,-3.1
2034,-3.5
2035,-2.9
2036,-2.4
2037,-1.4
2038,-0.2
2039,0.6
2040,1.7
2041,3.2
2042,5.1
2043,6.8
2044,7.8
2045,8.6
2046,9.5
2047,10.4
2048,11.1
2049,11.6
2050,11.5
2051,11.6
2052,11.8
2053,11
2054,10.3
2055,9.9
2056,9.4
2057,9.2
2058,8.6
2059,7.8
2060,7.1
2061,6.1
2062,4.7
2063,3
2064,2
2065,1.4
2066,1.4
2067,1.3
2068,0.9
2069,0.2
2070,0.3
2071,0.4
2072,0.2
2073,-0.2
2074,-0.2
2075,0
2076,0.2
2077,0.1
2078,-0.3
2079,-0.6
2080,-0.7
2081,-0.7
2082,-0.7
2083,-0.8
2084,-1
2085,-0.9
2086,-0.7
2087,-1
2088,-1.1
2089,-1.1
2090,-1
2091,-1
2092,-1.2
2093,-1.3
2094,-1
2095,-0.8
2096,-0.8
2097,-0.8
2098,-0.9
2099,-1
2100,-1
2101,-1.1
2102,-1.1
2103,-0.6
2104,-0.5
2105,-0.3
2106,-0.2
2107,-0.3
2108,-0.4
2109,-0.5
2110,-0.9
2111,-1.3
2112,-1.2
2113,-0.9
2114,-0.9
2115,-0.8
2116,-0.5
2117,-0.9
2118,-1
2119,-0.8
2120,-1
2121,-0.8
2122,-0.6
2123,-0.7
2124,-0.7
2125,-0.6
2126,-0.4
2127,-0.6
2128,-0.7
2129,-0.8
2130,-0.7
2131,-0.6
2132,-0.4
2133,-0.3
2134,-0.1
2135,-0.3
2136,-0.5
2137,-0.3
2138,-0.2
2139,-0.2
2140,-0.1
2141,-0.2
2142,-0.3
2143,-0.3
2144,-0.3
2145,0
2146,0
2147,-0.2
2148,-0.3
2149,-0.2
2150,-0.3
2151,-0.2
2152,0.2
2153,0
2154,0
2155,0.2
2156,0.5
2157,0.8
2158,1.2
2159,1.2
2160,1.1
2161,0.8
2162,0.6
2163,0.5
2164,0.7
2165,0.9
2166,1
2167,1.2
2168,1.3
2169,1.3
2170,1.3
2171,1.5
2172,1.6
2173,1.7
2174,1.9
2175,1.9
2176,1.8
2177,1.8
2178,1.8
2179,1.9
2180,1.9
2181,1.8
2182,1.7
2183,1.9
2184,2
2185,2.3
2186,2.3
2187,2.3
2188,2.4
2189,2.3
2190,2.5
2191,2.4
2192,2.3
2193,2.3
2194,2.4
2195,2.4
2196,2.5
2197,2.4
2198,2.1
2199,2.2
2200,2.1
2201,2
2202,2.3
2203,2.1
2204,1.8
2205,1.7
2206,1.6
2207,1.4
2208,1.3
2209,1.1
2210,0.7
2211,0.6
2212,0.6
2213,0.6
2214,0.3
2215,0.2
2216,0.2
2217,0.1
2218,0
2219,0
2220,-0.2
2221,-0.3
2222,-0.2
2223,-0.2
2224,-0.3
2225,0
2226,0.1
2227,0
2228,0
2229,-0.3
2230,-0.4
2231,-0.2
2232,0
2233,0
2234,-0.2
2235,0
2236,-0.5
2237,-0.5
2238,-0.5
2239,-0.6
2240,-0.6
2241,-0.5
2242,-0.4
2243,-0.3
2244,-0.1
2245,-0.2
2246,-0.1
2247,0
2248,0
2249,-0.2
2250,-0.2
2251,-0.2
2252,-0.1
2253,-0.2
2254,-0.2
2255,-0.1
2256,-0.2
2257,-0.2
2258,0.2
2259,0.1
2260,0.2
2261,-0.3
2262,-0.5
2263,-0.4
2264,-0.1
2265,-0.1
2266,-0.2
2267,-0.1
2268,-0.1
2269,-0.2
2270,-0.1
2271,-0.2
2272,-0.6
2273,-0.5
2274,-0.3
2275,-0.1
2276,-0.1
2277,-0.3
2278,-0.6
2279,-0.5
2280,-0.4
2281,-0.1
2282,-0.2
2283,-0.5
2284,-0.4
2285,-0.1
2286,0.1
2287,0.2
2288,0
2289,-0.3
2290,-0.3
2291,-0.5
2292,-0.5
2293,-0.1
2294,-0.2
2295,-0.6
2296,-0.9
2297,-0.5
2298,0
2299,0.1
2300,-0.1
2301,-0.4
2302,-0.8
2303,-0.7
2304,-0.4
2305,-0.1
2306,0
2307,0.1
2308,-0.1
2309,-0.5
2310,-0.6
2311,-0.5
2312,-0.5
2313,-0.4
2314,0
2315,-0.4
2316,-0.4
2317,-0.2
2318,-0.1
2319,-0.3
2320,-0.4
2321,-0.3
2322,-0.2
2323,-0.3
2324,-0.7
2325,-0.6
2326,-0.3
2327,-0.3
2328,-0.3
2329,-0.4
2330,-0.5
2331,-0.6
2332,-0.7
2333,-0.7
2334,-0.4
2335,-0.1
2336,-0.5
2337,-0.4
2338,-0.3
2339,-0.5
2340,-0.8
2341,-0.8
2342,-0.2
2343,0.2
2344,-0.2
2345,-0.1
2346,-0.3
2347,-0.5
2348,-0.3
2349,-0.2
2350,-0.4
2351,-0.3
2352,-0.2
2353,-0.4
2354,-0.4
2355,-0.5
2356,-0.9
2357,-1
2358,-0.6
2359,-0.1
2360,-0.3
2361,-0.6
2362,-0.6
2363,-0.9
2364,-0.9
2365,-0.7
2366,-0.6
2367,-0.7
2368,-0.6
2369,-0.6
2370,-0.7
2371,-1.1
2372,-0.9
2373,-0.8
2374,-0.9
2375,-0.8
2376,-0.3
2377,-0.1
2378,-0.4
2379,-0.7
2380,-0.6
2381,-0.4
2382,-0.5
2383,-0.6
2384,-0.5
2385,-0.3
2386,0
2387,-0.3
2388,-0.7
2389,-1.1
2390,-1.3
2391,-1.3
2392,-1.2
2393,-1
2394,-0.9
2395,-0.8
2396,-0.5
2397,-0.4
2398,-0.3
2399,-0.2
2400,-0.4
2401,-0.5
2402,-0.6
2403,-0.4
2404,-0.6
2405,-0.8
2406,-0.7
2407,-0.7
2408,-0.8
2409,-0.8
2410,-0.9
2411,-1.2
2412,-1.4
2413,-0.7
2414,-0.5
2415,-0.3
2416,-0.2
2417,0.1
2418,0
2419,-0.5
2420,-0.8
2421,-1.2
2422,-1.2
2423,-0.8
2424,-0.7
2425,-0.8
2426,-1.2
2427,-1.3
2428,-0.7
2429,-0.6
2430,-0.5
2431,-0.3
2432,-0.5
2433,-0.7
2434,-0.6
2435,-0.6
2436,-0.6
2437,-0.6
2438,-0.4
2439,-0.4
2440,-0.5
2441,-0.6
2442,-0.7
2443,-0.8
2444,-1
2445,-0.9
2446,-0.5
2447,-0.3
2448,-0.3
2449,-0.6
2450,-0.6
2451,-0.6
2452,-0.2
2453,-0.3
2454,-0.7
2455,-0.9
2456,-0.8
2457,-0.5
2458,-0.3
2459,-0.4
2460,-0.7
2461,-0.7
2462,-0.9
2463,-0.7
2464,-0.4
2465,-0.1
2466,0
2467,-0.1
2468,-0.3
2469,-0.4
2470,-0.6
2471,-0.7
2472,-0.4
2473,-0.4
2474,-0.3
2475,-0.2
2476,-0.1
2477,0.1
2478,0.3
2479,0.1
2480,-0.4
2481,-0.6
2482,-0.5
2483,-0.2
2484,-0.4
2485,-0.9
2486,-1
2487,-0.5
2488,-0.6
2489,-0.9
2490,-1
2491,-0.9
2492,-0.8
2493,-0.5
2494,-0.4
2495,-0.6
2496,-0.4
2497,-0.5
2498,-0.8
2499,-1
2500,-0.6
2501,-0.6
2502,-0.7
2503,-0.8
2504,-0.7
2505,-0.7
2506,-0.9
2507,-1.1
2508,-0.9
2509,-0.8
2510,-0.8
2511,-0.8
2512,-0.8
2513,-1
2514,-1.2
2515,-1.7
2516,-2.2
2517,-2.9
2518,-3.3
2519,-3
2520,-2.6
2521,-1.7
2522,-0.3
2523,1
2524,2
2525,3.9
2526,5.7
2527,7.3
2528,8.2
2529,9.2
2530,10.1
2531,10.8
2532,11.6
2533,11.9
2534,12.1
2535,12.2
2536,12.6
2537,11.6
2538,10.3
2539,9.9
2540,9.6
2541,9.7
2542,9.6
2543,8.8
2544,8.2
2545,7.8
2546,6.8
2547,5.5
2548,3.5
2549,2.4
2550,2.1
2551,1.9
2552,1.7
2553,1.4
2554,0.9
2555,0.8
2556,0.2
2557,-0.2
2558,0
2559,-0.2
2560,-0.1
2561,0.1
2562,-0.2
2563,-0.3
2564,-0.2
2565,-0.6
2566,-0.6
2567,-0.7
2568,-0.9
2569,-0.9
2570,-0.9
2571,-0.9
2572,-0.7
2573,-0.5
2574,-0.5
2575,-0.7
2576,-1.1
2577,-0.9
2578,-0.9
2579,-1
2580,-0.8
2581,-0.8
2582,-0.8
2583,-0.8
2584,-0.6
2585,-0.7
2586,-0.9
2587,-1
2588,-1
2589,-1
2590,-1
2591,-0.7
2592,-0.9
2593,-0.5
2594,-0.5
2595,-0.4
2596,-0.6
2597,-0.9
2598,-0.9
2599,-0.9
2600,-1.1
2601,-1.1
2602,-0.8
2603,-0.7
2604,-0.7
2605,-0.5
2606,-0.3
2607,-0.2
2608,-0.3
2609,-0.7
2610,-0.6
2611,-0.5
2612,-0.7
2613,-1
2614,-0.9
2615,-0.3
2616,0.1
2617,-0.1
2618,-0.3
2619,-0.3
2620,-0.2
2621,-0.1
2622,-0.1
2623,-0.1
2624,-0.5
2625,-0.1
2626,-0.2
2627,-0.2
2628,0
2629,0
2630,0.3
2631,-0.1
2632,-0.3
2633,-0.3
2634,-0.1
2635,0.1
2636,0.1
2637,0.3
2638,0.6
2639,0.4
2640,0.3
2641,0.1
2642,0
2643,0
2644,0.1
2645,0.5
2646,0.7
2647,1
2648,1.3
2649,0.8
2650,0.5
2651,1.2
2652,1.3
2653,1.2
2654,1.4
2655,1.6
2656,1.7
2657,1.3
2658,1.6
2659,1.7
2660,1.7
2661,2
2662,2.1
2663,2
2664,2
2665,2.2
2666,1.9
2667,1.7
2668,1.7
2669,1.8
2670,1.8
2671,2
2672,2.4
2673,2.6
2674,2.3
2675,2.3
2676,2.4
2677,2.2
2678,2.1
2679,2.2
2680,2.2
2681,2.3
2682,2.5
2683,2.4
2684,2.2
2685,1.7
2686,1.5
2687,1.7
2688,1.6
2689,1.6
2690,1.3
2691,1.3
2692,1.3
2693,1.5
2694,1.7
2695,1.2
2696,0.9
2697,0.9
2698,0.7
2699,0.3
2700,-0.2
2701,-0.1
2702,0.2
2703,0.1
2704,-0.1
2705,-0.1
2706,-0.1
2707,0
2708,-0.3
2709,-0.3
2710,-0.4
2711,-0.5
2712,-0.5
2713,-0.4
2714,-0.5
2715,-0.3
2716,0
2717,-0.1
2718,-0.5
2719,-0.7
2720,-0.6
2721,-0.7
2722,-0.7
2723,-1
2724,-0.8
2725,-0.5
2726,-0.6
2727,-0.6
2728,-0.5
2729,-0.5
2730,-0.4
2731,-0.4
2732,-0.4
2733,-0.1
2734,-0.3
2735,-0.6
2736,-0.6
2737,-0.5
2738,-0.4
2739,-0.4
2740,-0.4
2741,-0.4
2742,-0.4
2743,-0.5
2744,-0.4
2745,-0.4
2746,-0.6
2747,-0.7
2748,-0.6
2749,-0.6
2750,-0.6
2751,-0.5
2752,-0.7
2753,-0.7
2754,-0.7
2755,-0.5
2756,-0.6
2757,-0.8
2758,-0.8
2759,-0.7
2760,-0.6
2761,-0.7
2762,-0.4
2763,-0.7
2764,-0.9
2765,-0.9
2766,-0.8
2767,-0.7
2768,-0.7
2769,-0.8
2770,-1
2771,-0.9
2772,-0.7
2773,-0.6
2774,-0.2
2775,-0.3
2776,-0.6
2777,-0.6
2778,-0.6
2779,-0.5
2780,-0.9
2781,-0.8
2782,-0.4
2783,-0.6
2784,-0.8
2785,-0.8
2786,-0.9
2787,-1.2
2788,-1.1
2789,-1.1
2790,-1
2791,-0.8
2792,-0.6
2793,-0.5
2794,-0.7
2795,-0.9
2796,-0.7
2797,-0.7
2798,-0.8
2799,-0.8
2800,-0.4
2801,-0.6
2802,-1
2803,-1.1
2804,-0.9
2805,-1.1
2806,-1.2
2807,-0.6
2808,-0.5
2809,-0.8
2810,-0.7
2811,-0.8
2812,-1.1
2813,-1.3
2814,-1.3
2815,-1
2816,-1.1
2817,-1.3
2818,-1.2
2819,-0.9
2820,-0.7
2821,-0.5
2822,-0.7
2823,-0.8
2824,-0.5
2825,-0.3
2826,-0.5
2827,-0.9
2828,-0.7
2829,-0.6
2830,-0.7
2831,-0.8
2832,-0.7
2833,-0.8
2834,-0.9
2835,-1
2836,-1.2
2837,-1.1
2838,-0.9
2839,-0.7
2840,-0.8
2841,-0.9
2842,-0.7
2843,-1
2844,-1.1
2845,-0.9
2846,-0.7
2847,-0.6
2848,-0.2
2849,-0.4
2850,-0.8
2851,-1
2852,-0.8
2853,-0.7
2854,-0.8
2855,-0.9
2856,-0.8
2857,-1.1
2858,-1.2
2859,-1.1
2860,-1
2861,-0.9
2862,-0.9
2863,-1
2864,-0.5
2865,-0.2
2866,-0.4
2867,-0.7
2868,-1
2869,-1
2870,-1.2
2871,-1
2872,-1.2
2873,-1.3
2874,-1.3
2875,-1.1
2876,-1
2877,-0.5
2878,-0.5
2879,-0.8
2880,-0.7
2881,-0.6
2882,-0.5
2883,-0.7
2884,-1.1
2885,-1
2886,-0.9
2887,-0.7
2888,-0.3
2889,-0.4
2890,-1.1
2891,-1.1
2892,-1
2893,-1
2894,-0.8
2895,-0.7
2896,-0.7
2897,-0.6
2898,-0.7
2899,-0.6
2900,-1
2901,-0.9
2902,-0.7
2903,-0.8
2904,-1.1
2905,-1.2
2906,-1.1
2907,-1.3
2908,-1.4
2909,-1.2
2910,-1.3
2911,-1.1
2912,-0.8
2913,-0.7
2914,-0.8
2915,-0.6
2916,-0.7
2917,-1.2
2918,-1.4
2919,-1.5
2920,-1.4
2921,-1.2
2922,-0.6
2923,-0.3
2924,-0.4
2925,-0.4
2926,-0.6
2927,-0.7
2928,-0.9
2929,-1
2930,-0.9
2931,-0.8
2932,-0.9
2933,-1.1
2934,-1.2
2935,-1.3
2936,-1.3
2937,-0.9
2938,-0.7
2939,-0.5
2940,-0.6
2941,-1
2942,-1.4
2943,-1.1
2944,-0.7
2945,-1
2946,-0.9
2947,-0.8
2948,-0.8
2949,-0.8
2950,-0.4
2951,-0.4
2952,-0.2
2953,0.2
2954,-0.3
2955,-0.5
2956,-0.5
2957,-0.5
2958,-0.7
2959,-0.5
2960,-0.4
2961,-0.4
2962,-0.3
2963,0
2964,0
2965,-0.4
2966,-0.6
2967,-0.7
2968,-0.7
2969,-0.6
2970,-0.4
2971,-0.4
2972,-0.6
2973,-0.8
2974,-1.5
2975,-1.3
2976,-1.1
2977,-1.2
2978,-1.1
2979,-0.9
2980,-1.2
2981,-1.3
2982,-0.9
2983,-1.1
2984,-1.1
2985,-0.9
2986,-1
2987,-1.2
2988,-1.2
2989,-1.2
2990,-0.9
2991,-0.7
2992,-0.8
2993,-1
2994,-0.9
2995,-0.9
2996,-0.9
2997,-0.8
2998,-1.2
2999,-1.3
3000,-1.8
3001,-2.3
3002,-2.7
3003,-3.1
3004,-3.7
3005,-3.6
3006,-3
3007,-2.1
3008,-1
3009,0.4
3010,1
3011,2.3
3012,4.3
3013,6.6
3014,8.3
3015,9.2
3016,10.1
3017,11
3018,11.9
3019,12
3020,12.2
3021,12.2
3022,12.6
3023,12.2
3024,11.1
3025,11
3026,10.8
3027,10.3
3028,9.8
3029,9.4
3030,8.5
3031,7.3
3032,6
3033,4.6
3034,2.9
3035,1.8
3036,1.2
3037,1.5
3038,1.4
3039,0.6
3040,0.7
3041,0.4
3042,0.2
3043,-0.1
3044,-0.3
3045,-0.5
3046,-0.7
3047,-0.4
3048,-0.3
3049,-0.3
3050,-0.5
3051,-0.5
3052,-0.8
3053,-0.8
3054,-0.7
3055,-1.2
3056,-1.5
3057,-1.2
3058,-1
3059,-0.9
3060,-0.9
3061,-0.8
3062,-0.7
3063,-0.8
3064,-0.8
3065,-0.7
3066,-0.7
3067,-0.8
3068,-1.4
3069,-1.3
3070,-1
3071,-1.2
3072,-1.3
3073,-1.1
3074,-0.8
3075,-1
3076,-0.7
3077,-0.8
3078,-0.8
3079,-0.9
3080,-0.7
3081,-0.7
3082,-0.7
3083,-0.5
3084,-0.5
3085,-0.6
3086,-0.5
3087,-0.6
3088,-0.7
3089,-0.9
3090,-0.7
3091,-0.7
3092,-0.5
3093,-0.3
3094,-0.3
3095,-0.5
3096,-0.6
3097,-0.8
3098,-0.8
3099,-0.9
3100,-0.8
3101,-0.5
3102,-0.4
3103,-0.6
3104,-0.5
3105,-0.6
3106,-0.5
3107,-0.5
3108,-0.4
3109,-0.3
3110,-0.3
3111,-0.2
3112,-0.2
3113,-0.1
3114,-0.4
3115,-0.2
3116,-0.5
3117,-0.3
3118,-0.2
3119,0
3120,-0.2
3121,-0.2
3122,0.1
3123,0.3
3124,0.6
3125,0.5
3126,0.7
3127,0.4
3128,1
3129,0.8
3130,1
3131,1.3
3132,1.2
3133,0.9
3134,1.1
3135,1.2
3136,1.3
3137,1.2
3138,1.6
3139,1.7
3140,1.6
3141,1.5
3142,1.4
3143,1.4
3144,1.7
3145,2.2
3146,2.4
3147,2.4
3148,2.4
3149,2.6
3150,2.8
3151,2.8
3152,2.7
3153,2.6
3154,2.6
3155,2.7
3156,3.1
3157,3
3158,2.7
3159,2.8
3160,3.1
3161,3.2
3162,3.5
3163,3.4
3164,3
3165,2.8
3166,3.1
3167,3.4
3168,3.1
3169,2.6
3170,2.4
3171,2.2
3172,2.4
3173,2.3
3174,2.5
3175,2.4
3176,2.3
3177,2.2
3178,1.8
3179,1.5
3180,1.3
3181,0.9
3182,0.7
3183,0.6
3184,0.4
3185,0.8
3186,1.4
3187,1.2
3188,1
3189,0.8
3190,0.4
3191,0.2
3192,0
3193,0.2
3194,0.2
3195,0.4
3196,0.3
3197,-0.1
3198,-0.2
3199,-0.2
3200,0.1
3201,-0.2
3202,-0.5
3203,-0.3
3204,0.1
3205,0.1
3206,-0.2
3207,0
3208,-0.3
3209,-0.3
3210,-0.3
3211,-0.4
3212,-0.5
3213,-0.3
3214,-0.3
3215,-0.3
3216,-0.1
3217,0.2
3218,0.2
3219,0.1
3220,0.2
3221,0.1
3222,0
3223,0.1
3224,0.1
3225,-0.1
3226,-0.2
3227,0.1
3228,0.2
3229,0
3230,-0.6
3231,-0.6
3232,-0.5
3233,-0.2
3234,-0.1
3235,0
3236,0
3237,0
3238,-0.2
3239,-0.2
3240,-0.3
3241,0.2
3242,0.5
3243,0.6
3244,0.3
3245,0
3246,-0.2
3247,0.1
3248,0.2
3249,0.2
3250,-0.2
3251,-0.5
3252,-0.3
3253,-0.3
3254,-0.3
3255,-0.1
3256,-0.1
3257,0
3258,-0.3
3259,-0.4
3260,-0.1
3261,-0.3
3262,-0.8
3263,-0.7
3264,-0.3
3265,0.2
3266,0.3
3267,0.1
3268,0.3
3269,0.3
3270,-0.1
3271,-0.3
3272,-0.3
3273,-0.4
3274,-0.2
3275,0
3276,0.1
3277,0
3278,-0.5
3279,-0.3
3280,-0.4
3281,-0.1
3282,-0.3
3283,-0.5
3284,-0.5
3285,-0.1
3286,0.2
3287,0.2
3288,0.3
3289,0.3
3290,-0.5
3291,-0.5
3292,-0.1
3293,-0.1
3294,-0.5
3295,-0.4
3296,-0.3
3297,-0.2
3298,-0.3
3299,-0.1
3300,0
3301,-0.1
3302,-0.5
3303,-0.2
3304,0
3305,0
3306,0.2
3307,-0.3
3308,-0.8
3309,-0.7
3310,-0.7
3311,-0.6
3312,0
3313,0.2
3314,-0.1
3315,-0.3
3316,-0.2
3317,-0.2
3318,-0.4
3319,-0.3
3320,-0.3
3321,-0.5
3322,-0.2
3323,0
3324,-0.2
3325,-0.2
3326,-0.4
3327,-0.5
3328,-0.3
3329,-0.2
3330,-0.3
3331,-0.4
3332,-0.5
3333,-0.3
3334,0
3335,0.1
3336,0.2
3337,-0.1
3338,-0.2
3339,-0.3
3340,-0.1
3341,0
3342,0
3343,-0.5
3344,-0.5
3345,-0.5
3346,-0.1
3347,-0.2
3348,0.1
3349,0.2
3350,-0.1
3351,0.1
3352,0.3
3353,-0.1
3354,-0.5
3355,-0.3
3356,-0.1
3357,-0.1
3358,-0.6
3359,-0.7
3360,-0.5
3361,-0.3
3362,-0.2
3363,-0.3
3364,-0.4
3365,-0.3
3366,-0.3
3367,-0.3
3368,-0.2
3369,0.1
3370,0.1
3371,0.1
3372,-0.2
3373,-0.5
3374,-0.2
3375,0
3376,-0.1
3377,-0.2
3378,-0.3
3379,-0.4
3380,-0.2
3381,-0.2
3382,-0.2
3383,-0.7
3384,-0.7
3385,-0.4
3386,-0.3
3387,0
3388,0
3389,0
3390,0.1
3391,0
3392,-0.1
3393,-0.5
3394,-0.5
3395,-0.1
3396,-0.1
3397,-0.1
3398,-0.3
3399,0
3400,0
3401,-0.4
3402,-0.7
3403,-0.6
3404,-0.3
3405,-0.1
3406,-0.1
3407,-0.1
3408,0
3409,-0.2
3410,0
3411,-0.1
3412,-0.2
3413,-0.1
3414,-0.1
3415,0.4
3416,0.2
3417,-0.2
3418,0
3419,0.2
3420,0
3421,0
3422,0
3423,0
3424,0
3425,0.1
3426,0.1
3427,0.2
3428,0
3429,0
3430,0.1
3431,-0.1
3432,-0.1
3433,-0.3
3434,-0.5
3435,-0.1
3436,-0.3
3437,-0.5
3438,-0.5
3439,-0.5
3440,-0.7
3441,-0.6
3442,-0.5
3443,-0.4
3444,-0.2
3445,-0.1
3446,-0.3
3447,-0.6
3448,-0.4
3449,0
3450,-0.3
3451,-0.6
3452,-0.5
3453,-0.4
3454,-0.4
3455,-0.5
3456,-0.4
3457,-0.3
3458,-0.5
3459,-0.3
3460,-0.5
3461,-0.8
3462,-0.8
3463,-0.7
3464,-0.5
3465,-0.1
3466,-0.4
3467,-1
3468,-1.8
3469,-2.4
3470,-3
3471,-3.3
3472,-2.7
3473,-1.8
3474,-0.9
3475,0.1
3476,1.3
3477,2.7
3478,4.2
3479,6.3
3480,7.7
3481,8.4
3482,8.8
3483,9.3
3484,10
3485,10.5
3486,10.5
3487,10.5
3488,11
3489,10.4
3490,9.8
3491,9.5
3492,8.8
3493,8.6
3494,8.8
3495,8.4
3496,7.5
3497,6
3498,4.4
3499,2.2
3500,0.8
3501,0.3
3502,0.5
3503,0.7
3504,0.5
3505,0.3
3506,0.3
3507,0.5
3508,0.3
3509,0.1
3510,0
3511,0
3512,0.5
3513,0.2
3514,-0.1
3515,-0.1
3516,-0.2
3517,-0.4
3518,-0.3
3519,-0.2
3520,-0.2
3521,-0.5
3522,-0.5
3523,-0.4
3524,-0.8
3525,-1.1
3526,-0.8
3527,-0.4
3528,-0.6
3529,-0.8
3530,-0.6
3531,-0.2
3532,-0.3
3533,-0.6
3534,-0.9
3535,-0.9
3536,-0.7
3537,-0.7
3538,-0.6
3539,-0.6
3540,-0.9
3541,-0.9
3542,-0.8
3543,-0.9
3544,-0.4
3545,-0.5
3546,-0.7
3547,-0.3
3548,-0.6
3549,-0.5
3550,-0.4
3551,-0.4
3552,-0.6
3553,-0.6
3554,-0.4
3555,-0.5
3556,-0.6
3557,-0.7
3558,-0.4
3559,-0.3
3560,-0.4
3561,-0.4
3562,-0.7
3563,-0.8
3564,-0.8
3565,-0.6
3566,-0.4
3567,-0.5
3568,-0.1
3569,-0.1
3570,-0.1
3571,-0.1
3572,0
3573,0.1
3574,0.2
3575,-0.2
3576,-0.2
3577,0.2
3578,0.6
3579,0.2
3580,-0.2
3581,0
3582,0.1
3583,0
3584,0.2
3585,0.5
3586,0.4
3587,0.5
3588,0.5
3589,0.4
3590,0.3
3591,0.7
3592,0.9
3593,0.2
3594,0.3
3595,0.5
3596,0.7
3597,0.9
3598,1.2
3599,1.3
3600,1.3
3601,1.5
3602,1.6
3603,1.4
3604,1.4
3605,1.7
3606,1.7
3607,1.7
3608,1.5
3609,1.6
3610,1.6
3611,2
3612,1.9
3613,1.7
3614,1.8
3615,1.9
3616,2.2
3617,2.3
3618,2.6
3619,2.5
3620,2.7
3621,2.7
3622,2.5
3623,2.4
3624,2.3
3625,2.4
3626,2.4
3627,2.5
3628,2.3
3629,2.2
3630,2.3
3631,2.1
3632,1.9
3633,1.7
3634,2
3635,2.1
3636,2
3637,1.9
3638,1.9
3639,1.8
3640,1.8
3641,1.8
3642,1.3
3643,1
3644,1.3
3645,1.3
3646,1.3
3647,1.4
3648,1.2
3649,1.2
3650,1.2
3651,0.6
3652,0.3
3653,0.4
3654,0.7
3655,0.5
3656,0.2
3657,0.2
3658,0.1
3659,0.2
3660,0.3
3661,0.1
3662,-0.2
3663,-0.5
3664,-0.3
3665,-0.2
3666,-0.3
3667,-0.1
3668,0
3669,0.2
3670,0.3
3671,0.1
3672,-0.1
3673,-0.2
3674,-0.2
3675,-0.3
3676,-0.5
3677,-0.3
3678,0
3679,0.1
3680,0.2
3681,0.3
3682,0.2
3683,0.1
3684,0.1
3685,0.2
3686,0.5
3687,0
3688,-0.1
3689,0.1
3690,0
3691,-0.1
3692,-0.2
3693,-0.4
3694,-0.3
3695,-0.3
3696,-0.4
3697,0.1
3698,0.2
3699,0
3700,-0.2
3701,0
3702,-0.3
3703,-0.1
3704,-0.1
3705,0
3706,0.2
3707,0.3
3708,0.2
3709,0
3710,0
3711,0.2
3712,0.4
3713,0.1
3714,-0.1
3715,-0.2
3716,-0.2
3717,-0.1
3718,-0.1
3719,-0.2
3720,-0.3
3721,-0.3
3722,-0.3
3723,-0.2
3724,-0.1
3725,-0.2
3726,-0.3
3727,-0.1
3728,0
3729,0
3730,0
3731,-0.1
3732,-0.2
3733,-0.6
3734,-0.4
3735,0
3736,-0.3
3737,-0.3
3738,-0.3
3739,-0.2
3740,-0.2
3741,-0.5
3742,-0.7
3743,-0.4
3744,-0.5
3745,-0.4
3746,-0.3
3747,-0.2
3748,-0.4
3749,-0.1
3750,0.1
3751,-0.2
3752,-0.5
3753,-0.4
3754,-0.3
3755,-0.3
3756,-0.3
3757,-0.4
3758,-0.2
3759,-0.2
3760,-0.3
3761,-0.6
3762,-0.6
3763,-0.4
3764,-0.4
3765,-0.5
3766,-0.3
3767,-0.4
3768,-0.4
3769,-0.4
3770,-0.4
3771,-0.5
3772,-0.4
3773,-0.2
3774,-0.2
3775,-0.5
3776,-0.3
3777,-0.2
3778,-0.3
3779,-0.3
3780,-0.4
3781,-0.6
3782,-0.7
3783,-0.6
3784,-0.5
3785,-0.5
3786,-0.4
3787,-0.1
3788,0.1
3789,-0.1
3790,-0.4
3791,-0.5
3792,-0.8
3793,-0.9
3794,-0.7
3795,-0.8
3796,-0.7
3797,-0.4
3798,-0.5
3799,-0.4
3800,-0.4
3801,-0.4
3802,-0.3
3803,-0.2
3804,-0.8
3805,-1
3806,-1.2
3807,-1.1
3808,-0.8
3809,-0.8
3810,-1
3811,-1.1
3812,-0.8
3813,-0.8
3814,-0.6
3815,-0.5
3816,-0.3
3817,-0.4
3818,-0.5
3819,-0.7
3820,-0.8
3821,-0.5
3822,-0.4
3823,-0.3
3824,-0.5
3825,-0.7
3826,-0.4
3827,-0.2
3828,-0.4
3829,-0.6
3830,-0.7
3831,-0.8
3832,-0.7
3833,-0.4
3834,-0.9
3835,-0.8
3836,-0.6
3837,-0.5
3838,-0.4
3839,-0.5
3840,-0.5
3841,-0.6
3842,-0.7
3843,-0.7
3844,-0.6
3845,-0.3
3846,-0.4
3847,0
3848,-0.1
3849,-0.1
3850,-0.4
3851,-0.6
3852,-0.6
3853,-0.3
3854,-0.6
3855,-0.8
3856,-0.4
3857,-0.1
3858,-0.7
3859,-0.9
3860,-0.9
3861,-0.7
3862,-0.6
3863,-1
3864,-0.9
3865,-0.5
3866,-0.7
3867,-0.9
3868,-1.3
3869,-1.1
3870,-0.8
3871,-0.7
3872,-0.9
3873,-0.9
3874,-0.5
3875,-0.5
3876,-0.5
3877,-0.6
3878,-0.6
3879,-0.4
3880,-0.2
3881,-0.2
3882,-0.3
3883,-0.3
3884,-0.1
3885,0.1
3886,0
3887,0
3888,0.2
3889,0.2
3890,0
3891,-0.1
3892,-0.2
3893,0.1
3894,0.2
3895,0.3
3896,0.2
3897,0
3898,-0.3
3899,-0.3
3900,-0.3
3901,-0.6
3902,-1.2
3903,-1.4
3904,-1.1
3905,-0.9
3906,-1.2
3907,-1
3908,-0.6
3909,-0.4
3910,-0.5
3911,-0.7
3912,-0.8
3913,-0.9
3914,-0.8
3915,-0.8
3916,-1.1
3917,-0.9
3918,-0.7
3919,-0.6
3920,-0.8
3921,-0.6
3922,-0.9
3923,-0.9
3924,-1
3925,-0.6
3926,-0.5
3927,-0.7
3928,-0.7
3929,-1.2
3930,-2.1
3931,-2.8
3932,-3.2
3933,-3.4
3934,-3.2
3935,-2.3
3936,-1.2
3937,-0.3
3938,0.4
3939,1.5
3940,3.2
3941,5.4
3942,7.4
3943,8.7
3944,9.5
3945,9.8
3946,10.4
3947,11.5
3948,12.1
3949,12.4
3950,12.4
3951,12
3952,11.3
3953,10.7
3954,10.2
3955,10
3956,10
3957,9.9
3958,9.1
3959,8.3
3960,7.4
3961,6.1
3962,3.9
3963,2.3
3964,1.4
3965,1.5
3966,1.6
3967,1.2
3968,0.8
3969,0.4
3970,0.1
3971,0.2
3972,0.1
3973,-0.1
3974,-0.2
3975,-0.5
3976,-0.6
3977,-0.6
3978,-0.8
3979,-0.7
3980,-0.7
3981,-0.6
3982,-0.8
3983,-1
3984,-0.9
3985,-1
3986,-0.7
3987,-0.4
3988,-0.1
3989,-0.5
3990,-0.6
3991,-0.8
3992,-0.5
3993,-0.7
3994,-0.8
3995,-1
3996,-0.9
3997,-0.7
3998,-0.6
3999,-0.6
4000,-0.1
4001,-0.5
4002,-0.9
4003,-1.1
4004,-0.8
4005,-0.6
4006,-0.8
4007,-0.8
4008,-0.4
4009,-0.5
4010,-0.4
4011,-0.5
4012,-0.5
4013,-0.6
4014,-0.4
4015,-0.6
4016,-0.7
4017,-0.5
4018,-0.5
4019,-0.5
4020,-0.7
4021,-0.7
4022,-0.6
4023,-0.8
4024,-0.6
4025,-0.4
4026,-0.1
4027,0
4028,-0.5
4029,-0.4
4030,-0.2
4031,-0.5
4032,-0.2
4033,0.1
4034,-0.5
4035,-0.9
4036,-1
4037,-0.6
4038,-0.2
4039,0.1
4040,0.2
4041,0
4042,0
4043,0
4044,-0.1
4045,-0.1
4046,-0.2
4047,-0.3
4048,-0.3
4049,0
4050,0.3
4051,0.4
4052,0.3
4053,0.5
4054,0.6
4055,0.8
4056,0.8
4057,0.5
4058,0.5
4059,0.8
4060,0.5
4061,0.5
4062,0.6
4063,0.7
4064,0.7
4065,0.9
4066,1.2
4067,1.5
4068,1.5
4069,1.4
4070,1.4
4071,1.5
4072,1.4
4073,2
4074,2
4075,1.8
4076,1.8
4077,2.1
4078,1.6
4079,1.7
4080,2.1
4081,2.3
4082,2.4
4083,2.5
4084,2.8
4085,2.7
4086,2.7
4087,2.7
4088,2.8
4089,2.8
4090,2.5
4091,2.7
4092,2.4
4093,2.4
4094,2.8
4095,2.9
4096,2.9
4097,2.6
4098,2.4
4099,2.1
4100,2.1
4101,2
4102,2
4103,1.6
4104,1.5
4105,1.4
4106,1.6
4107,1.7
4108,1.7
4109,1.8
4110,1.3
4111,0.8
4112,0.8
4113,0.8
4114,0.9
4115,1.1
4116,1.1
4117,0.7
4118,0.4
4119,0.3
4120,0.2
4121,0.1
4122,0.1
4123,0.2
4124,0.4
4125,0.4
4126,0.1
4127,0.1
4128,-0.2
4129,-0.2
4130,-0.1
4131,-0.3
4132,-0.2
4133,0.2
4134,0.1
4135,0
4136,-0.2
4137,0
4138,0.2
4139,-0.1
4140,-0.2
4141,0.1
4142,0.2
4143,0.2
4144,0
4145,0.2
4146,0.1
4147,0.1
4148,0
4149,0.3
4150,0.2
4151,-0.3
4152,-0.3
4153,-0.3
4154,-0.3
4155,-0.1
4156,0
4157,0.3
4158,0.4
4159,0.3
4160,0
4161,-0.3
4162,-0.3
4163,-0.6
4164,-0.5
4165,-0.4
4166,-0.2
4167,-0.1
4168,-0.1
4169,-0.1
4170,-0.1
4171,0
4172,-0.1
4173,0
4174,0.3
4175,0.2
4176,0
4177,-0.1
4178,0.1
4179,0.2
4180,0.3
4181,0.7
4182,0.3
4183,-0.2
4184,-0.5
4185,-0.5
4186,-0.3
4187,0
4188,0
4189,-0.2
4190,-0.1
4191,-0.3
4192,-0.5
4193,-0.4
4194,-0.2
4195,-0.1
4196,0.1
4197,0.2
4198,0.1
4199,-0.3
4200,-0.4
4201,-0.2
4202,0.1
4203,-0.2
4204,-0.5
4205,-0.5
4206,-0.4
4207,-0.1
4208,0
4209,-0.2
4210,-0.3
4211,-0.2
4212,-0.2
4213,0
4214,0.2
4215,0
4216,0.2
4217,0
4218,-0.1
4219,0
4220,-0.2
4221,-0.5
4222,-0.6
4223,-0.5
4224,-0.2
4225,-0.2
4226,-0.5
4227,-0.7
4228,-0.6
4229,-0.4
4230,-0.5
4231,-0.7
4232,-0.7
4233,-0.6
4234,-0.2
4235,-0.1
4236,-0.3
4237,-0.3
4238,-0.5
4239,-0.6
4240,-0.5
4241,-0.4
4242,-0.5
4243,-0.4
4244,-0.4
4245,-0.3
4246,-0.4
4247,-0.5
4248,-0.6
4249,-0.6
4250,-0.7
4251,-0.7
4252,-0.6
4253,-0.9
4254,-1
4255,-0.6
4256,-0.5
4257,-0.3
4258,-0.4
4259,-0.4
4260,-0.4
4261,-0.2
4262,-0.1
4263,0
4264,-0.2
4265,-0.6
4266,-0.6
4267,-0.8
4268,-0.8
4269,-1
4270,-0.7
4271,-0.4
4272,-0.5
4273,-0.9
4274,-1.1
4275,-0.7
4276,-0.4
4277,-0.4
4278,-0.5
4279,-0.5
4280,-0.5
4281,-0.6
4282,-0.7
4283,-0.6
4284,-0.6
4285,-0.4
4286,-0.4
4287,-0.5
4288,-0.5
4289,-0.3
4290,-0.5
4291,-0.9
4292,-0.9
4293,-0.9
4294,-0.7
4295,-0.5
4296,-0.5
4297,-0.6
4298,-0.3
4299,-0.2
4300,-0.3
4301,-0.7
4302,-0.7
4303,-0.6
4304,-0.6
4305,-0.7
4306,-0.6
4307,-0.5
4308,-0.3
4309,-0.7
4310,-0.9
4311,-0.9
4312,-0.8
4313,-0.6
4314,-0.2
4315,0
4316,0.1
4317,-0.2
4318,-0.4
4319,-0.4
4320,-0.2
4321,-0.4
4322,-0.5
4323,-0.6
4324,-0.7
4325,-0.8
4326,-0.7
4327,-0.6
4328,-0.7
4329,-0.8
4330,-1.2
4331,-1.2
4332,-0.7
4333,-0.7
4334,-0.7
4335,-0.6
4336,-0.5
4337,-0.6
4338,-0.5
4339,-0.4
4340,-0.3
4341,-0.2
4342,-0.6
4343,-0.7
4344,-0.8
4345,-0.7
4346,-0.5
4347,-0.3
4348,-0.4
4349,-0.4
4350,-0.3
4351,-0.8
4352,-0.7
4353,-0.4
4354,-0.2
4355,0.1
4356,-0.1
4357,-0.2
4358,-0.3
4359,-0.1
4360,-0.1
4361,0
4362,-0.1
4363,-0.1
4364,0
4365,0.1
4366,-0.1
4367,-0.1
4368,-0.3
4369,-0.6
4370,-1
4371,-1
4372,-1.1
4373,-1
4374,-0.8
4375,-0.5
4376,-0.5
4377,-0.5
4378,-0.6
4379,-0.9
4380,-1.2
4381,-1.2
4382,-1
4383,-0.9
4384,-0.9
4385,-0.7
4386,-0.8
4387,-0.8
4388,-0.9
4389,-1
4390,-1
4391,-0.6
4392,-0.8
4393,-1.2
4394,-0.7
4395,-0.7
4396,-0.6
4397,-0.7
4398,-1
4399,-1.5
4400,-2.1
4401,-2.9
4402,-3.4
4403,-3.7
4404,-3.2
4405,-1.9
4406,-0.9
4407,0.6
4408,1.5
4409,2.6
4410,4.6
4411,6.6
4412,7.9
4413,8.6
4414,9.4
4415,10.4
4416,11.3
4417,12
4418,12.6
4419,12.2
4420,12.7
4421,12.2
4422,11.1
4423,10.7
4424,10.2
4425,10
4426,9.8
4427,9.4
4428,8.4
4429,7.7
4430,6.9
4431,5.8
4432,4
4433,2.6
4434,1.8
4435,1.6
4436,1
4437,0.8
4438,0.4
4439,0.1
4440,-0.1
4441,0
4442,-0.2
4443,-0.5
4444,-0.5
4445,-0.4
4446,-0.4
4447,-0.5
4448,-0.3
4449,0
4450,-0.1
4451,-0.3
4452,-0.5
4453,-0.5
4454,-0.7
4455,-0.9
4456,-0.8
4457,-0.7
4458,-0.9
4459,-1
4460,-0.7
4461,-0.9
4462,-1
4463,-1.2
4464,-0.8
4465,-0.9
4466,-1.1
4467,-1
4468,-0.8
4469,-0.5
4470,-0.6
4471,-1
4472,-1.1
4473,-1.1
4474,-1.1
4475,-1.2
4476,-0.8
4477,-0.7
4478,-0.7
4479,-0.7
4480,-0.8
4481,-1
4482,-0.7
4483,-0.4
4484,-0.6
4485,-0.9
4486,-1
4487,-1.2
4488,-0.9
4489,-0.8
4490,-1
4491,-1.2
4492,-1.2
4493,-0.7
4494,-0.6
4495,-0.7
4496,-0.8
4497,-0.7
4498,-0.8
4499,-0.8
4500,-0.9
4501,-0.8
4502,-0.7
4503,-0.4
4504,0.1
4505,-0.4
4506,-0.3
4507,-0.6
4508,-0.7
4509,-0.4
4510,-0.3
4511,-0.1
4512,-0.1
4513,-0.2
4514,-0.1
4515,0.2
4516,-0.2
4517,-0.2
4518,-0.3
4519,-0.1
4520,0.1
4521,0.2
4522,0.6
4523,0.6
4524,0.3
4525,0.6
4526,0.7
4527,1
4528,0.9
4529,0.9
4530,0.5
4531,0.5
4532,0.5
4533,0.5
4534,0.4
4535,0.5
4536,0.7
4537,0.8
4538,1.2
4539,1.5
4540,1.5
4541,1.7
4542,1.7
4543,1.6
4544,1.6
4545,1.6
4546,2
4547,1.7
4548,1.8
4549,2.1
4550,2.3
4551,2.3
4552,2.6
4553,2.8
4554,2.7
4555,2.5
4556,2.2
4557,2.4
4558,2.1
4559,1.9
4560,2
4561,2.3
4562,2.3
4563,2.4
4564,2.2
4565,2.4
4566,2.3
4567,2.4
4568,2.4
4569,2.3
4570,2.1
4571,2.2
4572,1.9
4573,1.7
4574,1.6
4575,1.4
4576,1.3
4577,1.3
4578,1.3
4579,1.1
4580,1
4581,0.8
4582,0.5
4583,0.5
4584,0.7
4585,0.6
4586,0.3
4587,-0.1
4588,0
4589,0.2
4590,0
4591,-0.3
4592,-0.1
4593,-0.1
4594,-0.2
4595,0
4596,0.1
4597,0.4
4598,0.6
4599,0.3
4600,0
4601,0.1
4602,0.2
4603,0
4604,-0.2
4605,-0.2
4606,-0.2
4607,-0.4
4608,-0.1
4609,-0.2
4610,-0.5
4611,-0.4
4612,-0.3
4613,-0.2
4614,-0.2
4615,-0.1
4616,0
4617,0
4618,0.1
4619,0.1
4620,-0.3
4621,-0.2
4622,-0.1
4623,0.1
4624,0.1
4625,-0.1
4626,-0.4
4627,-0.2
4628,-0.4
4629,-0.2
4630,0
4631,0
4632,-0.3
4633,-0.4
4634,-0.1
4635,-0.1
4636,-0.3
4637,0
4638,0.1
4639,0.1
4640,0.1
4641,0
4642,0
4643,0
4644,-0.1
4645,0.1
4646,0.2
4647,0.2
4648,0.1
4649,0
4650,0.2
4651,0.2
4652,0.4
4653,0.3
4654,-0.1
4655,-0.2
4656,-0.2
4657,-0.2
4658,-0.1
4659,0.1
4660,-0.1
4661,-0.3
4662,-0.3
4663,-0.4
4664,-0.2
4665,-0.1
4666,-0.1
4667,0
4668,0.1
4669,0
4670,-0.2
4671,-0.1
4672,0
4673,0
4674,0.1
4675,0
4676,-0.1
4677,-0.4
4678,-0.3
4679,-0.1
4680,-0.4
4681,-0.4
4682,-0.3
4683,-0.2
4684,-0.3
4685,-0.3
4686,-0.2
4687,0
4688,-0.2
4689,-0.4
4690,-0.3
4691,-0.1
4692,-0.1
4693,-0.1
4694,0.1
4695,-0.2
4696,-0.1
4697,-0.3
4698,-0.4
4699,-0.6
4700,-0.6
4701,-0.5
4702,-0.5
4703,-0.5
4704,-0.4
4705,-0.2
4706,0
4707,-0.2
4708,-0.7
4709,-0.7
4710,-0.4
4711,-0.5
4712,-0.5
4713,-0.3
4714,0.1
4715,0.1
4716,-0.5
4717,-0.4
4718,-0.1
4719,0
4720,-0.1
4721,0.1
4722,-0.1
4723,-0.1
4724,-0.4
4725,-0.6
4726,-0.6
4727,-0.6
4728,-0.4
4729,-0.4
4730,-0.5
4731,-0.3
4732,0
4733,-0.4
4734,-0.8
4735,-0.7
4736,-0.5
4737,-0.4
4738,-0.4
4739,-0.5
4740,-0.6
4741,-0.7
4742,-0.6
4743,-0.3
4744,-0.2
4745,0
4746,0
4747,-0.3
4748,-0.4
4749,-0.5
4750,-0.4
4751,-0.5
4752,-0.5
4753,-0.6
4754,-0.6
4755,-0.6
4756,-0.2
4757,0.1
4758,-0.2
4759,-0.6
4760,-0.9
4761,-0.7
4762,-0.7
4763,-0.7
4764,-0.4
4765,-0.2
4766,-0.3
4767,-0.7
4768,-0.6
4769,-0.6
4770,-1
4771,-1.1
4772,-0.9
4773,-0.8
4774,-0.3
4775,-0.2
4776,-0.3
4777,-0.7
4778,-0.4
4779,0
4780,-0.5
4781,-0.8
4782,-0.6
4783,-0.6
4784,-0.6
4785,-0.4
4786,-0.3
4787,-0.6
4788,-0.7
4789,-0.4
4790,-0.5
4791,-1.1
4792,-1.2
4793,-0.7
4794,-0.1
4795,0.1
4796,-0.2
4797,-0.4
4798,-0.3
4799,-0.8
4800,-1
4801,-1
4802,-0.8
4803,-0.6
4804,-0.8
4805,-0.8
4806,-1.1
4807,-1.1
4808,-1
4809,-0.6
4810,-0.7
4811,-0.9
4812,-0.7
4813,-0.8
4814,-0.8
4815,-0.8
4816,-1.2
4817,-1
4818,-0.9
4819,-0.9
4820,-0.2
4821,-0.1
4822,-0.3
4823,-0.3
4824,-0.4
4825,-0.1
4826,-0.6
4827,-0.6
4828,0
4829,0.2
4830,0.1
4831,-0.1
4832,-0.4
4833,-0.6
4834,-0.4
4835,-0.7
4836,-0.6
4837,-0.2
4838,-0.2
4839,-0.7
4840,-1.2
4841,-1.1
4842,-0.9
4843,-1
4844,-1
4845,-0.9
4846,-1.1
4847,-0.8
4848,-0.7
4849,-0.9
4850,-1
4851,-1
4852,-0.5
4853,-0.8
4854,-1.1
4855,-0.8
4856,-0.9
4857,-1
4858,-1.1
4859,-1.2
4860,-0.9
4861,-0.9
4862,-1.3
4863,-1.3
4864,-1.3
4865,-1.1
4866,-1.2
4867,-1.3
4868,-1.2
4869,-1.7
4870,-2.3
4871,-3.1
4872,-3.6
4873,-3.6
4874,-3.3
4875,-3
4876,-2.1
4877,-0.3
4878,1
4879,2.3
4880,3.8
4881,6
4882,8.2
4883,9
4884,9.7
4885,10.5
4886,11.4
4887,12.1
4888,12.7
4889,12.6
4890,12.7
4891,12.5
4892,11.5
4893,10.8
4894,10.2
4895,9.7
4896,9.4
4897,9.1
4898,8.2
4899,7.3
4900,6.2
4901,4.9
4902,3.2
4903,2
4904,1.2
4905,1.1
4906,1.1
4907,0.5
4908,0.2
4909,0
4910,-0.1
4911,-0.3
4912,-0.1
4913,-0.2
4914,-0.5
4915,-0.5
4916,-0.9
4917,-1
4918,-1
4919,-1
4920,-1
4921,-0.8
4922,-1
4923,-0.9
4924,-0.9
4925,-0.8
4926,-0.8
4927,-1
4928,-0.9
4929,-0.7
4930,-1
4931,-1.3
4932,-1.1
4933,-1.2
4934,-1.3
4935,-1.4
4936,-1.1
4937,-1
4938,-0.8
4939,-0.8
4940,-1.1
4941,-1
4942,-0.9
4943,-0.9
4944,-0.9
4945,-0.8
4946,-1
4947,-1.2
4948,-1.1
4949,-1.3
4950,-1.3
4951,-1.4
4952,-1.2
4953,-1
4954,-0.7
4955,-0.7
4956,-0.7
4957,-1
4958,-1.2
4959,-0.8
4960,-0.7
4961,-0.6
4962,-0.5
4963,-0.6
4964,-0.8
4965,-0.9
4966,-0.9
4967,-0.8
4968,-1
4969,-0.8
4970,-0.6
4971,-0.7
4972,-0.9
4973,-0.8
4974,-0.5
4975,-0.6
4976,-0.2
4977,-0.1
4978,-0.4
4979,-0.3
4980,-0.4
4981,-0.3
4982,-0.1
4983,-0.1
4984,-0.4
4985,-0.3
4986,0.3
4987,0.6
4988,0.5
4989,0.4
4990,0.3
4991,0.5
4992,0.6
4993,0.6
4994,0.5
4995,0.6
4996,0.4
4997,0.5
4998,1.1
4999,1.4
5000,1.4
