TS,Reading
1,-1.4
2,-1.1
3,-1
4,-1.1
5,-1.1
6,-1.2
7,-1.2
8,-1.2
9,-1.2
10,-1.2
11,-1.1
12,-1.3
13,-1.3
14,-1.3
15,-1
16,-1
17,-1.2
18,-1.3
19,-1.3
20,-1.3
21,-1.1
22,-1
23,-1.2
24,-1.5
25,-1.4
26,-1.5
27,-1.5
28,-1.4
29,-1.4
30,-1.4
31,-1.6
32,-1.6
33,-1.6
34,-1.6
35,-1.3
36,-1.3
37,-1.1
38,-1.2
39,-1.3
40,-1.3
41,-1.4
42,-1.5
43,-1.4
44,-1.6
45,-1.6
46,-1.4
47,-1.2
48,-0.9
49,-0.8
50,-0.8
51,-0.7
52,-0.7
53,-0.8
54,-1.2
55,-1.1
56,-0.9
57,-0.9
58,-0.8
59,-0.5
60,-0.5
61,-0.3
62,-0.2
63,-0.5
64,-0.5
65,-0.5
66,-0.3
67,-0.2
68,-0.1
69,-0.1
70,0
71,0
72,-0.1
73,-0.1
74,-0.2
75,-0.4
76,-0.7
77,-0.7
78,-0.7
79,-0.8
80,-0.8
81,-0.8
82,-0.9
83,-0.9
84,-0.8
85,-0.8
86,-0.9
87,-1
88,-0.9
89,-1.1
90,-1.2
91,-1.3
92,-1.3
93,-1.3
94,-1.5
95,-1.7
96,-1.5
97,-1.5
98,-1.6
99,-1.8
100,-1.8
101,-1.9
102,-1.7
103,-1.7
104,-1.8
105,-1.9
106,-1.9
107,-1.8
108,-1.7
109,-1.7
110,-1.6
111,-1.5
112,-1.5
113,-1.7
114,-1.6
115,-1.6
116,-1.5
117,-1.7
118,-2
119,-1.9
120,-1.7
121,-1.4
122,-0.7
123,0.3
124,1.8
125,3.9
126,6.5
127,9.1
128,11.3
129,14.5
130,19.2
131,24.1
132,27.1
133,28.8
134,29.4
135,28.9
136,25.6
137,21.3
138,16.8
139,11.4
140,3.5
141,-4.5
142,-9.5
143,-11.8
144,-13.1
145,-14.5
146,-15.5
147,-15.7
148,-15
149,-14
150,-12.6
151,-10.7
152,-9
153,-7.5
154,-6.4
155,-5.6
156,-4.7
157,-4
158,-3.3
159,-2.7
160,-2.3
161,-1.9
162,-1.7
163,-1.7
164,-1.7
165,-1.5
166,-1.6
167,-1.6
168,-1.5
169,-1.3
170,-1.3
171,-1.3
172,-1.3
173,-1.3
174,-1.3
175,-1
176,-0.9
177,-1.1
178,-1.2
179,-1.1
180,-1
181,-0.9
182,-0.8
183,-0.7
184,-0.6
185,-0.6
186,-0.6
187,-1
188,-0.9
189,-0.7
190,-0.6
191,-0.6
192,-0.5
193,-0.5
194,-0.6
195,-0.5
196,-0.6
197,-0.6
198,-0.5
199,-0.5
200,-0.4
201,-0.5
202,-0.6
203,-0.4
204,-0.1
205,-0.2
206,-0.2
207,0
208,0.2
209,0.3
210,0
211,0.1
212,0.3
213,0.3
214,0
215,0
216,0.2
217,0.3
218,0.3
219,0.4
220,0.4
221,0.5
222,0.4
223,0.5
224,0.6
225,0.6
226,0.7
227,0.7
228,1
229,1.5
230,1.6
231,1.4
232,1.5
233,1.5
234,1.5
235,1.5
236,1.7
237,1.9
238,2
239,2
240,2
241,2.1
242,2.2
243,2.2
244,2.3
245,2.5
246,2.6
247,2.6
248,3
249,3.3
250,3.5
251,3.6
252,3.6
253,3.6
254,3.8
255,4
256,4.1
257,4.2
258,4.1
259,4.3
260,4.3
261,4.3
262,4.6
263,4.7
264,4.7
265,4.6
266,4.7
267,4.8
268,4.9
269,4.9
270,4.9
271,4.9
272,4.9
273,4.9
274,4.9
275,4.9
276,4.8
277,4.9
278,4.8
279,4.7
280,4.7
281,4.8
282,4.7
283,4.6
284,4.5
285,4.5
286,4.3
287,4.1
288,3.8
289,3.9
290,4
291,3.9
292,3.8
293,3.5
294,3
295,2.8
296,2.9
297,2.7
298,2.3
299,2.2
300,2.1
301,2.2
302,1.9
303,1.8
304,1.6
305,1.2
306,0.9
307,0.6
308,0.5
309,0.5
310,0.5
311,0.6
312,0.5
313,0.2
314,-0.1
315,-0.3
316,-0.2
317,-0.2
318,-0.4
319,-0.6
320,-0.8
321,-0.8
322,-0.7
323,-0.7
324,-0.7
325,-0.5
326,-0.4
327,-0.4
328,-0.5
329,-0.8
330,-1
331,-0.9
332,-0.9
333,-0.8
334,-0.8
335,-0.8
336,-0.8
337,-0.9
338,-0.9
339,-0.8
340,-1
341,-1.2
342,-1
343,-1.2
344,-1.1
345,-1.1
346,-1.1
347,-1
348,-1
349,-1.1
350,-1.1
351,-1.1
352,-1.2
353,-1.1
354,-1.1
355,-1.2
356,-1.1
357,-1.1
358,-1.2
359,-1.2
360,-1.2
361,-1.2
362,-1.2
363,-1.3
364,-1.5
365,-1.4
366,-1.3
367,-1.2
368,-1.2
369,-1.2
370,-1.1
371,-1
372,-1.1
373,-1.2
374,-1.2
375,-1.2
376,-1.1
377,-0.9
378,-0.8
379,-0.8
380,-0.8
381,-0.8
382,-0.8
383,-0.7
384,-0.7
385,-0.9
386,-0.9
387,-0.9
388,-0.6
389,-0.6
390,-0.6
391,-0.6
392,-0.6
393,-0.5
394,-0.4
395,-0.3
396,-0.6
397,-0.6
398,-0.5
399,-0.5
400,-0.4
401,-0.5
402,-0.7
403,-0.7
404,-0.7
405,-0.6
406,-0.4
407,-0.5
408,-0.6
409,-0.6
410,-0.7
411,-0.7
412,-0.7
413,-0.7
414,-0.8
415,-0.9
416,-0.9
417,-0.9
418,-0.9
419,-0.8
420,-0.6
421,-0.6
422,-0.8
423,-0.8
424,-0.9
425,-1
426,-0.9
427,-1.1
428,-1
429,-0.9
430,-0.9
431,-1
432,-1
433,-1.2
434,-1.2
435,-1.3
436,-1.1
437,-1
438,-1.1
439,-1.1
440,-1.1
441,-1.1
442,-1.3
443,-1.4
444,-1.5
445,-1.4
446,-1.2
447,-1
448,-1
449,-1.3
450,-1.4
451,-1.4
452,-1.4
453,-1.4
454,-1.3
455,-1.4
456,-1.4
457,-1.4
458,-1.6
459,-1.8
460,-1.8
461,-1.8
462,-1.7
463,-1.4
464,-1.4
465,-1.4
466,-1.2
467,-1.2
468,-1.4
469,-1.5
470,-1.5
471,-1.5
472,-1.5
473,-1.5
474,-1.6
475,-1.7
476,-1.6
477,-1.5
478,-1.6
479,-1.8
480,-1.9
481,-1.8
482,-1.7
483,-1.7
484,-1.5
485,-1.5
486,-1.6
487,-1.6
488,-1.6
489,-1.5
490,-1.5
491,-1.6
492,-1.6
493,-1.5
494,-1.6
495,-1.8
496,-1.8
497,-1.8
498,-1.7
499,-1.7
500,-1.7
501,-1.8
502,-1.8
503,-1.8
504,-1.7
505,-1.7
506,-1.7
507,-1.6
508,-1.5
509,-1.6
510,-1.5
511,-1.6
512,-1.6
513,-1.5
514,-1.5
515,-1.5
516,-1.7
517,-1.7
518,-1.7
519,-1.6
520,-1.6
521,-1.9
522,-1.8
523,-1.8
524,-1.8
525,-1.8
526,-1.7
527,-1.7
528,-1.7
529,-1.6
530,-1.5
531,-1.4
532,-1.3
533,-1.1
534,-1.2
535,-0.9
536,-0.9
537,-0.9
538,-0.8
539,-0.9
540,-0.9
541,-1
542,-1.3
543,-1.3
544,-1.3
545,-1.1
546,-0.8
547,-0.5
548,-0.5
549,-0.5
550,-0.5
551,-0.7
552,-0.9
553,-0.9
554,-0.7
555,-0.2
556,-0.2
557,-0.4
558,-0.4
559,-0.7
560,-0.8
561,-0.9
562,-1.2
563,-1.1
564,-1.2
565,-1.1
566,-1.1
567,-1
568,-1
569,-1
570,-1.2
571,-1.6
572,-1.7
573,-1.7
574,-1.7
575,-1.8
576,-1.5
577,-1.4
578,-1.5
579,-1.6
580,-1.8
581,-2.1
582,-2.1
583,-2
584,-2.2
585,-2.2
586,-2.2
587,-2.1
588,-1.9
589,-1.7
590,-1.7
591,-2
592,-2.1
593,-2.3
594,-2.1
595,-1.8
596,-1.9
597,-2.1
598,-2.3
599,-2.2
600,-2.2
601,-2
602,-2.2
603,-2.2
604,-1.9
605,-1.4
606,-1
607,0
608,1.5
609,3.6
610,6.4
611,8.9
612,10.8
613,13.8
614,18.9
615,23.8
616,26.5
617,28.4
618,28.8
619,27.8
620,24.1
621,19.9
622,15.4
623,10.2
624,1.9
625,-6
626,-10.8
627,-13.2
628,-14.5
629,-15.6
630,-16.2
631,-16.1
632,-15.1
633,-14
634,-12.6
635,-10.6
636,-8.9
637,-7.2
638,-5.9
639,-5.1
640,-4.5
641,-3.9
642,-3.5
643,-2.9
644,-2.6
645,-2.3
646,-2.3
647,-2.3
648,-2.1
649,-1.9
650,-1.8
651,-1.8
652,-1.7
653,-1.7
654,-1.8
655,-1.5
656,-1.4
657,-1.5
658,-1.3
659,-1.2
660,-1.3
661,-1.3
662,-1.3
663,-1.2
664,-1.2
665,-1.1
666,-1
667,-0.9
668,-0.9
669,-0.9
670,-0.8
671,-0.7
672,-0.8
673,-0.9
674,-0.8
675,-0.8
676,-0.7
677,-0.8
678,-0.8
679,-0.5
680,-0.1
681,-0.1
682,-0.3
683,-0.3
684,-0.3
685,-0.3
686,-0.3
687,-0.4
688,-0.5
689,-0.5
690,-0.2
691,0
692,0
693,0
694,0.1
695,0
696,0.1
697,0.2
698,0.2
699,0.1
700,0.4
701,0.3
702,0.4
703,0.5
704,0.6
705,0.6
706,0.7
707,0.6
708,0.6
709,0.6
710,0.6
711,0.8
712,0.8
713,0.8
714,0.9
715,1.1
716,1
717,1.2
718,1.4
719,1.5
720,1.4
721,1.6
722,1.6
723,1.7
724,2
725,1.9
726,1.9
727,2.2
728,2.4
729,2.6
730,3
731,3
732,3.1
733,3.1
734,3.3
735,3.1
736,3.4
737,3.6
738,3.7
739,3.7
740,3.7
741,3.7
742,3.8
743,3.9
744,4.1
745,4.2
746,4.1
747,4.3
748,4.3
749,4.5
750,4.7
751,4.7
752,4.7
753,4.8
754,4.7
755,4.5
756,4.6
757,4.8
758,4.7
759,4.7
760,4.7
761,4.6
762,4.5
763,4.5
764,4.6
765,4.5
766,4.5
767,4.2
768,4.2
769,4.2
770,4.4
771,4.3
772,4.1
773,3.9
774,3.7
775,3.4
776,3.4
777,3.2
778,2.8
779,2.7
780,2.7
781,2.6
782,2.5
783,2.4
784,2.4
785,2.1
786,1.8
787,1.8
788,1.5
789,1.1
790,1
791,0.8
792,0.8
793,0.7
794,0.4
795,0.4
796,0.3
797,0.2
798,0
799,-0.2
800,-0.3
801,-0.3
802,-0.1
803,-0.2
804,-0.3
805,-0.5
806,-0.7
807,-0.7
808,-0.9
809,-1
810,-1
811,-0.9
812,-1
813,-1
814,-1
815,-0.8
816,-0.9
817,-1
818,-1
819,-0.9
820,-1.1
821,-1
822,-1.1
823,-1.1
824,-1
825,-1
826,-1.2
827,-1.3
828,-1.3
829,-1.2
830,-1.2
831,-1.4
832,-1.2
833,-1.2
834,-1.2
835,-1.2
836,-1.1
837,-1.1
838,-1.1
839,-1.3
840,-1.2
841,-1.2
842,-1.4
843,-1.3
844,-1.3
845,-1.4
846,-1.2
847,-1.1
848,-1.2
849,-1.1
850,-1.2
851,-1.3
852,-1.5
853,-1.5
854,-1.2
855,-1.3
856,-1.5
857,-1.4
858,-1.3
859,-1.3
860,-1.1
861,-0.8
862,-0.9
863,-1
864,-1
865,-1.2
866,-1.3
867,-1.1
868,-1.1
869,-1.3
870,-1.1
871,-0.9
872,-0.8
873,-0.6
874,-0.6
875,-0.7
876,-0.8
877,-0.8
878,-0.8
879,-0.7
880,-0.6
881,-0.6
882,-0.5
883,-0.6
884,-0.8
885,-0.7
886,-0.5
887,-0.5
888,-0.6
889,-0.7
890,-0.9
891,-0.8
892,-0.7
893,-0.7
894,-0.8
895,-0.9
896,-0.9
897,-0.9
898,-0.9
899,-1
900,-1
901,-1
902,-1
903,-1.2
904,-1
905,-1
906,-1
907,-1
908,-1.1
909,-1.3
910,-1.4
911,-1.4
912,-1.5
913,-1.4
914,-1.2
915,-1.2
916,-1.2
917,-1.3
918,-1.3
919,-1.2
920,-1.2
921,-1.2
922,-1.4
923,-1.3
924,-1.4
925,-1.2
926,-1.2
927,-1.2
928,-1.2
929,-1.3
930,-1.5
931,-1.5
932,-1.5
933,-1.6
934,-1.7
935,-1.6
936,-1.5
937,-1.4
938,-1.7
939,-1.5
940,-1.5
941,-1.5
942,-1.6
943,-1.4
944,-1.4
945,-1.5
946,-1.7
947,-1.7
948,-1.7
949,-1.7
950,-1.9
951,-1.7
952,-1.7
953,-1.7
954,-1.6
955,-1.6
956,-1.5
957,-1.5
958,-1.5
959,-1.4
960,-1.7
961,-2
962,-2.1
963,-1.8
964,-1.8
965,-1.7
966,-1.8
967,-1.8
968,-2
969,-1.8
970,-1.7
971,-1.7
972,-1.7
973,-1.8
974,-1.8
975,-2
976,-1.7
977,-1.4
978,-1.5
979,-1.6
980,-1.5
981,-1.5
982,-1.6
983,-1.6
984,-1.7
985,-1.8
986,-1.9
987,-1.9
988,-2
989,-1.9
990,-1.8
991,-1.6
992,-1.6
993,-1.7
994,-1.8
995,-1.7
996,-1.8
997,-1.8
998,-1.8
999,-1.7
1000,-1.7
1001,-1.5
1002,-1.5
1003,-1.6
1004,-1.7
1005,-1.9
1006,-1.7
1007,-1.5
1008,-1.5
1009,-1.8
1010,-1.8
1011,-1.8
1012,-1.7
1013,-1.8
1014,-2.1
1015,-1.9
1016,-1.9
1017,-1.9
1018,-1.7
1019,-1.6
1020,-1.6
1021,-1.8
1022,-1.7
1023,-1.5
1024,-1.4
1025,-1.3
1026,-1.3
1027,-1.2
1028,-1.2
1029,-1.2
1030,-1.2
1031,-0.9
1032,-0.9
1033,-1
1034,-1.3
1035,-1.1
1036,-0.9
1037,-0.8
1038,-0.6
1039,-0.4
1040,-0.3
1041,-0.3
1042,-0.5
1043,-0.5
1044,-0.4
1045,-0.4
1046,-0.5
1047,-0.5
1048,-0.7
1049,-0.8
1050,-0.7
1051,-0.9
1052,-1.1
1053,-1
1054,-0.8
1055,-0.7
1056,-0.7
1057,-0.9
1058,-1
1059,-0.9
1060,-1.1
1061,-1.2
1062,-1.2
1063,-1.2
1064,-1.3
1065,-1.3
1066,-1.5
1067,-1.4
1068,-1.5
1069,-1.6
1070,-1.7
1071,-1.7
1072,-1.6
1073,-1.6
1074,-1.7
1075,-1.8
1076,-2
1077,-1.9
1078,-1.9
1079,-1.9
1080,-1.9
1081,-1.8
1082,-1.8
1083,-1.9
1084,-1.9
1085,-1.9
1086,-1.9
1087,-1.9
1088,-1.9
1089,-1.7
1090,-1.6
1091,-1.5
1092,-1.7
1093,-1.9
1094,-2
1095,-1.9
1096,-1.3
1097,-0.4
1098,0.7
1099,2
1100,3.9
1101,6.5
1102,8.9
1103,11
1104,14.4
1105,19.1
1106,23.9
1107,26.8
1108,28.3
1109,28.7
1110,27.8
1111,24
1112,19.8
1113,15.3
1114,9.8
1115,1.3
1116,-6.8
1117,-11.2
1118,-13.2
1119,-14.4
1120,-15.7
1121,-16.3
1122,-16.1
1123,-15.1
1124,-13.8
1125,-12.1
1126,-10
1127,-8.3
1128,-6.8
1129,-5.7
1130,-5
1131,-4.3
1132,-3.6
1133,-2.9
1134,-2.4
1135,-2
1136,-1.6
1137,-1.6
1138,-1.4
1139,-1.4
1140,-1.4
1141,-1.4
1142,-1.2
1143,-1.2
1144,-1.2
1145,-1.3
1146,-1.2
1147,-1.2
1148,-1.2
1149,-1.2
1150,-1.3
1151,-1.3
1152,-1
1153,-1
1154,-0.9
1155,-0.8
1156,-0.8
1157,-0.5
1158,-0.6
1159,-0.4
1160,-0.4
1161,-0.5
1162,-0.6
1163,-0.5
1164,-0.3
1165,-0.2
1166,-0.4
1167,-0.4
1168,-0.1
1169,-0.2
1170,-0.5
1171,-0.4
1172,-0.2
1173,-0.1
1174,0
1175,-0.1
1176,0
1177,0
1178,0
1179,0.2
1180,0.3
1181,0.5
1182,0.5
1183,0.3
1184,0.1
1185,0.1
1186,0.3
1187,0.5
1188,0.5
1189,0.5
1190,0.7
1191,0.7
1192,0.6
1193,0.6
1194,0.6
1195,0.5
1196,0.6
1197,0.6
1198,0.8
1199,1.1
1200,1.1
1201,1.1
1202,1.3
1203,1.4
1204,1.4
1205,1.3
1206,1.5
1207,1.5
1208,1.7
1209,1.8
1210,2
1211,2
1212,2.1
1213,2.1
1214,2.2
1215,2.3
1216,2.6
1217,2.8
1218,2.9
1219,2.8
1220,2.8
1221,2.9
1222,2.9
1223,3.1
1224,3.2
1225,3.4
1226,3.4
1227,3.4
1228,3.7
1229,3.9
1230,4.1
1231,4.2
1232,4.2
1233,4.3
1234,4.2
1235,4.5
1236,4.8
1237,4.9
1238,4.9
1239,4.9
1240,5
1241,5
1242,5.1
1243,5.1
1244,5.1
1245,5
1246,4.8
1247,4.9
1248,4.7
1249,5
1250,5
1251,4.9
1252,4.8
1253,4.9
1254,4.9
1255,4.8
1256,4.8
1257,4.8
1258,4.6
1259,4.7
1260,4.6
1261,4.4
1262,4.2
1263,4.2
1264,4.1
1265,3.8
1266,3.8
1267,3.7
1268,3.7
1269,3.6
1270,3.4
1271,3.1
1272,3
1273,3.1
1274,3
1275,2.6
1276,2.1
1277,2.2
1278,2.1
1279,1.7
1280,1.5
1281,1.5
1282,1.2
1283,1.2
1284,1
1285,0.9
1286,0.9
1287,0.9
1288,0.5
1289,0.5
1290,0.4
1291,0.3
1292,0.1
1293,0
1294,0
1295,0
1296,0
1297,-0.1
1298,-0.1
1299,-0.2
1300,-0.3
1301,-0.3
1302,-0.4
1303,-0.4
1304,-0.5
1305,-0.6
1306,-0.7
1307,-0.8
1308,-0.7
1309,-0.5
1310,-0.5
1311,-0.4
1312,-0.2
1313,-0.5
1314,-0.5
1315,-0.7
1316,-0.7
1317,-0.9
1318,-0.8
1319,-0.6
1320,-0.7
1321,-0.8
1322,-1
1323,-1
1324,-1
1325,-1
1326,-0.9
1327,-0.8
1328,-0.7
1329,-1
1330,-0.9
1331,-0.7
1332,-0.7
1333,-0.7
1334,-0.7
1335,-0.6
1336,-0.6
1337,-0.7
1338,-0.7
1339,-0.7
1340,-0.8
1341,-0.9
1342,-0.7
1343,-0.6
1344,-0.7
1345,-0.7
1346,-0.9
1347,-0.8
1348,-0.6
1349,-0.5
1350,-0.6
1351,-0.6
1352,-0.9
1353,-1
1354,-0.8
1355,-0.7
1356,-0.5
1357,-0.5
1358,-0.2
1359,-0.2
1360,-0.5
1361,-0.5
1362,-0.4
1363,-0.6
1364,-0.4
1365,-0.4
1366,-0.4
1367,-0.5
1368,-0.5
1369,-0.5
1370,-0.5
1371,-0.5
1372,-0.5
1373,-0.4
1374,-0.1
1375,-0.3
1376,-0.4
1377,-0.5
1378,-0.6
1379,-0.6
1380,-0.4
1381,-0.3
1382,-0.4
1383,-0.7
1384,-0.7
1385,-0.4
1386,-0.4
1387,-0.5
1388,-0.5
1389,-0.4
1390,-0.5
1391,-0.7
1392,-0.7
1393,-0.5
1394,-0.5
1395,-0.5
1396,-0.4
1397,-0.5
1398,-0.7
1399,-0.7
1400,-0.6
1401,-0.7
1402,-0.6
1403,-0.6
1404,-0.6
1405,-0.8
1406,-1
1407,-0.9
1408,-1
1409,-1
1410,-1.2
1411,-1.1
1412,-1
1413,-0.9
1414,-0.9
1415,-1
1416,-0.9
1417,-0.9
1418,-0.9
1419,-1
1420,-1.1
1421,-1
1422,-1
1423,-1
1424,-0.9
1425,-0.7
1426,-0.8
1427,-0.7
1428,-0.9
1429,-0.9
1430,-1
1431,-1.1
1432,-1.2
1433,-1.3
1434,-1.6
1435,-1.3
1436,-1
1437,-0.9
1438,-1.1
1439,-1.3
1440,-1.3
1441,-1.3
1442,-1.3
1443,-1.1
1444,-1.1
1445,-1.1
1446,-1.1
1447,-1.1
1448,-1.1
1449,-1.1
1450,-1.1
1451,-1.3
1452,-1.2
1453,-1.2
1454,-1.4
1455,-1.3
1456,-1.3
1457,-1.4
1458,-1.3
1459,-1.4
1460,-1.3
1461,-1
1462,-1
1463,-1
1464,-1.1
1465,-1.4
1466,-1.1
1467,-1.1
1468,-1.3
1469,-1.4
1470,-1.3
1471,-1.2
1472,-1.3
1473,-1.4
1474,-1.2
1475,-1.3
1476,-1.4
1477,-1.1
1478,-1.1
1479,-1
1480,-1
1481,-1.1
1482,-1.4
1483,-1.3
1484,-1.2
1485,-1.2
1486,-1.1
1487,-1.1
1488,-1.3
1489,-1.5
1490,-1.2
1491,-1.1
1492,-0.9
1493,-0.7
1494,-0.7
1495,-0.6
1496,-0.6
1497,-0.7
1498,-0.7
1499,-0.8
1500,-0.8
1501,-1
1502,-0.7
1503,-0.7
1504,-0.6
1505,-0.4
1506,-0.2
1507,-0.2
1508,-0.2
1509,-0.2
1510,-0.1
1511,-0.1
1512,0
1513,0
1514,-0.1
1515,0
1516,0
1517,0
1518,0.1
1519,0
1520,0
1521,-0.2
1522,-0.5
1523,-0.5
1524,-0.6
1525,-0.7
1526,-0.7
1527,-0.7
1528,-0.7
1529,-0.7
1530,-0.8
1531,-0.8
1532,-0.8
1533,-0.9
1534,-1
1535,-1.1
1536,-1.2
1537,-1.2
1538,-1.3
1539,-1.4
1540,-1.4
1541,-1.4
1542,-1.5
1543,-1.5
1544,-1.5
1545,-1.5
1546,-1.5
1547,-1.5
1548,-1.6
1549,-1.6
1550,-1.5
1551,-1.6
1552,-1.4
1553,-1.1
1554,-1.3
1555,-1.5
1556,-1.7
1557,-1.7
1558,-1.6
1559,-1.4
1560,-1.3
1561,-1.3
1562,-1.4
1563,-1.6
1564,-1.6
1565,-1.3
1566,-0.7
1567,-0.2
1568,0.5
1569,1.9
1570,3.7
1571,6
1572,8.6
1573,10.6
1574,14.1
1575,18.6
1576,23.6
1577,26.5
1578,27.9
1579,28.4
1580,27.9
1581,24.7
1582,20.5
1583,16.2
1584,11.2
1585,3.7
1586,-4.6
1587,-9.8
1588,-12.4
1589,-13.7
1590,-14.8
1591,-15.9
1592,-16.6
1593,-16.4
1594,-15.3
1595,-13.5
1596,-11.6
1597,-10
1598,-8.6
1599,-7.3
1600,-6
1601,-4.8
1602,-4
1603,-3.2
1604,-2.7
1605,-2.1
1606,-1.7
1607,-1.7
1608,-1.7
1609,-1.7
1610,-1.6
1611,-1.6
1612,-1.4
1613,-1.4
1614,-1.4
1615,-1.2
1616,-0.9
1617,-0.8
1618,-0.8
1619,-0.9
1620,-1
1621,-0.9
1622,-0.7
1623,-0.6
1624,-0.6
1625,-0.7
1626,-0.6
1627,-0.5
1628,-0.4
1629,-0.5
1630,-0.7
1631,-0.5
1632,-0.5
1633,-0.7
1634,-0.7
1635,-0.5
1636,-0.4
1637,-0.5
1638,-0.5
1639,-0.5
1640,-0.5
1641,-0.3
1642,-0.3
1643,-0.1
1644,-0.1
1645,0
1646,0
1647,0.2
1648,0
1649,-0.2
1650,-0.3
1651,0.1
1652,0.2
1653,0.2
1654,0.1
1655,0
1656,0
1657,0.1
1658,0.3
1659,0.4
1660,0.6
1661,1
1662,0.7
1663,0.6
1664,0.9
1665,1
1666,0.9
1667,0.9
1668,1
1669,1.1
1670,1.6
1671,1.5
1672,1.4
1673,1.4
1674,1.5
1675,1.7
1676,1.6
1677,1.8
1678,1.9
1679,1.9
1680,2.2
1681,2.3
1682,2.4
1683,2.3
1684,2.5
1685,2.7
1686,2.7
1687,2.8
1688,2.7
1689,2.7
1690,2.9
1691,3.1
1692,3.3
1693,3.3
1694,3.3
1695,3.4
1696,3.5
1697,3.8
1698,4
1699,4.2
1700,4.4
1701,4.3
1702,4.5
1703,4.5
1704,4.6
1705,4.7
1706,4.7
1707,4.9
1708,5
1709,4.8
1710,5.1
1711,5.3
1712,5.4
1713,5.4
1714,5.2
1715,5.2
1716,5.2
1717,5.1
1718,5.2
1719,5.3
1720,5.4
1721,5.3
1722,5.2
1723,5.2
1724,5.1
1725,5
1726,5
1727,5
1728,5.1
1729,5
1730,4.9
1731,4.7
1732,4.7
1733,4.5
1734,4.4
1735,4.2
1736,4
1737,3.9
1738,3.6
1739,3.4
1740,3.3
1741,3.1
1742,2.9
1743,2.7
1744,2.6
1745,2.3
1746,2.1
1747,2.1
1748,2.3
1749,2.2
1750,2
1751,1.8
1752,1.4
1753,1.1
1754,1
1755,1
1756,0.8
1757,0.5
1758,0.3
1759,0.4
1760,0.4
1761,0.3
1762,0.2
1763,0.1
1764,0.1
1765,0.1
1766,0
1767,0
1768,-0.1
1769,-0.3
1770,-0.2
1771,-0.3
1772,-0.3
1773,-0.5
1774,-0.5
1775,-0.5
1776,-0.5
1777,-0.3
1778,-0.4
1779,-0.5
1780,-0.5
1781,-0.5
1782,-0.6
1783,-0.5
1784,-0.7
1785,-0.8
1786,-0.6
1787,-0.6
1788,-0.7
1789,-0.7
1790,-0.5
1791,-0.6
1792,-0.7
1793,-0.7
1794,-0.8
1795,-0.9
1796,-0.9
1797,-0.6
1798,-0.4
1799,-0.4
1800,-0.5
1801,-0.6
1802,-0.6
1803,-0.6
1804,-0.8
1805,-0.7
1806,-0.9
1807,-0.7
1808,-0.4
1809,-0.3
1810,-0.3
1811,-0.3
1812,-0.3
1813,-0.3
1814,-0.5
1815,-0.5
1816,-0.5
1817,-0.4
1818,-0.4
1819,-0.2
1820,0
1821,-0.2
1822,-0.3
1823,-0.2
1824,0
1825,0
1826,0.1
1827,0
1828,0.2
1829,0.1
1830,0.1
1831,0.1
1832,0
1833,-0.1
1834,0
1835,0.1
1836,0
1837,0.1
1838,0.2
1839,0.3
1840,0.1
1841,0
1842,0
1843,0.2
1844,0
1845,0
1846,-0.1
1847,0
1848,0.2
1849,0.2
1850,0
1851,0
1852,-0.1
1853,0
1854,0
1855,-0.1
1856,0
1857,0
1858,-0.1
1859,0
1860,0.1
1861,0
1862,0.1
1863,0
1864,-0.1
1865,-0.1
1866,-0.3
1867,-0.4
1868,-0.5
1869,-0.5
1870,-0.5
1871,-0.5
1872,-0.5
1873,-0.5
1874,-0.5
1875,-0.6
1876,-0.5
1877,-0.6
1878,-0.7
1879,-0.6
1880,-0.6
1881,-0.6
1882,-0.8
1883,-0.8
1884,-0.5
1885,-0.5
1886,-0.8
1887,-0.7
1888,-0.7
1889,-0.7
1890,-0.8
1891,-0.9
1892,-0.9
1893,-1
1894,-1.2
1895,-1.2
1896,-1.1
1897,-1
1898,-0.8
1899,-0.7
1900,-0.9
1901,-0.9
1902,-0.9
1903,-1.1
1904,-1.3
1905,-1.4
1906,-1.2
1907,-0.9
1908,-0.8
1909,-0.8
1910,-0.8
1911,-0.9
1912,-0.9
1913,-0.9
1914,-0.8
1915,-0.8
1916,-0.8
1917,-0.9
1918,-1.2
1919,-1.2
1920,-1.2
1921,-1
1922,-1.2
1923,-1.1
1924,-1.1
1925,-1.1
1926,-1.2
1927,-1.1
1928,-1
1929,-1.1
1930,-1.3
1931,-1.2
1932,-1.2
1933,-1.4
1934,-1.4
1935,-1.2
1936,-1.2
1937,-1.4
1938,-1.5
1939,-1.5
1940,-1.5
1941,-1.3
1942,-1.3
1943,-1.3
1944,-1.4
1945,-1.4
1946,-1.5
1947,-1.5
1948,-1.3
1949,-1
1950,-1
1951,-1.2
1952,-1.3
1953,-1.1
1954,-1.2
1955,-1.3
1956,-1.3
1957,-1.3
1958,-1.3
1959,-0.9
1960,-0.8
1961,-1
1962,-1.1
1963,-0.9
1964,-0.7
1965,-0.6
1966,-0.7
1967,-0.7
1968,-0.6
1969,-0.4
1970,-0.3
1971,-0.3
1972,-0.3
1973,-0.1
1974,0.1
1975,-0.1
1976,-0.2
1977,-0.2
1978,-0.4
1979,-0.2
1980,-0.2
1981,-0.2
1982,-0.4
1983,-0.4
1984,-0.1
1985,-0.1
1986,-0.2
1987,-0.2
1988,-0.3
1989,-0.3
1990,-0.5
1991,-0.5
1992,-0.5
1993,-0.8
1994,-1
1995,-0.9
1996,-0.9
1997,-1.1
1998,-1.1
1999,-1.2
2000,-1.3
2001,-1.4
2002,-1.6
2003,-1.8
2004,-1.8
2005,-1.6
2006,-1.6
2007,-1.6
2008,-1.7
2009,-1.7
2010,-1.5
2011,-1.5
2012,-1.5
2013,-1.6
2014,-1.8
2015,-2
2016,-1.8
2017,-1.7
2018,-1.8
2019,-1.5
2020,-1.6
2021,-1.7
2022,-1.7
2023,-1.7
2024,-1.7
2025,-1.9
2026,-1.8
2027,-1.7
2028,-1.8
2029,-1.7
2030,-1.7
2031,-1.8
2032,-1.6
2033,-1.1
2034,-0.7
2035,0.1
2036,1.5
2037,3.6
2038,6.2
2039,8.7
2040,10.8
2041,13.8
2042,18.3
2043,23.2
2044,26.2
2045,27.8
2046,28.8
2047,28.6
2048,25.5
2049,21.1
2050,16.9
2051,12.2
2052,5
2053,-3.7
2054,-9
2055,-11.9
2056,-13.3
2057,-14.5
2058,-15.7
2059,-16
2060,-15.7
2061,-14.8
2062,-13.4
2063,-11.1
2064,-9.3
2065,-8
2066,-6.7
2067,-5.6
2068,-4.5
2069,-3.8
2070,-3.1
2071,-2.6
2072,-2.3
2073,-2.1
2074,-1.8
2075,-1.6
2076,-1.5
2077,-1.5
2078,-1.6
2079,-1.7
2080,-1.5
2081,-1.3
2082,-1.3
2083,-1.4
2084,-1.4
2085,-1.4
2086,-1.2
2087,-1.2
2088,-1.3
2089,-1.2
2090,-0.9
2091,-0.9
2092,-1.1
2093,-0.8
2094,-0.7
2095,-0.7
2096,-0.7
2097,-0.7
2098,-0.8
2099,-0.8
2100,-0.8
2101,-0.8
2102,-0.8
2103,-0.6
2104,-0.2
2105,-0.3
2106,-0.4
2107,-0.4
2108,-0.4
2109,-0.6
2110,-0.6
2111,-0.4
2112,-0.4
2113,-0.3
2114,-0.3
2115,-0.3
2116,-0.2
2117,-0.1
2118,0
2119,0
2120,0.1
2121,0.1
2122,0
2123,0.2
2124,0.1
2125,0.1
2126,0.3
2127,0.4
2128,0.4
2129,0.4
2130,0.5
2131,0.4
2132,0.6
2133,0.8
2134,0.7
2135,0.8
2136,0.7
2137,0.9
2138,0.9
2139,1
2140,1
2141,1
2142,1.2
2143,1.2
2144,1.2
2145,1.3
2146,1.4
2147,1.4
2148,1.5
2149,1.6
2150,1.6
2151,1.8
2152,2.1
2153,2.2
2154,2.3
2155,2.5
2156,2.6
2157,2.6
2158,3
2159,3.1
2160,3
2161,2.9
2162,3
2163,3.1
2164,3.2
2165,3.3
2166,3.5
2167,3.6
2168,3.8
2169,3.8
2170,3.9
2171,4.1
2172,4.2
2173,4.3
2174,4.3
2175,4.5
2176,4.7
2177,4.7
2178,4.6
2179,4.6
2180,4.7
2181,4.8
2182,4.8
2183,4.7
2184,4.8
2185,4.8
2186,4.8
2187,4.8
2188,4.7
2189,4.7
2190,4.8
2191,4.4
2192,4.4
2193,4.4
2194,4.3
2195,4.1
2196,4
2197,3.9
2198,3.9
2199,3.9
2200,4
2201,4
2202,3.7
2203,3.4
2204,3.4
2205,3.4
2206,3.4
2207,3.2
2208,3
2209,2.8
2210,2.6
2211,2.2
2212,2
2213,2
2214,1.9
2215,1.5
2216,1.3
2217,1.1
2218,1
2219,0.9
2220,0.6
2221,0.4
2222,0.3
2223,0.1
2224,0
2225,-0.1
2226,-0.1
2227,-0.1
2228,-0.3
2229,-0.5
2230,-0.5
2231,-0.4
2232,-0.4
2233,-0.5
2234,-0.4
2235,-0.4
2236,-0.4
2237,-0.7
2238,-0.9
2239,-1
2240,-1
2241,-1
2242,-0.8
2243,-0.8
2244,-0.8
2245,-1
2246,-1
2247,-1
2248,-1.1
2249,-0.8
2250,-0.8
2251,-0.8
2252,-0.9
2253,-0.9
2254,-1
2255,-1
2256,-1
2257,-1.1
2258,-0.9
2259,-1.1
2260,-1.2
2261,-1.2
2262,-1.2
2263,-1.2
2264,-1.2
2265,-1.2
2266,-1.1
2267,-1
2268,-1
2269,-1
2270,-0.8
2271,-0.8
2272,-0.9
2273,-0.9
2274,-0.8
2275,-0.8
2276,-0.9
2277,-0.9
2278,-1
2279,-1
2280,-1
2281,-0.8
2282,-0.9
2283,-0.9
2284,-0.9
2285,-0.8
2286,-0.8
2287,-0.7
2288,-0.7
2289,-0.6
2290,-0.6
2291,-0.6
2292,-0.7
2293,-0.6
2294,-0.7
2295,-0.7
2296,-0.7
2297,-0.4
2298,-0.2
2299,-0.1
2300,-0.2
2301,-0.3
2302,-0.3
2303,-0.2
2304,-0.1
2305,-0.2
2306,-0.2
2307,-0.2
2308,-0.3
2309,-0.4
2310,-0.5
2311,-0.5
2312,-0.5
2313,-0.3
2314,-0.1
2315,-0.1
2316,-0.1
2317,-0.2
2318,-0.3
2319,-0.3
2320,-0.3
2321,-0.3
2322,-0.4
2323,-0.5
2324,-0.6
2325,-0.5
2326,-0.4
2327,-0.4
2328,-0.5
2329,-0.3
2330,-0.2
2331,-0.5
2332,-0.7
2333,-0.8
2334,-0.7
2335,-0.4
2336,-0.4
2337,-0.6
2338,-0.8
2339,-0.8
2340,-0.8
2341,-1
2342,-0.8
2343,-0.6
2344,-0.6
2345,-0.6
2346,-0.7
2347,-0.8
2348,-0.7
2349,-0.9
2350,-1
2351,-1
2352,-1
2353,-1
2354,-1
2355,-1
2356,-1
2357,-1.1
2358,-0.8
2359,-0.8
2360,-0.9
2361,-1
2362,-1
2363,-1
2364,-1
2365,-0.9
2366,-1.1
2367,-1.2
2368,-1.3
2369,-1.3
2370,-1.1
2371,-1.4
2372,-1.3
2373,-1.3
2374,-1.4
2375,-1.4
2376,-1.3
2377,-1
2378,-1
2379,-1
2380,-1.1
2381,-1.1
2382,-1.2
2383,-1.3
2384,-1.3
2385,-1.4
2386,-1.3
2387,-1.4
2388,-1.4
2389,-1.5
2390,-1.4
2391,-1.4
2392,-1.5
2393,-1.6
2394,-1.7
2395,-1.6
2396,-1.4
2397,-1.1
2398,-1
2399,-1.1
2400,-1.4
2401,-1.4
2402,-1.5
2403,-1.3
2404,-1.2
2405,-1.3
2406,-1.3
2407,-1.4
2408,-1.4
2409,-1.4
2410,-1.4
2411,-1.4
2412,-1.3
2413,-1.3
2414,-1.3
2415,-1.4
2416,-1.4
2417,-1.4
2418,-1.5
2419,-1.5
2420,-1.6
2421,-1.6
2422,-1.3
2423,-1.2
2424,-1.2
2425,-1.5
2426,-1.5
2427,-1.4
2428,-1.7
2429,-1.7
2430,-1.6
2431,-1.4
2432,-1.4
2433,-1.4
2434,-1.3
2435,-1.4
2436,-1.3
2437,-1.3
2438,-1.3
2439,-1.2
2440,-1.1
2441,-1.3
2442,-1.3
2443,-1.5
2444,-1.5
2445,-1.3
2446,-0.9
2447,-0.7
2448,-0.6
2449,-0.7
2450,-0.7
2451,-0.7
2452,-0.7
2453,-0.7
2454,-0.8
2455,-0.9
2456,-0.7
2457,-0.5
2458,-0.3
2459,-0.2
2460,-0.2
2461,-0.2
2462,-0.2
2463,-0.4
2464,-0.6
2465,-0.6
2466,-0.6
2467,-0.6
2468,-0.5
2469,-0.4
2470,-0.3
2471,-0.4
2472,-0.6
2473,-0.6
2474,-0.7
2475,-0.8
2476,-0.7
2477,-0.6
2478,-0.7
2479,-0.9
2480,-0.9
2481,-0.7
2482,-0.8
2483,-1
2484,-1.3
2485,-1.6
2486,-1.8
2487,-1.6
2488,-1.5
2489,-1.6
2490,-1.7
2491,-1.8
2492,-1.8
2493,-1.9
2494,-1.9
2495,-1.9
2496,-1.7
2497,-1.8
2498,-1.9
2499,-1.8
2500,-1.7
2501,-1.6
2502,-1.7
2503,-1.7
2504,-1.6
2505,-1.7
2506,-1.9
2507,-1.9
2508,-1.9
2509,-1.9
2510,-1.9
2511,-1.9
2512,-1.9
2513,-1.9
2514,-1.9
2515,-1.8
2516,-1.5
2517,-1
2518,-0.7
2519,0.2
2520,1.4
2521,3.3
2522,5.9
2523,8.3
2524,10.3
2525,13.3
2526,17.9
2527,23
2528,26.2
2529,28.1
2530,29
2531,28.8
2532,25.6
2533,21.2
2534,16.8
2535,12.2
2536,5
2537,-3.7
2538,-9.7
2539,-12.8
2540,-14.4
2541,-15.4
2542,-16.1
2543,-16.1
2544,-15.2
2545,-14.1
2546,-12.8
2547,-10.6
2548,-8.7
2549,-7.3
2550,-6.1
2551,-5.2
2552,-4.4
2553,-3.8
2554,-3.1
2555,-2.6
2556,-2.3
2557,-2.1
2558,-2
2559,-2.1
2560,-1.8
2561,-1.6
2562,-1.7
2563,-1.6
2564,-1.6
2565,-1.6
2566,-1.6
2567,-1.5
2568,-1.4
2569,-1.3
2570,-1.3
2571,-1.3
2572,-1.3
2573,-1.2
2574,-1.1
2575,-1.1
2576,-1.2
2577,-1
2578,-0.8
2579,-0.9
2580,-0.9
2581,-0.8
2582,-0.8
2583,-0.9
2584,-0.7
2585,-0.7
2586,-0.8
2587,-0.7
2588,-0.7
2589,-0.7
2590,-0.6
2591,-0.4
2592,-0.4
2593,-0.3
2594,-0.2
2595,-0.1
2596,-0.1
2597,-0.1
2598,-0.1
2599,-0.2
2600,-0.3
2601,-0.2
2602,-0.2
2603,-0.1
2604,-0.2
2605,0
2606,0.1
2607,0.2
2608,0.3
2609,0.1
2610,0.1
2611,0.1
2612,0
2613,0
2614,0.1
2615,0.4
2616,0.7
2617,0.7
2618,0.6
2619,0.8
2620,0.9
2621,0.9
2622,0.9
2623,0.8
2624,0.9
2625,0.9
2626,0.9
2627,0.8
2628,1
2629,1.3
2630,1.4
2631,1.5
2632,1.6
2633,1.7
2634,1.7
2635,1.6
2636,1.8
2637,1.8
2638,1.9
2639,1.9
2640,2.1
2641,2.4
2642,2.3
2643,2.3
2644,2.7
2645,3
2646,3
2647,3.1
2648,3.1
2649,3.3
2650,3.4
2651,3.7
2652,3.9
2653,3.6
2654,3.5
2655,3.8
2656,3.8
2657,4.1
2658,4.1
2659,4.1
2660,4.3
2661,4.4
2662,4.5
2663,4.6
2664,4.5
2665,4.4
2666,4.3
2667,4.2
2668,4.3
2669,4.4
2670,4.4
2671,4.5
2672,4.6
2673,4.6
2674,4.6
2675,4.6
2676,4.4
2677,4.3
2678,4.5
2679,4.4
2680,4.3
2681,4.2
2682,4.1
2683,4
2684,4
2685,4
2686,3.8
2687,3.5
2688,3.3
2689,3.2
2690,2.8
2691,2.8
2692,2.8
2693,2.7
2694,2.6
2695,2.1
2696,2
2697,1.9
2698,1.9
2699,1.6
2700,1.5
2701,1.4
2702,1.1
2703,0.7
2704,0.6
2705,0.4
2706,0.4
2707,0.4
2708,0.1
2709,0
2710,0
2711,-0.4
2712,-0.5
2713,-0.5
2714,-0.7
2715,-0.8
2716,-0.7
2717,-0.9
2718,-0.9
2719,-1.1
2720,-1
2721,-1
2722,-1.1
2723,-1.1
2724,-1.2
2725,-1.4
2726,-1.3
2727,-1.3
2728,-1.1
2729,-1.1
2730,-1.1
2731,-1.1
2732,-1.1
2733,-1.2
2734,-1.2
2735,-1.2
2736,-1.2
2737,-1.2
2738,-1.2
2739,-1.4
2740,-1.4
2741,-1.5
2742,-1.6
2743,-1.6
2744,-1.7
2745,-1.6
2746,-1.5
2747,-1.3
2748,-1.1
2749,-1.3
2750,-1.2
2751,-1.2
2752,-1.3
2753,-1.2
2754,-1.3
2755,-1.4
2756,-1.4
2757,-1.4
2758,-1.4
2759,-1.3
2760,-1.4
2761,-1.4
2762,-1.4
2763,-1.4
2764,-1.6
2765,-1.4
2766,-1.3
2767,-1.2
2768,-1.4
2769,-1.5
2770,-1.4
2771,-1.3
2772,-1.2
2773,-1.2
2774,-1
2775,-1
2776,-1
2777,-1
2778,-1
2779,-1
2780,-1.1
2781,-1.1
2782,-1.1
2783,-1.3
2784,-1.2
2785,-1.1
2786,-1.1
2787,-1.1
2788,-1.3
2789,-1.1
2790,-0.8
2791,-0.8
2792,-0.8
2793,-0.8
2794,-0.8
2795,-0.9
2796,-1
2797,-1
2798,-1.2
2799,-1.1
2800,-0.9
2801,-1
2802,-1
2803,-1
2804,-1.1
2805,-0.9
2806,-1
2807,-0.9
2808,-0.8
2809,-0.9
2810,-1.1
2811,-1.3
2812,-1.3
2813,-1.3
2814,-1.3
2815,-1.3
2816,-1.5
2817,-1.4
2818,-1.4
2819,-1.4
2820,-1.4
2821,-1.2
2822,-1.2
2823,-1.4
2824,-1.3
2825,-1.5
2826,-1.5
2827,-1.3
2828,-1.2
2829,-1.3
2830,-1.4
2831,-1.5
2832,-1.5
2833,-1.3
2834,-1.4
2835,-1.4
2836,-1.5
2837,-1.6
2838,-1.7
2839,-1.8
2840,-1.9
2841,-1.8
2842,-1.7
2843,-1.9
2844,-1.9
2845,-1.7
2846,-1.7
2847,-1.6
2848,-1.8
2849,-1.8
2850,-1.6
2851,-1.6
2852,-1.6
2853,-1.6
2854,-1.7
2855,-1.9
2856,-2
2857,-2.1
2858,-2
2859,-2
2860,-2
2861,-1.8
2862,-1.8
2863,-1.7
2864,-1.5
2865,-1.6
2866,-1.6
2867,-1.9
2868,-2
2869,-2.1
2870,-2.1
2871,-2.2
2872,-2.2
2873,-2.4
2874,-2.4
2875,-2.2
2876,-2.2
2877,-2.1
2878,-1.9
2879,-1.8
2880,-1.8
2881,-1.9
2882,-1.9
2883,-1.8
2884,-1.9
2885,-2
2886,-2
2887,-2
2888,-2.1
2889,-2.1
2890,-2.1
2891,-1.9
2892,-1.9
2893,-2.1
2894,-2.2
2895,-2.1
2896,-2
2897,-1.7
2898,-1.8
2899,-1.9
2900,-1.9
2901,-2.1
2902,-2.1
2903,-2
2904,-2
2905,-2
2906,-2
2907,-2.1
2908,-2.1
2909,-2.1
2910,-1.9
2911,-1.8
2912,-1.8
2913,-2
2914,-2
2915,-2.1
2916,-1.8
2917,-1.8
2918,-2
2919,-2.2
2920,-2.2
2921,-1.8
2922,-1.6
2923,-1.7
2924,-1.8
2925,-1.8
2926,-2
2927,-1.9
2928,-1.7
2929,-1.5
2930,-1.6
2931,-1.7
2932,-1.6
2933,-1.5
2934,-1.2
2935,-1.3
2936,-1.4
2937,-1.3
2938,-1.4
2939,-1.3
2940,-1.1
2941,-1
2942,-1.2
2943,-1.1
2944,-1
2945,-1.3
2946,-1.2
2947,-0.9
2948,-0.8
2949,-0.7
2950,-0.6
2951,-0.7
2952,-0.8
2953,-0.8
2954,-0.7
2955,-0.7
2956,-0.5
2957,-0.6
2958,-0.8
2959,-0.8
2960,-0.9
2961,-1
2962,-1
2963,-0.8
2964,-0.8
2965,-1
2966,-1.1
2967,-1.1
2968,-1.3
2969,-1.5
2970,-1.5
2971,-1.7
2972,-1.8
2973,-1.8
2974,-1.8
2975,-1.8
2976,-1.6
2977,-1.4
2978,-1.6
2979,-1.7
2980,-1.9
2981,-1.9
2982,-2
2983,-2
2984,-1.9
2985,-1.9
2986,-1.8
2987,-1.7
2988,-1.6
2989,-1.7
2990,-1.5
2991,-1.5
2992,-1.7
2993,-1.7
2994,-1.9
2995,-1.7
2996,-1.7
2997,-1.7
2998,-1.6
2999,-1.6
3000,-1.6
3001,-1.9
3002,-1.9
3003,-1.6
3004,-0.8
3005,-0.1
3006,0.8
3007,2.4
3008,4.7
3009,7.3
3010,9.4
3011,11.7
3012,15.6
3013,20.9
3014,25.1
3015,27.2
3016,28.8
3017,29.2
3018,27.3
3019,22.8
3020,18.4
3021,13.7
3022,7.8
3023,-1.2
3024,-8.2
3025,-11.7
3026,-13
3027,-14.2
3028,-15.5
3029,-16
3030,-15.6
3031,-14.7
3032,-13.4
3033,-11.4
3034,-9.3
3035,-7.8
3036,-6.5
3037,-5.4
3038,-4.5
3039,-3.8
3040,-3.1
3041,-2.6
3042,-2.2
3043,-1.9
3044,-1.7
3045,-1.7
3046,-1.7
3047,-1.5
3048,-1.4
3049,-1.4
3050,-1.4
3051,-1.3
3052,-1.2
3053,-1.2
3054,-1.4
3055,-1.4
3056,-1.4
3057,-1.2
3058,-1
3059,-0.8
3060,-0.8
3061,-0.6
3062,-0.6
3063,-0.6
3064,-0.7
3065,-0.8
3066,-0.8
3067,-0.8
3068,-0.7
3069,-0.7
3070,-0.6
3071,-0.5
3072,-0.5
3073,-0.4
3074,-0.3
3075,-0.3
3076,-0.2
3077,-0.4
3078,-0.4
3079,-0.3
3080,-0.3
3081,-0.1
3082,0
3083,0.2
3084,0
3085,0
3086,0
3087,0
3088,-0.1
3089,-0.1
3090,0
3091,0.1
3092,0.2
3093,0.3
3094,0.2
3095,0.4
3096,0.5
3097,0.5
3098,0.3
3099,0.2
3100,0.4
3101,0.3
3102,0.5
3103,0.4
3104,0.7
3105,0.9
3106,0.8
3107,0.7
3108,0.8
3109,0.8
3110,0.9
3111,1
3112,1.2
3113,1.1
3114,1
3115,1.2
3116,1.3
3117,1.3
3118,1.4
3119,1.3
3120,1.4
3121,1.5
3122,1.8
3123,2
3124,2.3
3125,2.4
3126,2.5
3127,2.6
3128,2.8
3129,2.9
3130,3.2
3131,3.1
3132,3.1
3133,3.3
3134,3.1
3135,3.4
3136,3.6
3137,3.4
3138,3.7
3139,3.8
3140,4.1
3141,4.1
3142,4.2
3143,4
3144,4.1
3145,4.5
3146,4.6
3147,4.4
3148,4.5
3149,4.5
3150,4.6
3151,4.9
3152,4.9
3153,4.8
3154,4.7
3155,4.8
3156,4.9
3157,4.8
3158,4.6
3159,4.6
3160,4.6
3161,4.7
3162,4.6
3163,4.7
3164,4.4
3165,4.4
3166,4.4
3167,4.4
3168,4.2
3169,4.1
3170,3.9
3171,3.7
3172,3.6
3173,3.6
3174,3.6
3175,3.6
3176,3.5
3177,3.4
3178,3
3179,2.6
3180,2.6
3181,2.5
3182,2.3
3183,2.3
3184,2
3185,1.8
3186,1.7
3187,1.5
3188,1.3
3189,1.1
3190,1
3191,0.9
3192,0.8
3193,0.7
3194,0.6
3195,0.5
3196,0.4
3197,0.2
3198,0
3199,0
3200,0
3201,-0.1
3202,-0.3
3203,-0.4
3204,-0.3
3205,-0.3
3206,-0.4
3207,-0.6
3208,-0.7
3209,-0.8
3210,-0.7
3211,-0.8
3212,-1
3213,-0.9
3214,-0.7
3215,-0.8
3216,-0.8
3217,-0.7
3218,-0.4
3219,-0.3
3220,-0.4
3221,-0.5
3222,-0.7
3223,-0.7
3224,-0.7
3225,-0.7
3226,-0.7
3227,-0.7
3228,-0.7
3229,-0.7
3230,-0.8
3231,-1
3232,-1.1
3233,-0.9
3234,-0.7
3235,-0.7
3236,-0.8
3237,-0.7
3238,-0.7
3239,-0.7
3240,-0.7
3241,-0.7
3242,-0.8
3243,-0.8
3244,-0.7
3245,-0.7
3246,-0.7
3247,-0.7
3248,-0.7
3249,-0.5
3250,-0.6
3251,-0.5
3252,-0.5
3253,-0.5
3254,-0.6
3255,-0.6
3256,-0.3
3257,-0.3
3258,-0.4
3259,-0.6
3260,-0.7
3261,-0.3
3262,-0.4
3263,-0.4
3264,-0.4
3265,-0.4
3266,-0.6
3267,-0.6
3268,-0.4
3269,-0.4
3270,-0.1
3271,0
3272,0.1
3273,0.1
3274,0.1
3275,0
3276,0
3277,0.1
3278,0.1
3279,0.1
3280,-0.2
3281,-0.4
3282,-0.3
3283,-0.3
3284,-0.4
3285,-0.3
3286,-0.1
3287,0.1
3288,0.3
3289,0.1
3290,0
3291,-0.1
3292,-0.3
3293,-0.3
3294,-0.4
3295,-0.4
3296,-0.4
3297,-0.3
3298,-0.2
3299,0
3300,0
3301,-0.2
3302,-0.4
3303,-0.4
3304,-0.3
3305,-0.4
3306,-0.6
3307,-0.6
3308,-0.6
3309,-0.5
3310,-0.3
3311,-0.4
3312,-0.3
3313,-0.2
3314,-0.2
3315,-0.4
3316,-0.3
3317,-0.2
3318,-0.4
3319,-0.4
3320,-0.8
3321,-0.6
3322,-0.6
3323,-0.5
3324,-0.4
3325,-0.7
3326,-0.8
3327,-1
3328,-0.9
3329,-0.9
3330,-0.9
3331,-0.9
3332,-0.9
3333,-0.9
3334,-0.8
3335,-0.8
3336,-0.5
3337,-0.5
3338,-0.4
3339,-0.7
3340,-0.7
3341,-0.6
3342,-0.7
3343,-1
3344,-0.9
3345,-1
3346,-0.9
3347,-1
3348,-0.8
3349,-0.8
3350,-0.8
3351,-0.6
3352,-0.6
3353,-0.8
3354,-1
3355,-1
3356,-1.1
3357,-1
3358,-0.8
3359,-0.9
3360,-0.8
3361,-0.8
3362,-0.9
3363,-0.9
3364,-0.9
3365,-0.9
3366,-0.8
3367,-0.8
3368,-0.7
3369,-0.6
3370,-0.5
3371,-0.7
3372,-0.7
3373,-0.8
3374,-1
3375,-1
3376,-0.7
3377,-0.7
3378,-1
3379,-1.2
3380,-1.2
3381,-1
3382,-1
3383,-1.1
3384,-0.9
3385,-0.9
3386,-1
3387,-0.8
3388,-0.8
3389,-0.9
3390,-0.7
3391,-0.8
3392,-0.9
3393,-1
3394,-0.9
3395,-0.9
3396,-0.7
3397,-0.4
3398,-0.5
3399,-0.3
3400,-0.2
3401,-0.2
3402,-0.2
3403,-0.2
3404,-0.2
3405,-0.3
3406,-0.3
3407,-0.2
3408,-0.3
3409,-0.1
3410,0.2
3411,0.3
3412,0.3
3413,0.3
3414,0.3
3415,0.4
3416,0.6
3417,0.3
3418,0.2
3419,0.2
3420,0.2
3421,0.3
3422,0.3
3423,0.3
3424,0.1
3425,-0.2
3426,-0.2
3427,-0.2
3428,-0.2
3429,-0.2
3430,0
3431,-0.2
3432,-0.2
3433,-0.2
3434,-0.3
3435,-0.3
3436,-0.5
3437,-0.9
3438,-0.9
3439,-0.8
3440,-0.7
3441,-0.7
3442,-0.9
3443,-0.9
3444,-0.9
3445,-1.2
3446,-1.4
3447,-1.4
3448,-1.3
3449,-1.2
3450,-1.3
3451,-1.4
3452,-1.5
3453,-1.6
3454,-1.7
3455,-1.7
3456,-1.6
3457,-1.3
3458,-1.2
3459,-1.3
3460,-1.1
3461,-1.2
3462,-1.1
3463,-1.3
3464,-1.2
3465,-1.1
3466,-1.1
3467,-1.2
3468,-0.9
3469,-0.5
3470,-0.1
3471,0.6
3472,1.7
3473,3.2
3474,5.4
3475,8.4
3476,11
3477,13.6
3478,17.7
3479,22.9
3480,26.8
3481,28.5
3482,29.1
3483,28.9
3484,26.7
3485,22.8
3486,19
3487,14.3
3488,7.3
3489,-1.6
3490,-8
3491,-11.3
3492,-12.8
3493,-13.8
3494,-15
3495,-15.6
3496,-15.7
3497,-15
3498,-13.6
3499,-11.7
3500,-10
3501,-8.4
3502,-7.1
3503,-5.9
3504,-5
3505,-4.1
3506,-3.3
3507,-2.5
3508,-1.8
3509,-1.5
3510,-1.4
3511,-1.4
3512,-1.2
3513,-1.1
3514,-1.1
3515,-1
3516,-1
3517,-1
3518,-0.9
3519,-0.9
3520,-0.9
3521,-0.6
3522,-0.4
3523,-0.4
3524,-0.6
3525,-0.6
3526,-0.4
3527,-0.3
3528,-0.3
3529,-0.4
3530,-0.2
3531,-0.1
3532,-0.1
3533,-0.4
3534,-0.5
3535,-0.3
3536,-0.2
3537,-0.2
3538,-0.2
3539,-0.1
3540,0
3541,0
3542,0
3543,0
3544,0.2
3545,0.2
3546,0
3547,0.2
3548,0.1
3549,0.2
3550,0.3
3551,0.4
3552,0.4
3553,0.4
3554,0.5
3555,0.5
3556,0.4
3557,0.4
3558,0.4
3559,0.4
3560,0.5
3561,0.6
3562,0.6
3563,0.6
3564,0.8
3565,1
3566,1
3567,0.9
3568,0.9
3569,1.2
3570,1.4
3571,1.4
3572,1.5
3573,1.4
3574,1.4
3575,1.3
3576,1.4
3577,1.9
3578,1.9
3579,1.7
3580,1.9
3581,2.1
3582,2.1
3583,2.3
3584,2.4
3585,2.4
3586,2.4
3587,2.4
3588,2.4
3589,2.5
3590,2.8
3591,3.1
3592,3.2
3593,3
3594,2.9
3595,3.2
3596,3.6
3597,3.9
3598,4
3599,4.1
3600,4.2
3601,4.4
3602,4.4
3603,4.5
3604,4.5
3605,4.5
3606,4.5
3607,4.6
3608,4.9
3609,5
3610,5
3611,5.1
3612,5.1
3613,5.1
3614,5.1
3615,5
3616,5
3617,5.2
3618,5.5
3619,5.6
3620,5.6
3621,5.7
3622,5.4
3623,5.2
3624,5.2
3625,5.2
3626,5
3627,5.1
3628,5.2
3629,5
3630,4.9
3631,4.7
3632,4.6
3633,4.4
3634,4.4
3635,4.4
3636,4.1
3637,3.9
3638,3.9
3639,3.9
3640,3.9
3641,3.7
3642,3.5
3643,3.5
3644,3.3
3645,3.1
3646,2.9
3647,2.7
3648,2.7
3649,2.7
3650,2.5
3651,2.2
3652,2.2
3653,1.9
3654,1.7
3655,1.4
3656,1.2
3657,1.2
3658,0.9
3659,0.6
3660,0.7
3661,0.4
3662,0.4
3663,0.4
3664,0.4
3665,0.1
3666,-0.1
3667,0
3668,0.1
3669,0.1
3670,0
3671,-0.2
3672,-0.4
3673,-0.4
3674,-0.6
3675,-0.6
3676,-0.7
3677,-0.8
3678,-0.7
3679,-0.7
3680,-0.6
3681,-0.6
3682,-0.6
3683,-0.8
3684,-0.8
3685,-0.8
3686,-0.8
3687,-0.8
3688,-0.6
3689,-0.6
3690,-0.6
3691,-0.7
3692,-0.9
3693,-1
3694,-1
3695,-0.9
3696,-1.1
3697,-0.8
3698,-0.8
3699,-0.9
3700,-1
3701,-1.1
3702,-0.9
3703,-0.8
3704,-0.6
3705,-0.7
3706,-0.7
3707,-0.8
3708,-0.9
3709,-1
3710,-0.8
3711,-0.7
3712,-0.6
3713,-0.5
3714,-0.6
3715,-0.7
3716,-0.6
3717,-0.4
3718,-0.4
3719,-0.4
3720,-0.7
3721,-0.5
3722,-0.4
3723,-0.4
3724,-0.4
3725,-0.5
3726,-0.4
3727,-0.4
3728,-0.3
3729,-0.1
3730,-0.1
3731,0
3732,0
3733,0.2
3734,0.1
3735,0
3736,-0.1
3737,0
3738,0.1
3739,0.1
3740,0.2
3741,0
3742,0
3743,0.2
3744,0.1
3745,0
3746,0
3747,0
3748,0
3749,0
3750,0.3
3751,0.3
3752,0.1
3753,0
3754,0
3755,-0.1
3756,-0.1
3757,-0.1
3758,0
3759,0
3760,-0.1
3761,-0.2
3762,-0.1
3763,-0.2
3764,-0.1
3765,-0.2
3766,-0.3
3767,-0.2
3768,-0.4
3769,-0.5
3770,-0.5
3771,-0.3
3772,-0.3
3773,-0.3
3774,-0.3
3775,-0.5
3776,-0.5
3777,-0.5
3778,-0.7
3779,-0.7
3780,-0.8
3781,-0.9
3782,-0.9
3783,-0.9
3784,-1
3785,-0.8
3786,-0.8
3787,-0.7
3788,-0.7
3789,-0.8
3790,-0.9
3791,-1
3792,-1.1
3793,-0.9
3794,-0.8
3795,-0.9
3796,-1
3797,-1.2
3798,-1
3799,-0.9
3800,-1
3801,-1
3802,-1
3803,-1
3804,-1.1
3805,-1.1
3806,-1.2
3807,-1.1
3808,-1.1
3809,-1
3810,-1
3811,-1.1
3812,-1.1
3813,-1.1
3814,-1.3
3815,-1.2
3816,-1.2
3817,-1
3818,-1
3819,-1.2
3820,-1.2
3821,-1.2
3822,-1.2
3823,-1.3
3824,-1.2
3825,-1.2
3826,-1.3
3827,-1.2
3828,-1.1
3829,-1.1
3830,-1.1
3831,-1.2
3832,-1.4
3833,-1.3
3834,-1.5
3835,-1.4
3836,-1.4
3837,-1.4
3838,-1.3
3839,-1.3
3840,-1.4
3841,-1.5
3842,-1.6
3843,-1.6
3844,-1.7
3845,-1.6
3846,-1.5
3847,-1.5
3848,-1.5
3849,-1.7
3850,-1.7
3851,-1.3
3852,-1.4
3853,-1.4
3854,-1.4
3855,-1.4
3856,-1.2
3857,-1.1
3858,-0.9
3859,-1
3860,-1
3861,-0.8
3862,-0.7
3863,-1
3864,-1
3865,-0.8
3866,-1
3867,-1.2
3868,-1
3869,-0.8
3870,-0.8
3871,-0.9
3872,-0.9
3873,-0.7
3874,-0.5
3875,-0.4
3876,-0.3
3877,-0.3
3878,-0.4
3879,-0.4
3880,-0.4
3881,-0.4
3882,-0.4
3883,-0.4
3884,-0.3
3885,-0.1
3886,-0.2
3887,-0.4
3888,-0.6
3889,-0.7
3890,-0.8
3891,-0.6
3892,-0.8
3893,-0.9
3894,-1.1
3895,-1.1
3896,-1.1
3897,-1.2
3898,-1.2
3899,-1.3
3900,-1.4
3901,-1.6
3902,-1.8
3903,-1.7
3904,-1.7
3905,-1.8
3906,-2
3907,-2
3908,-1.9
3909,-2
3910,-1.9
3911,-1.9
3912,-2.1
3913,-2.3
3914,-2.4
3915,-2.4
3916,-2.2
3917,-2
3918,-2
3919,-1.9
3920,-1.9
3921,-1.8
3922,-1.9
3923,-2.1
3924,-2.1
3925,-1.8
3926,-1.8
3927,-1.8
3928,-1.9
3929,-2.1
3930,-2.3
3931,-2.1
3932,-1.7
3933,-1.3
3934,-0.3
3935,1.1
3936,3
3937,5.5
3938,7.9
3939,10
3940,13
3941,17.7
3942,23
3943,26
3944,27.8
3945,28.7
3946,28.6
3947,25.8
3948,21.8
3949,17.6
3950,12.9
3951,5.6
3952,-2.9
3953,-8.7
3954,-11.7
3955,-13.2
3956,-14.6
3957,-15.8
3958,-16
3959,-15.5
3960,-14.2
3961,-12.8
3962,-10.9
3963,-9.4
3964,-8.1
3965,-6.8
3966,-5.7
3967,-4.9
3968,-4.2
3969,-3.5
3970,-3
3971,-2.6
3972,-2.4
3973,-2.4
3974,-2.3
3975,-2.2
3976,-2.2
3977,-2.2
3978,-2.2
3979,-2
3980,-2
3981,-1.7
3982,-1.7
3983,-1.7
3984,-1.7
3985,-1.5
3986,-1.5
3987,-1.5
3988,-1.7
3989,-1.4
3990,-1.3
3991,-1.3
3992,-1.6
3993,-1.4
3994,-1.2
3995,-1.3
3996,-1.2
3997,-1.1
3998,-1.1
3999,-1.1
4000,-1.1
4001,-1.2
4002,-1.2
4003,-1
4004,-0.9
4005,-1
4006,-1
4007,-1
4008,-1.1
4009,-0.8
4010,-0.6
4011,-0.6
4012,-0.6
4013,-0.6
4014,-0.8
4015,-0.9
4016,-0.7
4017,-0.6
4018,-0.6
4019,-0.6
4020,-0.7
4021,-0.6
4022,-0.4
4023,-0.4
4024,-0.2
4025,-0.2
4026,0
4027,0
4028,-0.2
4029,-0.4
4030,-0.3
4031,-0.3
4032,-0.1
4033,0
4034,0.1
4035,0.1
4036,0.1
4037,0.3
4038,0.5
4039,0.5
4040,0.7
4041,0.7
4042,0.8
4043,0.9
4044,0.8
4045,0.9
4046,1
4047,1.1
4048,1.3
4049,1.4
4050,1.4
4051,1.4
4052,1.4
4053,1.6
4054,1.7
4055,1.9
4056,1.9
4057,2
4058,2.4
4059,2.6
4060,2.8
4061,2.7
4062,2.6
4063,2.7
4064,2.8
4065,3
4066,3.1
4067,3.3
4068,3.2
4069,3.3
4070,3.3
4071,3.4
4072,3.6
4073,3.8
4074,3.8
4075,3.8
4076,3.8
4077,3.8
4078,4
4079,4.2
4080,4.2
4081,4.1
4082,4.1
4083,4.1
4084,4.4
4085,4.3
4086,4
4087,4.1
4088,4.1
4089,4
4090,3.9
4091,3.8
4092,3.8
4093,3.6
4094,3.4
4095,3.4
4096,3.4
4097,3.3
4098,3.3
4099,3.3
4100,3.2
4101,3.2
4102,3.1
4103,2.9
4104,2.7
4105,2.5
4106,2.4
4107,2.4
4108,2.3
4109,2.3
4110,2.2
4111,1.9
4112,1.7
4113,1.6
4114,1.3
4115,1
4116,1
4117,0.8
4118,0.5
4119,0.3
4120,0.2
4121,0.1
4122,0.1
4123,0
4124,-0.2
4125,-0.3
4126,-0.6
4127,-0.6
4128,-0.6
4129,-0.5
4130,-0.7
4131,-0.8
4132,-0.7
4133,-0.8
4134,-0.9
4135,-1
4136,-1.1
4137,-0.9
4138,-0.9
4139,-1.1
4140,-1.1
4141,-1.2
4142,-1.2
4143,-1.1
4144,-1.3
4145,-1.1
4146,-1
4147,-1.1
4148,-1.3
4149,-1.2
4150,-1.1
4151,-1.4
4152,-1.5
4153,-1.5
4154,-1.5
4155,-1.5
4156,-1.5
4157,-1.5
4158,-1.6
4159,-1.5
4160,-1.3
4161,-1.1
4162,-1.2
4163,-1.1
4164,-1.1
4165,-1.2
4166,-1.2
4167,-1.2
4168,-1.3
4169,-1.3
4170,-1.3
4171,-1.4
4172,-1.5
4173,-1.3
4174,-1
4175,-1
4176,-1
4177,-1
4178,-0.9
4179,-0.8
4180,-1.1
4181,-1.2
4182,-1.2
4183,-1.2
4184,-1.1
4185,-1
4186,-1
4187,-0.9
4188,-0.9
4189,-1
4190,-1
4191,-1.1
4192,-1
4193,-1
4194,-1
4195,-0.9
4196,-0.7
4197,-0.6
4198,-0.6
4199,-0.6
4200,-0.6
4201,-0.5
4202,-0.7
4203,-0.7
4204,-0.6
4205,-0.6
4206,-0.7
4207,-0.7
4208,-0.5
4209,-0.4
4210,-0.4
4211,-0.5
4212,-0.4
4213,-0.3
4214,-0.4
4215,-0.3
4216,-0.3
4217,-0.4
4218,-0.4
4219,-0.5
4220,-0.5
4221,-0.5
4222,-0.8
4223,-0.6
4224,-0.6
4225,-0.5
4226,-0.6
4227,-0.7
4228,-0.7
4229,-0.7
4230,-0.8
4231,-0.9
4232,-1
4233,-1
4234,-0.8
4235,-0.7
4236,-0.7
4237,-0.9
4238,-1.1
4239,-1.2
4240,-1.1
4241,-1.1
4242,-1.2
4243,-1
4244,-1.1
4245,-1.1
4246,-1
4247,-0.9
4248,-1
4249,-1
4250,-1.1
4251,-1.1
4252,-1.2
4253,-1.4
4254,-1.4
4255,-1.4
4256,-1.4
4257,-1.3
4258,-1.2
4259,-1.3
4260,-1.3
4261,-1.3
4262,-1.1
4263,-1
4264,-1
4265,-1.1
4266,-1.1
4267,-1.3
4268,-1.3
4269,-1.4
4270,-1.4
4271,-1.3
4272,-1.4
4273,-1.5
4274,-1.5
4275,-1.5
4276,-1.4
4277,-1.6
4278,-1.8
4279,-1.5
4280,-1.2
4281,-1.2
4282,-1.3
4283,-1.3
4284,-1.5
4285,-1.5
4286,-1.4
4287,-1.4
4288,-1.4
4289,-1.3
4290,-1.3
4291,-1.5
4292,-1.6
4293,-1.8
4294,-1.7
4295,-1.6
4296,-1.6
4297,-1.7
4298,-1.5
4299,-1.3
4300,-1.5
4301,-1.7
4302,-1.6
4303,-1.5
4304,-1.4
4305,-1.4
4306,-1.4
4307,-1.4
4308,-1.3
4309,-1.5
4310,-1.4
4311,-1.4
4312,-1.5
4313,-1.5
4314,-1.4
4315,-1.3
4316,-1.3
4317,-1.4
4318,-1.3
4319,-1.3
4320,-1.3
4321,-1.3
4322,-1.3
4323,-1.3
4324,-1.3
4325,-1.6
4326,-1.5
4327,-1.5
4328,-1.5
4329,-1.4
4330,-1.4
4331,-1.3
4332,-1
4333,-0.8
4334,-0.8
4335,-0.8
4336,-0.8
4337,-0.8
4338,-0.7
4339,-0.7
4340,-0.6
4341,-0.5
4342,-0.4
4343,-0.4
4344,-0.6
4345,-0.5
4346,-0.3
4347,-0.1
4348,-0.3
4349,-0.5
4350,-0.7
4351,-0.7
4352,-0.4
4353,-0.1
4354,-0.1
4355,-0.1
4356,-0.3
4357,-0.7
4358,-0.8
4359,-0.9
4360,-0.8
4361,-0.8
4362,-0.9
4363,-0.9
4364,-0.9
4365,-0.8
4366,-0.8
4367,-0.8
4368,-1
4369,-1.1
4370,-1.3
4371,-1.5
4372,-1.4
4373,-1.3
4374,-1.5
4375,-1.4
4376,-1.5
4377,-1.7
4378,-1.7
4379,-1.7
4380,-1.7
4381,-1.8
4382,-1.6
4383,-1.8
4384,-1.7
4385,-1.8
4386,-1.9
4387,-1.8
4388,-1.7
4389,-1.8
4390,-1.7
4391,-1.6
4392,-1.7
4393,-1.9
4394,-1.9
4395,-1.7
4396,-1.7
4397,-1.5
4398,-1.6
4399,-2
4400,-2
4401,-1.6
4402,-1.3
4403,-0.5
4404,0.5
4405,2.3
4406,4.8
4407,7.3
4408,9.1
4409,11.2
4410,14.9
4411,20.2
4412,24.4
4413,26.8
4414,28.3
4415,28.5
4416,27.1
4417,23.3
4418,19.1
4419,14.2
4420,8.5
4421,0.1
4422,-6.8
4423,-11
4424,-12.7
4425,-14
4426,-15.4
4427,-15.7
4428,-15.2
4429,-14.3
4430,-13.3
4431,-11.6
4432,-9.5
4433,-7.9
4434,-6.5
4435,-5.6
4436,-4.9
4437,-4.3
4438,-3.6
4439,-2.9
4440,-2.4
4441,-2.2
4442,-2.2
4443,-2
4444,-1.9
4445,-1.9
4446,-1.7
4447,-1.7
4448,-1.5
4449,-1.2
4450,-1
4451,-1.2
4452,-1.3
4453,-1.3
4454,-1.3
4455,-1.4
4456,-1.2
4457,-1.2
4458,-1.2
4459,-1.3
4460,-1
4461,-1.1
4462,-1.1
4463,-1.2
4464,-1.2
4465,-1.2
4466,-1
4467,-1
4468,-0.8
4469,-0.7
4470,-0.8
4471,-1
4472,-1
4473,-0.8
4474,-0.5
4475,-0.7
4476,-0.7
4477,-0.8
4478,-0.9
4479,-0.7
4480,-0.6
4481,-0.2
4482,-0.3
4483,-0.6
4484,-0.6
4485,-0.6
4486,-0.5
4487,-0.6
4488,-0.3
4489,-0.1
4490,-0.1
4491,-0.1
4492,-0.1
4493,0
4494,0
4495,-0.1
4496,0
4497,0.1
4498,0.2
4499,0.2
4500,0.3
4501,0.3
4502,0.1
4503,0.2
4504,0.5
4505,0.7
4506,0.7
4507,0.7
4508,0.6
4509,0.7
4510,1
4511,1
4512,1
4513,1.1
4514,1.1
4515,1.2
4516,1
4517,1
4518,1.1
4519,1.2
4520,1.5
4521,1.7
4522,1.9
4523,1.9
4524,1.8
4525,1.8
4526,2.1
4527,2.2
4528,2.2
4529,2.5
4530,2.9
4531,2.9
4532,3
4533,3
4534,3
4535,3.1
4536,3.1
4537,3.2
4538,3.5
4539,3.5
4540,3.7
4541,3.8
4542,3.9
4543,3.9
4544,4
4545,3.8
4546,3.7
4547,3.7
4548,4
4549,4.2
4550,4.2
4551,4
4552,4.1
4553,4.1
4554,4.2
4555,4.3
4556,4.4
4557,4.3
4558,4.1
4559,4
4560,4
4561,4
4562,4.1
4563,4
4564,3.9
4565,3.7
4566,3.4
4567,3.5
4568,3.6
4569,3.4
4570,3.4
4571,3.4
4572,3.2
4573,3.1
4574,2.8
4575,2.5
4576,2.2
4577,2
4578,2
4579,2
4580,1.9
4581,1.8
4582,1.7
4583,1.4
4584,1.2
4585,1.2
4586,0.9
4587,0.6
4588,0.3
4589,0.2
4590,0.1
4591,0.1
4592,0
4593,-0.2
4594,-0.3
4595,-0.5
4596,-0.4
4597,-0.4
4598,-0.6
4599,-0.8
4600,-0.9
4601,-0.8
4602,-0.8
4603,-1.1
4604,-1.1
4605,-1
4606,-1.1
4607,-1.3
4608,-1.3
4609,-1.2
4610,-1.2
4611,-1.3
4612,-1.3
4613,-1.2
4614,-1.4
4615,-1.5
4616,-1.5
4617,-1.6
4618,-1.5
4619,-1.5
4620,-1.6
4621,-1.3
4622,-1.2
4623,-1.2
4624,-1.4
4625,-1.2
4626,-1.4
4627,-1.5
4628,-1.6
4629,-1.5
4630,-1.5
4631,-1.3
4632,-1.3
4633,-1.5
4634,-1.5
4635,-1.4
4636,-1.5
4637,-1.4
4638,-1.4
4639,-1.4
4640,-1.3
4641,-1.3
4642,-1.5
4643,-1.6
4644,-1.6
4645,-1.4
4646,-1.3
4647,-1.3
4648,-1.2
4649,-1.3
4650,-1.2
4651,-1.2
4652,-1.4
4653,-1.3
4654,-1.3
4655,-1.5
4656,-1.5
4657,-1.2
4658,-1.1
4659,-0.9
4660,-0.9
4661,-1
4662,-1.1
4663,-1
4664,-1
4665,-0.8
4666,-0.7
4667,-0.8
4668,-0.9
4669,-0.9
4670,-0.9
4671,-1.1
4672,-1
4673,-1
4674,-0.8
4675,-0.8
4676,-0.8
4677,-0.8
4678,-0.9
4679,-1.1
4680,-1
4681,-0.9
4682,-0.7
4683,-0.9
4684,-0.9
4685,-1.1
4686,-1
4687,-1
4688,-0.9
4689,-1
4690,-0.9
4691,-1
4692,-0.8
4693,-1
4694,-1
4695,-1
4696,-1.1
4697,-1.2
4698,-1.3
4699,-1.2
4700,-1.2
4701,-1
4702,-1.1
4703,-1.2
4704,-1.2
4705,-1.1
4706,-1.3
4707,-1.2
4708,-1.3
4709,-1.3
4710,-1.3
4711,-1.3
4712,-1.3
4713,-1.6
4714,-1.8
4715,-1.8
4716,-1.7
4717,-1.6
4718,-1.5
4719,-1.5
4720,-1.5
4721,-1.5
4722,-1.4
4723,-1.5
4724,-1.6
4725,-1.7
4726,-1.7
4727,-1.9
4728,-1.7
4729,-1.8
4730,-1.8
4731,-1.7
4732,-1.7
4733,-1.8
4734,-1.9
4735,-1.7
4736,-1.6
4737,-1.5
4738,-1.4
4739,-1.6
4740,-1.6
4741,-1.6
4742,-1.8
4743,-1.7
4744,-1.7
4745,-1.9
4746,-1.9
4747,-1.7
4748,-1.7
4749,-2
4750,-2
4751,-2
4752,-2
4753,-1.8
4754,-1.8
4755,-1.8
4756,-1.5
4757,-1.4
4758,-1.4
4759,-1.6
4760,-1.8
4761,-1.8
4762,-1.8
4763,-1.9
4764,-1.9
4765,-1.8
4766,-1.9
4767,-2.1
4768,-2.1
4769,-2
4770,-2
4771,-1.9
4772,-1.9
4773,-2.1
4774,-1.9
4775,-1.8
4776,-1.9
4777,-1.8
4778,-1.8
4779,-1.9
4780,-2
4781,-1.9
4782,-1.6
4783,-1.8
4784,-2
4785,-1.9
4786,-1.7
4787,-1.6
4788,-1.6
4789,-1.7
4790,-1.7
4791,-1.8
4792,-1.9
4793,-1.9
4794,-1.6
4795,-1.5
4796,-1.6
4797,-1.5
4798,-1.3
4799,-1.3
4800,-1.3
4801,-1.2
4802,-1.3
4803,-1.3
4804,-1.1
4805,-0.9
4806,-1
4807,-0.9
4808,-0.8
4809,-0.8
4810,-0.8
4811,-0.9
4812,-0.8
4813,-0.9
4814,-0.7
4815,-0.7
4816,-0.6
4817,-0.4
4818,-0.4
4819,-0.4
4820,-0.5
4821,-0.4
4822,-0.5
4823,-0.7
4824,-0.6
4825,-0.6
4826,-0.7
4827,-0.7
4828,-0.7
4829,-0.8
4830,-0.9
4831,-1.1
4832,-1.3
4833,-1.2
4834,-1.2
4835,-1.3
4836,-1.1
4837,-1.1
4838,-1.3
4839,-1.5
4840,-1.8
4841,-1.9
4842,-1.8
4843,-1.6
4844,-1.6
4845,-1.7
4846,-1.7
4847,-1.6
4848,-1.9
4849,-1.9
4850,-1.9
4851,-1.7
4852,-1.7
4853,-1.9
4854,-2
4855,-1.9
4856,-1.9
4857,-1.9
4858,-1.9
4859,-1.6
4860,-1.6
4861,-1.9
4862,-1.8
4863,-1.6
4864,-1.7
4865,-1.9
4866,-1.9
4867,-1.9
4868,-1.9
4869,-1.7
4870,-1.6
4871,-1.5
4872,-1.1
4873,-0.5
4874,0.6
4875,1.8
4876,3.5
4877,6.2
4878,8.6
4879,10.6
4880,14.1
4881,18.9
4882,23.8
4883,26.7
4884,28.1
4885,28.2
4886,27.2
4887,23.3
4888,19.3
4889,14.9
4890,9.4
4891,0.9
4892,-6.8
4893,-11.3
4894,-13.3
4895,-14.4
4896,-15.9
4897,-16.4
4898,-16.2
4899,-15.3
4900,-14.1
4901,-12.7
4902,-10.3
4903,-8.4
4904,-7
4905,-5.9
4906,-4.8
4907,-3.9
4908,-3.6
4909,-3
4910,-2.3
4911,-1.9
4912,-1.7
4913,-1.8
4914,-1.9
4915,-1.9
4916,-1.7
4917,-1.6
4918,-1.5
4919,-1.5
4920,-1.3
4921,-1.1
4922,-1.1
4923,-1.3
4924,-1.3
4925,-1.3
4926,-1.3
4927,-1.3
4928,-1.3
4929,-1.3
4930,-1
4931,-0.9
4932,-0.8
4933,-0.8
4934,-1
4935,-1
4936,-1.1
4937,-1.1
4938,-1
4939,-0.7
4940,-0.4
4941,-0.5
4942,-0.5
4943,-0.6
4944,-0.5
4945,-0.6
4946,-0.7
4947,-0.6
4948,-0.4
4949,-0.3
4950,-0.3
4951,-0.5
4952,-0.6
4953,-0.6
4954,-0.3
4955,-0.2
4956,-0.2
4957,-0.1
4958,0
4959,-0.2
4960,0
4961,0.2
4962,0.2
4963,0.3
4964,0.1
4965,0
4966,0
4967,0.2
4968,0.3
4969,0.3
4970,0.5
4971,0.5
4972,0.2
4973,0.3
4974,0.6
4975,0.8
4976,0.9
4977,0.7
4978,0.7
4979,0.9
4980,1
4981,1.1
4982,1.2
4983,1.4
4984,1.5
4985,1.5
4986,1.6
4987,2
4988,2.1
4989,1.9
4990,1.8
4991,1.7
4992,1.9
4993,2.1
4994,2.3
4995,2.2
4996,2.3
4997,2.5
4998,2.7
4999,2.9
5000,3.1
