TS,Reading
1,-0.4
2,-0.6
3,-0.6
4,-0.5
5,-0.5
6,-0.6
7,-0.6
8,-0.5
9,-0.7
10,-0.8
11,-0.6
12,-0.7
13,-0.6
14,-0.8
15,-0.7
16,-0.5
17,-0.4
18,-0.2
19,-0.5
20,-0.6
21,-0.6
22,-0.5
23,-0.2
24,-0.3
25,-0.4
26,-0.5
27,-0.6
28,-0.7
29,-0.9
30,-0.7
31,-0.7
32,-0.7
33,-0.5
34,-0.4
35,-0.2
36,-0.6
37,-0.7
38,-0.6
39,-0.7
40,-0.5
41,-0.7
42,-0.8
43,-0.8
44,-0.8
45,-0.7
46,-0.3
47,0
48,-0.2
49,-0.2
50,0
51,-0.1
52,0.1
53,-0.2
54,-0.2
55,-0.3
56,-0.2
57,-0.1
58,-0.2
59,-0.2
60,0
61,0.1
62,0.1
63,0.4
64,0.3
65,0.1
66,0.3
67,0.2
68,0.1
69,0
70,0.1
71,0.2
72,0.1
73,-0.2
74,-0.2
75,-0.3
76,-0.5
77,-0.5
78,-0.5
79,-0.6
80,-0.5
81,-0.4
82,-0.4
83,0
84,-0.4
85,-0.6
86,-0.3
87,-0.5
88,-0.5
89,-0.1
90,-0.1
91,-0.2
92,-0.3
93,-0.2
94,-0.3
95,-0.1
96,0.1
97,0
98,-0.2
99,-0.3
100,-0.2
101,-0.7
102,-0.5
103,-0.7
104,-0.7
105,-0.6
106,-0.6
107,-0.6
108,-0.4
109,-0.3
110,-0.3
111,-0.6
112,-0.7
113,-0.5
114,-0.6
115,-0.5
116,-0.3
117,-0.3
118,0.5
119,1.1
120,1.6
121,2.2
122,2.7
123,2.8
124,2.2
125,1.4
126,0.4
127,-0.5
128,-1.7
129,-2.7
130,-3.8
131,-4.7
132,-4.6
133,-4.6
134,-4.6
135,-4.9
136,-5.4
137,-5.3
138,-5.1
139,-5.8
140,-7.2
141,-7.6
142,-8.1
143,-8.4
144,-8.3
145,-9.1
146,-9.9
147,-9.6
148,-8.9
149,-7.6
150,-6.1
151,-4
152,-2.7
153,-2.2
154,-2.1
155,-2
156,-1.6
157,-1.8
158,-1.5
159,-1.1
160,-1.2
161,-0.9
162,-0.6
163,-0.4
164,-0.8
165,-0.8
166,-0.6
167,-0.7
168,-0.7
169,-0.5
170,-0.3
171,-0.5
172,-0.6
173,-0.5
174,-0.5
175,-0.5
176,-0.4
177,-0.5
178,-0.5
179,-0.1
180,-0.2
181,-0.6
182,-0.5
183,-0.2
184,-0.6
185,-0.7
186,-0.5
187,-0.5
188,-0.4
189,-0.6
190,-0.6
191,-0.4
192,-0.5
193,-0.6
194,-0.4
195,-0.6
196,-0.3
197,-0.4
198,-0.3
199,-0.3
200,-0.5
201,0.1
202,-0.2
203,-0.2
204,-0.3
205,-0.4
206,-0.6
207,-0.4
208,-0.4
209,-0.1
210,0.2
211,0.1
212,-0.2
213,-0.4
214,-0.4
215,-0.6
216,-0.6
217,-0.3
218,-0.5
219,-0.5
220,-0.4
221,-0.1
222,0.2
223,-0.2
224,-0.5
225,-0.3
226,-0.4
227,-0.7
228,-0.7
229,-0.6
230,-0.4
231,-0.3
232,-0.5
233,-0.5
234,-0.4
235,-0.4
236,-0.5
237,-0.6
238,-0.7
239,-0.7
240,-0.5
241,-0.6
242,-0.8
243,-1
244,-1.1
245,-0.6
246,-0.5
247,-0.6
248,-0.9
249,-0.7
250,-0.6
251,-0.7
252,-1.1
253,-1.2
254,-1
255,-0.9
256,-0.9
257,-1.3
258,-1.1
259,-1.1
260,-1.3
261,-1.1
262,-0.8
263,-1
264,-1.1
265,-1.4
266,-1.2
267,-1.2
268,-1.2
269,-1.3
270,-1.3
271,-1.1
272,-1
273,-1.4
274,-1.5
275,-1.7
276,-1.8
277,-1.8
278,-2
279,-1.9
280,-1.9
281,-1.7
282,-1.5
283,-1.7
284,-2
285,-1.9
286,-1.8
287,-1.8
288,-1.8
289,-1.6
290,-1.2
291,-0.8
292,-0.8
293,-1
294,-1.1
295,-1.5
296,-1.5
297,-1.1
298,-0.9
299,-0.8
300,-0.8
301,-0.6
302,-0.8
303,-0.7
304,-0.4
305,-0.5
306,-0.7
307,-0.6
308,-0.2
309,-0.3
310,-0.1
311,-0.2
312,-0.4
313,-0.4
314,-0.5
315,-0.5
316,-0.4
317,-0.3
318,-0.5
319,-0.6
320,-0.6
321,-0.4
322,-0.6
323,-0.7
324,-0.7
325,-0.6
326,-0.4
327,-0.7
328,-0.6
329,-0.3
330,-0.7
331,-0.8
332,-0.7
333,-0.5
334,-0.4
335,-0.4
336,-0.6
337,-0.7
338,-0.7
339,-0.7
340,-0.9
341,-1
342,-0.8
343,-0.8
344,-0.6
345,-0.8
346,-1
347,-0.7
348,-0.5
349,-0.5
350,-0.5
351,-0.6
352,-0.7
353,-0.8
354,-0.7
355,-0.7
356,-0.6
357,-0.8
358,-0.6
359,-0.5
360,-0.6
361,-0.7
362,-0.3
363,-0.4
364,-0.4
365,-0.4
366,-0.3
367,-0.4
368,-0.5
369,-0.8
370,-0.8
371,-0.6
372,-0.4
373,-0.4
374,-0.6
375,-1
376,-0.6
377,-0.5
378,-0.7
379,-0.6
380,-0.3
381,-0.6
382,-0.9
383,-0.6
384,-0.3
385,-0.1
386,-0.4
387,-0.5
388,-0.4
389,-0.4
390,-0.6
391,-0.6
392,-0.5
393,-0.3
394,-0.5
395,-0.5
396,-0.4
397,-0.1
398,-0.1
399,-0.1
400,0
401,-0.1
402,-0.2
403,-0.2
404,-0.2
405,-0.4
406,-0.5
407,-0.4
408,-0.2
409,-0.2
410,-0.2
411,-0.1
412,-0.1
413,-0.1
414,-0.3
415,-0.4
416,-0.1
417,-0.5
418,-0.4
419,-0.4
420,-0.4
421,-0.7
422,-0.6
423,-0.1
424,0
425,-0.1
426,-0.4
427,-0.4
428,-0.2
429,-0.3
430,-0.2
431,0.1
432,0.2
433,-0.2
434,-0.4
435,-0.5
436,-0.5
437,-0.2
438,0.1
439,0.2
440,-0.3
441,-0.7
442,-0.9
443,-0.4
444,0.1
445,0
446,0
447,0
448,0
449,0.2
450,0
451,-0.3
452,0
453,0.1
454,-0.2
455,-0.4
456,-0.6
457,-0.6
458,-0.3
459,-0.3
460,-0.2
461,0.1
462,0.1
463,0.3
464,0.4
465,0.1
466,-0.2
467,-0.1
468,-0.3
469,-0.4
470,-0.4
471,-0.5
472,-0.5
473,-0.2
474,0
475,-0.2
476,-0.1
477,-0.1
478,-0.1
479,-0.2
480,-0.6
481,-0.7
482,-0.1
483,-0.1
484,-0.2
485,-0.2
486,0
487,0.1
488,0.2
489,-0.1
490,-0.3
491,0
492,-0.1
493,-0.3
494,-0.3
495,-0.1
496,-0.2
497,-0.1
498,0
499,0.1
500,-0.1
501,-0.2
502,-0.1
503,0.1
504,-0.3
505,-0.4
506,-0.1
507,0
508,0
509,0.1
510,0.1
511,0.3
512,0.1
513,-0.2
514,0
515,-0.2
516,-0.3
517,0
518,0
519,-0.5
520,-0.2
521,0.1
522,-0.1
523,-0.2
524,-0.2
525,-0.2
526,0
527,0.3
528,0.3
529,0.3
530,0.4
531,0.4
532,0.3
533,0.5
534,0.6
535,0.8
536,0.7
537,0.5
538,0.7
539,1.1
540,0.8
541,0.5
542,0.5
543,0.7
544,0.8
545,0.7
546,0.7
547,0.7
548,0.8
549,1
550,1
551,0.7
552,0.8
553,0.8
554,0.9
555,0.7
556,0.4
557,0.4
558,0.3
559,0.3
560,0.5
561,0.3
562,0
563,-0.4
564,-0.3
565,-0.1
566,0
567,0.1
568,0.1
569,0.2
570,0
571,-0.1
572,0.1
573,0.3
574,0.1
575,0.7
576,0.6
577,0.3
578,0.6
579,0.3
580,0.4
581,0.5
582,0.4
583,0.1
584,-0.3
585,-0.7
586,-0.6
587,0.1
588,0.3
589,0.4
590,0.5
591,0.6
592,0.3
593,0.3
594,0.3
595,0.1
596,0
597,0.5
598,0.3
599,0.3
600,0.3
601,0.4
602,1.1
603,1.8
604,2.6
605,3.5
606,3.3
607,3.4
608,2.8
609,2
610,0.9
611,0.1
612,-1
613,-2.2
614,-3.6
615,-4.6
616,-4.6
617,-4.6
618,-4.8
619,-5.4
620,-5.9
621,-5.9
622,-5.5
623,-6.1
624,-7.3
625,-7.5
626,-8
627,-8.5
628,-8.8
629,-9.5
630,-9.7
631,-9.2
632,-8.2
633,-7.3
634,-6.5
635,-4.5
636,-3.2
637,-2.2
638,-1.9
639,-1.7
640,-1.5
641,-1.3
642,-1
643,-0.9
644,-0.8
645,-0.9
646,-0.8
647,-0.5
648,-0.4
649,-0.2
650,0.1
651,0.4
652,0.5
653,0.1
654,-0.1
655,0.2
656,0
657,0.3
658,0.3
659,0.2
660,0.1
661,0.3
662,0.1
663,0.3
664,0.5
665,0.4
666,0.3
667,0.2
668,0.2
669,0.5
670,0.8
671,0.2
672,0.1
673,0.1
674,0.5
675,0.3
676,-0.1
677,-0.4
678,-0.1
679,0.2
680,0.3
681,0
682,0.1
683,0.1
684,0.2
685,0.2
686,0.3
687,0.3
688,0.2
689,0.1
690,0.1
691,0.1
692,0.1
693,0.2
694,0.3
695,0.2
696,0.2
697,0.1
698,0.1
699,0.2
700,0.5
701,0.4
702,0.1
703,0.1
704,0
705,0.2
706,0.2
707,0.4
708,0.2
709,0.1
710,-0.1
711,-0.2
712,-0.2
713,-0.4
714,-0.1
715,-0.2
716,-0.4
717,-0.1
718,0.2
719,0.2
720,-0.2
721,-0.3
722,-0.4
723,-0.1
724,-0.2
725,-0.2
726,-0.2
727,0
728,-0.1
729,-0.1
730,0.3
731,0.1
732,0
733,0.1
734,-0.1
735,0
736,-0.2
737,-0.3
738,0
739,0
740,-0.3
741,-0.4
742,-0.6
743,-0.8
744,-0.8
745,-0.6
746,-0.8
747,-0.7
748,-0.7
749,-0.7
750,-0.8
751,-0.8
752,-1
753,-1.1
754,-1.1
755,-1
756,-1.1
757,-1.2
758,-1.2
759,-1.2
760,-1.2
761,-1.5
762,-1.2
763,-1.1
764,-1.1
765,-1.3
766,-1.4
767,-1.5
768,-1.4
769,-1.5
770,-1.3
771,-1.2
772,-1.1
773,-1
774,-1.1
775,-1.2
776,-1.2
777,-1.2
778,-1.3
779,-1
780,-0.6
781,-0.3
782,-0.3
783,-0.3
784,-0.5
785,-0.5
786,-0.5
787,-0.3
788,-0.1
789,-0.2
790,-0.4
791,-0.4
792,-0.4
793,0.1
794,0.5
795,-0.2
796,-0.1
797,0
798,0
799,0
800,0.1
801,0.1
802,-0.1
803,0
804,0.1
805,0.1
806,0.1
807,-0.2
808,-0.2
809,-0.2
810,-0.1
811,0.1
812,0
813,0.1
814,-0.1
815,-0.3
816,-0.1
817,-0.2
818,-0.3
819,-0.3
820,-0.3
821,-0.1
822,-0.3
823,-0.2
824,-0.2
825,-0.4
826,-0.5
827,-0.6
828,-0.7
829,-0.6
830,-0.5
831,-0.6
832,-0.7
833,-0.7
834,-0.9
835,-0.8
836,-0.7
837,-0.6
838,-0.5
839,-0.3
840,-0.1
841,-0.2
842,-0.5
843,-0.5
844,-0.5
845,-0.5
846,-0.7
847,-0.5
848,0
849,-0.1
850,-0.4
851,-0.6
852,-0.6
853,-0.7
854,-0.6
855,-0.4
856,-0.7
857,-0.9
858,-1
859,-0.4
860,-0.2
861,-0.3
862,-0.2
863,-0.3
864,-0.5
865,-0.7
866,-0.6
867,-0.2
868,-0.2
869,-0.1
870,-0.1
871,-0.1
872,-0.2
873,-0.3
874,-0.2
875,-0.2
876,-0.4
877,-0.3
878,-0.2
879,-0.5
880,-0.4
881,-0.4
882,-0.3
883,-0.4
884,-0.6
885,-0.6
886,-0.4
887,-0.1
888,0
889,-0.2
890,-0.1
891,0
892,-0.2
893,-0.4
894,-0.4
895,-0.3
896,-0.2
897,0
898,0.2
899,-0.2
900,-0.5
901,-0.4
902,-0.3
903,-0.2
904,-0.2
905,-0.2
906,-0.3
907,-0.5
908,-0.4
909,-0.3
910,-0.1
911,-0.1
912,0.1
913,-0.2
914,-0.2
915,-0.2
916,-0.3
917,-0.5
918,-0.4
919,-0.6
920,-0.8
921,-0.2
922,0
923,-0.5
924,-0.6
925,-0.6
926,-0.3
927,-0.1
928,-0.1
929,-0.2
930,-0.2
931,-0.4
932,-0.4
933,-0.5
934,-0.4
935,-0.1
936,-0.1
937,-0.5
938,-0.8
939,-0.5
940,-0.3
941,-0.2
942,0.1
943,0.1
944,-0.2
945,-0.4
946,-0.5
947,-0.3
948,-0.2
949,-0.3
950,-0.1
951,0.1
952,0.1
953,-0.1
954,0.1
955,-0.1
956,-0.2
957,-0.1
958,-0.2
959,-0.4
960,-0.5
961,-0.3
962,-0.1
963,-0.4
964,-0.5
965,-0.2
966,-0.2
967,-0.1
968,0.1
969,0
970,-0.1
971,-0.2
972,-0.5
973,-0.5
974,-0.3
975,-0.5
976,-0.5
977,-0.1
978,-0.3
979,0
980,0
981,0.2
982,0.3
983,0
984,-0.1
985,-0.3
986,-0.2
987,-0.1
988,-0.1
989,-0.3
990,-0.4
991,-0.2
992,-0.3
993,-0.3
994,0
995,0
996,-0.2
997,0
998,0.2
999,0.2
1000,0
1001,-0.1
1002,0
1003,0
1004,-0.2
1005,-0.5
1006,-0.3
1007,-0.2
1008,0
1009,0.4
1010,-0.2
1011,0
1012,0
1013,-0.1
1014,-0.1
1015,0
1016,0
1017,-0.1
1018,0
1019,0
1020,0.1
1021,-0.2
1022,-0.4
1023,-0.1
1024,0.2
1025,0.3
1026,0.1
1027,0.1
1028,0.3
1029,0.4
1030,0.5
1031,0.5
1032,0.4
1033,0.3
1034,0.3
1035,0.3
1036,0.5
1037,0.5
1038,0.4
1039,0.6
1040,0.5
1041,0.5
1042,0.5
1043,0.3
1044,0.3
1045,0.4
1046,0
1047,-0.4
1048,-0.3
1049,-0.3
1050,0.3
1051,0.3
1052,-0.1
1053,-0.2
1054,-0.2
1055,-0.2
1056,-0.2
1057,-0.3
1058,0
1059,-0.2
1060,-0.2
1061,-0.2
1062,-0.2
1063,-0.5
1064,-0.8
1065,-0.4
1066,-0.1
1067,-0.3
1068,-0.5
1069,-0.4
1070,-0.3
1071,-0.4
1072,-0.9
1073,-0.3
1074,0
1075,-0.2
1076,-0.1
1077,-0.3
1078,-0.6
1079,-0.6
1080,-0.8
1081,-0.7
1082,-0.4
1083,-0.2
1084,-0.6
1085,-0.6
1086,-0.5
1087,-0.4
1088,-0.4
1089,-0.4
1090,-0.5
1091,-0.2
1092,0.1
1093,0.6
1094,1
1095,1.6
1096,2.8
1097,3.4
1098,3
1099,2.2
1100,1.2
1101,0
1102,-1.1
1103,-2.4
1104,-3.3
1105,-4.9
1106,-5.7
1107,-5.6
1108,-5.7
1109,-6.1
1110,-6.5
1111,-7
1112,-7.3
1113,-7.1
1114,-7.6
1115,-8.6
1116,-9.1
1117,-9.4
1118,-9.3
1119,-9.3
1120,-10.1
1121,-10.7
1122,-9.9
1123,-9
1124,-7.6
1125,-6.3
1126,-4.5
1127,-3.2
1128,-2.6
1129,-2.4
1130,-2.4
1131,-2.3
1132,-1.9
1133,-1.9
1134,-1.7
1135,-1.6
1136,-1.2
1137,-0.5
1138,-0.4
1139,-0.6
1140,-0.7
1141,-0.5
1142,-0.4
1143,-0.4
1144,-0.4
1145,-0.6
1146,-0.4
1147,-0.4
1148,-0.6
1149,-0.6
1150,-0.4
1151,-0.1
1152,-0.2
1153,-0.6
1154,-0.3
1155,-0.1
1156,-0.5
1157,-0.8
1158,-0.2
1159,-0.1
1160,-0.3
1161,-0.4
1162,-0.5
1163,-0.7
1164,-0.9
1165,-0.6
1166,-0.3
1167,-0.3
1168,-0.1
1169,-0.6
1170,-0.7
1171,-0.1
1172,-0.1
1173,-0.1
1174,-0.1
1175,-0.6
1176,-0.5
1177,-0.2
1178,-0.2
1179,-0.4
1180,-0.5
1181,-0.4
1182,-0.2
1183,-0.3
1184,-0.3
1185,-0.3
1186,-0.4
1187,-0.4
1188,-0.1
1189,-0.1
1190,-0.2
1191,-0.4
1192,-0.5
1193,-0.5
1194,-0.3
1195,-0.5
1196,-0.5
1197,-0.4
1198,-0.3
1199,-0.2
1200,-0.2
1201,-0.2
1202,-0.4
1203,-0.4
1204,-0.6
1205,-0.3
1206,-0.1
1207,-0.6
1208,-0.6
1209,-0.6
1210,-0.6
1211,-0.7
1212,-0.9
1213,-0.8
1214,-0.8
1215,-0.9
1216,-0.7
1217,-0.6
1218,-0.6
1219,-0.7
1220,-0.7
1221,-0.7
1222,-0.6
1223,-0.6
1224,-0.8
1225,-1
1226,-1.1
1227,-1
1228,-1.3
1229,-1.7
1230,-1.7
1231,-1.6
1232,-1.5
1233,-1.7
1234,-1.9
1235,-2
1236,-1.8
1237,-1.5
1238,-1.8
1239,-2
1240,-1.9
1241,-2.2
1242,-2
1243,-2
1244,-2.1
1245,-2.3
1246,-2.4
1247,-1.8
1248,-1.8
1249,-1.5
1250,-1.8
1251,-2
1252,-2.2
1253,-2.5
1254,-2.5
1255,-2.2
1256,-2.1
1257,-2.2
1258,-2.1
1259,-2.1
1260,-1.9
1261,-2.1
1262,-2.2
1263,-2.1
1264,-2
1265,-2
1266,-1.7
1267,-1.5
1268,-1.4
1269,-1.5
1270,-1.7
1271,-1.8
1272,-1.6
1273,-1.3
1274,-1.1
1275,-1.2
1276,-1.4
1277,-1.2
1278,-1.3
1279,-1.3
1280,-0.9
1281,-0.7
1282,-0.6
1283,-0.6
1284,-0.4
1285,-0.6
1286,-0.7
1287,-0.8
1288,-0.8
1289,-0.3
1290,-0.3
1291,-0.2
1292,0
1293,-0.4
1294,-0.7
1295,-0.6
1296,-0.8
1297,-0.8
1298,-0.7
1299,-0.5
1300,-0.4
1301,-0.5
1302,-0.6
1303,-0.8
1304,-0.5
1305,-0.6
1306,-0.9
1307,-1.1
1308,-1
1309,-1.1
1310,-1.1
1311,-1.2
1312,-1.5
1313,-1.3
1314,-0.8
1315,-0.7
1316,-0.7
1317,-0.6
1318,-0.9
1319,-1.1
1320,-0.9
1321,-0.8
1322,-1.1
1323,-1.3
1324,-1.2
1325,-1.2
1326,-0.9
1327,-1
1328,-1
1329,-1.1
1330,-0.8
1331,-0.7
1332,-1
1333,-1
1334,-1
1335,-1.2
1336,-1.2
1337,-1.2
1338,-1.1
1339,-1.1
1340,-1
1341,-0.9
1342,-1.1
1343,-1.3
1344,-0.9
1345,-1.1
1346,-1.3
1347,-0.9
1348,-1
1349,-1.2
1350,-0.9
1351,-1
1352,-1
1353,-0.9
1354,-0.8
1355,-1
1356,-1.1
1357,-1
1358,-0.7
1359,-0.7
1360,-0.7
1361,-0.6
1362,-0.5
1363,-0.6
1364,-1
1365,-1.1
1366,-1
1367,-1
1368,-1
1369,-0.9
1370,-0.8
1371,-0.9
1372,-1.2
1373,-1.3
1374,-0.6
1375,-0.5
1376,-1.1
1377,-1
1378,-0.7
1379,-0.6
1380,-0.5
1381,-0.6
1382,-0.6
1383,-0.8
1384,-0.6
1385,-0.7
1386,-0.9
1387,-1.2
1388,-1.5
1389,-0.9
1390,-0.9
1391,-0.9
1392,-0.8
1393,-0.9
1394,-0.6
1395,-0.6
1396,-0.8
1397,-0.9
1398,-0.9
1399,-0.5
1400,-0.5
1401,-0.7
1402,-0.6
1403,-0.9
1404,-1.1
1405,-1.1
1406,-0.9
1407,-0.9
1408,-1
1409,-0.9
1410,-1.1
1411,-1
1412,-0.9
1413,-0.6
1414,-0.5
1415,-0.7
1416,-0.7
1417,-0.7
1418,-1
1419,-1.1
1420,-0.8
1421,-1
1422,-1.1
1423,-1.1
1424,-0.9
1425,-0.8
1426,-0.8
1427,-0.9
1428,-0.9
1429,-0.8
1430,-0.6
1431,-0.5
1432,-0.7
1433,-0.8
1434,-1
1435,-0.9
1436,-0.6
1437,-0.6
1438,-0.4
1439,-0.7
1440,-0.8
1441,-0.7
1442,-0.9
1443,-1.4
1444,-1.1
1445,-0.9
1446,-0.9
1447,-0.9
1448,-0.9
1449,-1.1
1450,-0.7
1451,-1.1
1452,-1
1453,-0.7
1454,-0.5
1455,-1.1
1456,-0.9
1457,-0.8
1458,-0.7
1459,-0.8
1460,-1
1461,-0.9
1462,-0.7
1463,-0.8
1464,-0.8
1465,-0.7
1466,-0.7
1467,-1
1468,-0.9
1469,-1.2
1470,-0.7
1471,-0.4
1472,-0.3
1473,-0.1
1474,-0.4
1475,-0.6
1476,-0.6
1477,-0.5
1478,-0.6
1479,-0.8
1480,-0.9
1481,-1.1
1482,-0.9
1483,-0.5
1484,-0.6
1485,-0.5
1486,-0.7
1487,-0.9
1488,-1
1489,-0.8
1490,-0.5
1491,-0.4
1492,-0.2
1493,0
1494,0.1
1495,0
1496,-0.1
1497,-0.2
1498,-0.3
1499,-0.2
1500,-0.3
1501,-0.3
1502,-0.2
1503,-0.2
1504,-0.2
1505,-0.2
1506,0.1
1507,0.2
1508,0
1509,0.1
1510,0.4
1511,0
1512,0
1513,-0.1
1514,-0.1
1515,-0.2
1516,-0.6
1517,-0.5
1518,-0.2
1519,0
1520,0
1521,-0.4
1522,-0.3
1523,-0.5
1524,-0.8
1525,-0.7
1526,-0.6
1527,-0.6
1528,-0.2
1529,0.1
1530,-0.2
1531,-0.4
1532,-0.1
1533,-0.1
1534,-0.4
1535,-0.7
1536,-0.6
1537,-0.6
1538,-0.6
1539,-0.6
1540,-0.6
1541,-0.5
1542,-0.6
1543,-0.8
1544,-0.8
1545,-0.7
1546,-0.6
1547,-0.4
1548,-0.7
1549,-0.8
1550,-0.6
1551,-0.4
1552,-0.5
1553,-0.8
1554,-0.6
1555,-0.6
1556,-1
1557,-0.7
1558,-0.3
1559,-0.5
1560,-0.6
1561,-0.5
1562,-0.4
1563,-0.1
1564,0.7
1565,1.5
1566,2.3
1567,2.6
1568,2.4
1569,1.7
1570,1.2
1571,0.3
1572,-0.5
1573,-1.3
1574,-2.3
1575,-3.5
1576,-4.4
1577,-4.6
1578,-4.6
1579,-4.6
1580,-4.8
1581,-5.4
1582,-5.2
1583,-4.9
1584,-5.6
1585,-7.1
1586,-7.5
1587,-7.9
1588,-7.6
1589,-7.3
1590,-7.9
1591,-8.9
1592,-8.7
1593,-7.6
1594,-6.4
1595,-4.5
1596,-2
1597,-1.3
1598,-1.4
1599,-1.6
1600,-1.6
1601,-1.4
1602,-1.4
1603,-1.4
1604,-1.3
1605,-0.9
1606,-1
1607,-1.2
1608,-1.1
1609,-0.9
1610,-0.7
1611,-0.8
1612,-0.8
1613,-0.9
1614,-0.9
1615,-1
1616,-1.1
1617,-1.2
1618,-1.2
1619,-0.8
1620,-0.5
1621,-0.5
1622,-0.7
1623,-0.8
1624,-0.7
1625,-0.6
1626,-0.5
1627,-0.7
1628,-0.4
1629,-0.5
1630,-0.6
1631,-0.4
1632,-0.3
1633,-0.2
1634,-0.4
1635,-0.3
1636,-0.3
1637,-0.3
1638,-0.3
1639,-0.4
1640,-0.5
1641,-0.4
1642,-0.4
1643,-0.5
1644,-0.6
1645,-0.8
1646,-1
1647,-0.9
1648,-0.5
1649,-0.2
1650,-0.4
1651,-0.2
1652,-0.5
1653,-0.9
1654,-1
1655,-1.1
1656,-1
1657,-1.1
1658,-1
1659,-0.8
1660,-0.6
1661,-0.8
1662,-0.9
1663,-1
1664,-0.4
1665,-0.5
1666,-0.7
1667,-0.7
1668,-0.7
1669,-0.5
1670,-0.8
1671,-0.5
1672,-0.4
1673,-0.5
1674,-0.4
1675,-0.6
1676,-0.7
1677,-0.7
1678,-0.8
1679,-0.4
1680,-0.8
1681,-0.8
1682,-0.8
1683,-0.7
1684,-0.6
1685,-0.9
1686,-1
1687,-1
1688,-1
1689,-0.5
1690,-0.6
1691,-0.7
1692,-1.1
1693,-1.2
1694,-1.4
1695,-1.6
1696,-1.8
1697,-1.4
1698,-1.6
1699,-1.8
1700,-1.6
1701,-1.4
1702,-1.3
1703,-1.8
1704,-1.9
1705,-1.8
1706,-1.8
1707,-1.9
1708,-1.5
1709,-1.7
1710,-1.7
1711,-1.7
1712,-1.7
1713,-2.1
1714,-2.1
1715,-1.6
1716,-1.8
1717,-2.1
1718,-1.6
1719,-1.6
1720,-1.6
1721,-1.8
1722,-2.2
1723,-2.2
1724,-2.4
1725,-1.9
1726,-2
1727,-2
1728,-2
1729,-1.8
1730,-1.7
1731,-2
1732,-2.2
1733,-1.9
1734,-1.9
1735,-1.7
1736,-1.6
1737,-1.1
1738,-1.2
1739,-1.5
1740,-1.3
1741,-0.9
1742,-1.1
1743,-1.3
1744,-1.4
1745,-0.9
1746,-0.5
1747,-0.8
1748,-0.8
1749,-0.5
1750,-0.4
1751,-0.2
1752,-0.6
1753,-0.9
1754,-0.8
1755,-0.4
1756,-0.4
1757,-0.8
1758,-0.6
1759,-0.4
1760,-0.6
1761,-0.7
1762,-0.6
1763,-0.3
1764,-0.6
1765,-0.5
1766,-0.6
1767,-0.6
1768,-0.6
1769,-0.6
1770,-0.9
1771,-1
1772,-1.1
1773,-1.2
1774,-1.3
1775,-1.1
1776,-1.1
1777,-1.1
1778,-1
1779,-0.6
1780,-0.8
1781,-0.8
1782,-0.7
1783,-0.5
1784,-0.9
1785,-1.1
1786,-1.1
1787,-0.9
1788,-0.8
1789,-0.4
1790,-0.4
1791,-0.4
1792,-0.7
1793,-0.7
1794,-0.7
1795,-0.7
1796,-0.6
1797,-0.5
1798,-0.6
1799,-0.7
1800,-0.5
1801,-0.6
1802,-0.6
1803,-0.7
1804,-0.5
1805,-0.9
1806,-1.1
1807,-1.3
1808,-1.2
1809,-0.8
1810,-0.9
1811,-0.8
1812,-0.5
1813,-0.8
1814,-1
1815,-0.9
1816,-0.9
1817,-0.8
1818,-0.4
1819,-0.5
1820,-0.7
1821,-0.7
1822,-0.6
1823,-0.6
1824,-0.7
1825,-0.8
1826,-0.7
1827,-0.4
1828,-0.4
1829,-0.3
1830,-0.3
1831,-0.5
1832,-0.7
1833,-0.8
1834,-0.9
1835,-0.9
1836,-0.7
1837,-0.9
1838,-0.7
1839,-0.3
1840,-0.6
1841,-0.6
1842,-0.2
1843,-0.6
1844,-0.6
1845,-0.6
1846,-0.4
1847,-0.5
1848,-1
1849,-0.5
1850,-0.3
1851,-0.3
1852,-0.5
1853,-0.3
1854,-0.4
1855,-0.4
1856,-0.2
1857,-0.2
1858,-0.2
1859,-0.1
1860,-0.6
1861,-0.9
1862,-0.3
1863,-0.1
1864,-0.4
1865,-0.7
1866,-0.6
1867,-0.5
1868,-0.4
1869,-0.7
1870,-0.6
1871,-0.4
1872,-0.5
1873,-0.3
1874,-0.4
1875,-0.4
1876,-0.4
1877,-0.4
1878,-0.5
1879,-0.2
1880,0
1881,-0.3
1882,-0.3
1883,-0.2
1884,-0.2
1885,-0.2
1886,-0.2
1887,-0.4
1888,-0.5
1889,-0.4
1890,-0.4
1891,-0.5
1892,-0.3
1893,-0.2
1894,-0.4
1895,-0.5
1896,-0.3
1897,0
1898,-0.2
1899,-0.5
1900,-0.4
1901,-0.3
1902,-0.5
1903,-0.6
1904,-0.6
1905,-0.4
1906,-0.3
1907,-0.6
1908,-0.5
1909,-0.5
1910,-0.7
1911,-0.7
1912,-0.3
1913,-0.1
1914,0
1915,-0.3
1916,-0.2
1917,-0.3
1918,-0.3
1919,-0.1
1920,-0.1
1921,-0.4
1922,-0.5
1923,-0.7
1924,-0.1
1925,-0.3
1926,-0.2
1927,-0.4
1928,-0.5
1929,-0.4
1930,-0.4
1931,-0.4
1932,-0.6
1933,-0.4
1934,0.1
1935,-0.4
1936,-0.5
1937,-0.2
1938,0.2
1939,0
1940,-0.2
1941,-0.3
1942,-0.5
1943,-0.7
1944,-0.7
1945,-0.6
1946,-0.4
1947,-0.3
1948,-0.3
1949,-0.2
1950,-0.3
1951,-0.1
1952,0.2
1953,0.1
1954,-0.1
1955,-0.4
1956,-0.2
1957,-0.2
1958,-0.4
1959,-0.4
1960,-0.1
1961,0
1962,-0.3
1963,-0.2
1964,0.7
1965,0.3
1966,0.1
1967,0.3
1968,0.1
1969,-0.1
1970,0.1
1971,0.3
1972,0.2
1973,0.2
1974,0.2
1975,0.2
1976,0.4
1977,0.3
1978,0.1
1979,0.2
1980,0
1981,0
1982,-0.1
1983,-0.3
1984,0
1985,0.1
1986,0.2
1987,0.2
1988,0.1
1989,-0.1
1990,-0.3
1991,-0.3
1992,-0.4
1993,-0.4
1994,-0.5
1995,-0.5
1996,-0.4
1997,-0.1
1998,-0.5
1999,-0.6
2000,-0.5
2001,-0.7
2002,-0.5
2003,0.2
2004,0.3
2005,-0.2
2006,-0.2
2007,0
2008,-0.4
2009,-0.6
2010,-0.4
2011,-0.5
2012,-0.7
2013,-1
2014,-0.7
2015,-0.4
2016,-0.2
2017,-0.5
2018,-0.4
2019,-0.2
2020,-0.5
2021,-0.4
2022,0.1
2023,0.1
2024,-0.5
2025,-0.6
2026,-0.6
2027,-0.5
2028,-0.2
2029,0
2030,0.6
2031,1.3
2032,2
2033,2.6
2034,3
2035,2.5
2036,2.1
2037,1.3
2038,0.4
2039,-0.3
2040,-1.3
2041,-2.5
2042,-3.8
2043,-4.7
2044,-4.8
2045,-4.8
2046,-4.7
2047,-5
2048,-5.7
2049,-5.9
2050,-5.5
2051,-6
2052,-7.4
2053,-8
2054,-8.1
2055,-8.3
2056,-8.4
2057,-9.2
2058,-9.7
2059,-9.5
2060,-8.8
2061,-7.6
2062,-6
2063,-3.8
2064,-2.5
2065,-2.1
2066,-2.1
2067,-2
2068,-1.7
2069,-1.2
2070,-1.3
2071,-1.3
2072,-1.2
2073,-1
2074,-0.8
2075,-0.7
2076,-0.8
2077,-0.9
2078,-0.7
2079,-0.7
2080,-0.5
2081,-0.4
2082,-0.4
2083,-0.4
2084,-0.4
2085,-0.4
2086,-0.3
2087,-0.1
2088,-0.1
2089,-0.3
2090,-0.5
2091,-0.4
2092,-0.3
2093,-0.1
2094,-0.2
2095,-0.3
2096,-0.3
2097,-0.4
2098,-0.4
2099,-0.3
2100,-0.3
2101,-0.2
2102,-0.3
2103,-0.5
2104,-0.3
2105,-0.5
2106,-0.7
2107,-0.5
2108,-0.6
2109,-0.6
2110,-0.3
2111,0.1
2112,-0.1
2113,-0.4
2114,-0.5
2115,-0.7
2116,-0.9
2117,-0.2
2118,0
2119,-0.2
2120,0
2121,-0.2
2122,-0.4
2123,-0.2
2124,-0.1
2125,-0.4
2126,-0.7
2127,-0.4
2128,-0.2
2129,0
2130,-0.2
2131,-0.3
2132,-0.4
2133,-0.4
2134,-0.6
2135,-0.4
2136,-0.3
2137,-0.8
2138,-0.7
2139,-0.6
2140,-0.8
2141,-0.7
2142,-0.6
2143,-0.6
2144,-0.6
2145,-0.7
2146,-0.7
2147,-0.6
2148,-0.7
2149,-0.7
2150,-0.5
2151,-0.6
2152,-1
2153,-0.7
2154,-0.5
2155,-0.5
2156,-0.7
2157,-0.9
2158,-1.3
2159,-1.2
2160,-1
2161,-1
2162,-1
2163,-0.9
2164,-1.1
2165,-1.1
2166,-1.1
2167,-1.2
2168,-1.1
2169,-0.9
2170,-0.9
2171,-1.2
2172,-1.2
2173,-1.2
2174,-1.5
2175,-1.3
2176,-1.2
2177,-1.2
2178,-1.2
2179,-1.5
2180,-1.4
2181,-1.4
2182,-1.2
2183,-1.4
2184,-1.5
2185,-1.7
2186,-1.8
2187,-1.8
2188,-1.8
2189,-1.7
2190,-2.3
2191,-2
2192,-2
2193,-1.9
2194,-1.9
2195,-2
2196,-2.2
2197,-2.1
2198,-1.9
2199,-1.9
2200,-1.6
2201,-1.4
2202,-1.9
2203,-1.9
2204,-1.6
2205,-1.2
2206,-1.1
2207,-1.1
2208,-1.1
2209,-1.1
2210,-0.9
2211,-0.9
2212,-0.9
2213,-0.9
2214,-0.6
2215,-0.6
2216,-0.5
2217,-0.3
2218,-0.4
2219,-0.4
2220,-0.3
2221,-0.2
2222,-0.4
2223,-0.5
2224,-0.6
2225,-1
2226,-0.9
2227,-0.6
2228,-0.7
2229,-0.5
2230,-0.5
2231,-0.7
2232,-0.8
2233,-0.8
2234,-0.5
2235,-0.7
2236,-0.3
2237,-0.6
2238,-0.6
2239,-0.7
2240,-0.7
2241,-0.6
2242,-0.6
2243,-0.5
2244,-0.6
2245,-0.6
2246,-0.9
2247,-1
2248,-0.9
2249,-0.6
2250,-0.5
2251,-0.5
2252,-0.9
2253,-0.9
2254,-0.8
2255,-0.7
2256,-0.6
2257,-0.7
2258,-1.3
2259,-1.2
2260,-1.2
2261,-0.8
2262,-0.7
2263,-0.8
2264,-0.9
2265,-1
2266,-1
2267,-1
2268,-0.9
2269,-0.4
2270,-0.5
2271,-0.6
2272,-0.4
2273,-0.5
2274,-0.6
2275,-0.8
2276,-0.9
2277,-0.7
2278,-0.5
2279,-0.7
2280,-0.7
2281,-0.9
2282,-0.8
2283,-0.6
2284,-0.7
2285,-0.9
2286,-0.9
2287,-1
2288,-0.7
2289,-0.3
2290,-0.5
2291,-0.5
2292,-0.4
2293,-0.8
2294,-0.6
2295,-0.4
2296,-0.2
2297,-0.3
2298,-0.5
2299,-0.6
2300,-0.6
2301,-0.4
2302,-0.2
2303,-0.3
2304,-0.4
2305,-0.4
2306,-0.4
2307,-0.6
2308,-0.6
2309,-0.3
2310,-0.3
2311,-0.4
2312,-0.3
2313,-0.4
2314,-0.7
2315,-0.4
2316,-0.5
2317,-0.7
2318,-0.7
2319,-0.5
2320,-0.5
2321,-0.7
2322,-0.7
2323,-0.5
2324,-0.3
2325,-0.4
2326,-0.4
2327,-0.4
2328,-0.5
2329,-0.3
2330,-0.2
2331,-0.4
2332,-0.4
2333,-0.4
2334,-0.7
2335,-0.7
2336,-0.2
2337,-0.5
2338,-0.6
2339,-0.4
2340,-0.3
2341,-0.4
2342,-0.6
2343,-0.8
2344,-0.5
2345,-0.6
2346,-0.4
2347,-0.4
2348,-0.6
2349,-0.7
2350,-0.5
2351,-0.7
2352,-0.9
2353,-0.7
2354,-0.6
2355,-0.4
2356,0
2357,0.1
2358,-0.5
2359,-0.9
2360,-0.5
2361,-0.3
2362,-0.4
2363,0
2364,0.1
2365,-0.1
2366,-0.4
2367,-0.4
2368,-0.6
2369,-0.6
2370,-0.3
2371,-0.3
2372,-0.6
2373,-0.7
2374,-0.6
2375,-0.6
2376,-0.9
2377,-0.8
2378,-0.5
2379,-0.2
2380,-0.4
2381,-0.6
2382,-0.6
2383,-0.5
2384,-0.6
2385,-0.7
2386,-0.8
2387,-0.6
2388,-0.5
2389,-0.3
2390,-0.1
2391,-0.2
2392,-0.2
2393,-0.3
2394,-0.3
2395,-0.2
2396,-0.3
2397,-0.3
2398,-0.4
2399,-0.7
2400,-0.6
2401,-0.7
2402,-0.4
2403,-0.6
2404,-0.5
2405,-0.3
2406,-0.5
2407,-0.2
2408,-0.2
2409,-0.3
2410,-0.3
2411,0
2412,0.3
2413,-0.3
2414,-0.5
2415,-0.9
2416,-0.8
2417,-0.9
2418,-1
2419,-0.6
2420,-0.4
2421,0
2422,0.1
2423,-0.4
2424,-0.5
2425,-0.4
2426,-0.1
2427,-0.1
2428,-0.6
2429,-0.6
2430,-0.7
2431,-0.8
2432,-0.7
2433,-0.4
2434,-0.4
2435,-0.2
2436,-0.2
2437,-0.5
2438,-0.7
2439,-0.5
2440,-0.3
2441,-0.3
2442,-0.3
2443,-0.3
2444,-0.1
2445,-0.1
2446,-0.3
2447,-0.1
2448,-0.1
2449,0
2450,0
2451,0
2452,-0.2
2453,-0.2
2454,0.1
2455,0.3
2456,0.1
2457,0
2458,0.1
2459,0.3
2460,0.6
2461,0.7
2462,0.9
2463,0.5
2464,0.2
2465,-0.1
2466,-0.2
2467,-0.1
2468,0.1
2469,0.2
2470,0.3
2471,0.3
2472,0.2
2473,0.1
2474,-0.2
2475,-0.3
2476,-0.2
2477,-0.4
2478,-0.7
2479,-0.7
2480,-0.3
2481,-0.2
2482,-0.4
2483,-0.8
2484,-0.6
2485,-0.2
2486,-0.2
2487,-0.5
2488,-0.2
2489,0
2490,0
2491,-0.3
2492,-0.2
2493,-0.5
2494,-0.8
2495,-0.7
2496,-0.6
2497,-0.5
2498,-0.3
2499,0
2500,-0.5
2501,-0.5
2502,-0.4
2503,-0.2
2504,-0.2
2505,-0.3
2506,-0.3
2507,-0.3
2508,-0.5
2509,-0.5
2510,-0.4
2511,-0.4
2512,-0.4
2513,-0.4
2514,0
2515,1
2516,1.7
2517,2.6
2518,2.9
2519,2.6
2520,2.3
2521,1.4
2522,0.2
2523,-0.9
2524,-1.8
2525,-3
2526,-4.2
2527,-5.2
2528,-5.2
2529,-5.3
2530,-5.4
2531,-5.4
2532,-6
2533,-6.2
2534,-6.3
2535,-6.5
2536,-8.2
2537,-8.8
2538,-8.7
2539,-8.9
2540,-9.2
2541,-9.9
2542,-10.5
2543,-10
2544,-9.2
2545,-8.6
2546,-7.4
2547,-5.9
2548,-4
2549,-3
2550,-2.9
2551,-2.8
2552,-2.4
2553,-2
2554,-1.7
2555,-1.8
2556,-1.4
2557,-1.2
2558,-1.2
2559,-0.7
2560,-0.7
2561,-0.9
2562,-0.6
2563,-0.8
2564,-1
2565,-0.7
2566,-0.7
2567,-0.6
2568,-0.2
2569,-0.2
2570,-0.2
2571,-0.2
2572,-0.5
2573,-0.6
2574,-0.4
2575,-0.3
2576,0
2577,-0.2
2578,-0.1
2579,0
2580,-0.3
2581,-0.3
2582,-0.3
2583,-0.4
2584,-0.6
2585,-0.4
2586,-0.2
2587,-0.2
2588,-0.3
2589,-0.5
2590,-0.3
2591,-0.3
2592,-0.1
2593,-0.3
2594,-0.2
2595,-0.2
2596,-0.1
2597,0
2598,-0.2
2599,-0.2
2600,0.1
2601,0.1
2602,-0.1
2603,0
2604,-0.1
2605,-0.2
2606,-0.3
2607,-0.4
2608,-0.3
2609,-0.1
2610,-0.2
2611,-0.4
2612,-0.4
2613,-0.1
2614,-0.1
2615,-0.4
2616,-0.4
2617,-0.1
2618,-0.2
2619,-0.3
2620,-0.5
2621,-0.4
2622,-0.2
2623,-0.2
2624,0.2
2625,-0.3
2626,-0.5
2627,-0.4
2628,-0.5
2629,-0.3
2630,-0.6
2631,-0.3
2632,-0.1
2633,0
2634,-0.2
2635,-0.5
2636,-0.5
2637,-0.5
2638,-0.7
2639,-0.5
2640,-0.3
2641,-0.2
2642,-0.1
2643,0
2644,0.1
2645,-0.1
2646,-0.3
2647,-0.4
2648,-0.7
2649,-0.1
2650,0.2
2651,-0.4
2652,-0.5
2653,-0.7
2654,-1
2655,-1.2
2656,-1.2
2657,-0.7
2658,-0.9
2659,-1
2660,-0.9
2661,-1
2662,-1.1
2663,-0.8
2664,-0.8
2665,-1.1
2666,-1
2667,-1
2668,-0.9
2669,-0.9
2670,-0.8
2671,-0.8
2672,-1.1
2673,-1.2
2674,-1
2675,-1.1
2676,-1.3
2677,-1.2
2678,-1
2679,-1
2680,-1
2681,-1.2
2682,-1.5
2683,-1.4
2684,-1.2
2685,-0.9
2686,-0.8
2687,-1
2688,-1.1
2689,-1.2
2690,-1
2691,-1
2692,-0.9
2693,-1
2694,-1.1
2695,-0.9
2696,-0.8
2697,-0.7
2698,-0.4
2699,-0.1
2700,0.3
2701,-0.1
2702,-0.5
2703,-0.3
2704,-0.2
2705,-0.2
2706,0.1
2707,-0.1
2708,0.1
2709,0
2710,0.1
2711,0
2712,-0.1
2713,-0.1
2714,0
2715,0
2716,-0.3
2717,-0.1
2718,0
2719,0
2720,0
2721,0
2722,-0.1
2723,0.1
2724,-0.1
2725,-0.4
2726,0
2727,0
2728,-0.1
2729,-0.1
2730,-0.2
2731,-0.3
2732,-0.2
2733,-0.4
2734,-0.2
2735,0.1
2736,0.1
2737,-0.1
2738,-0.1
2739,-0.3
2740,-0.3
2741,-0.4
2742,-0.5
2743,-0.5
2744,-0.5
2745,-0.6
2746,-0.3
2747,-0.1
2748,-0.2
2749,-0.2
2750,-0.1
2751,0
2752,0.1
2753,0.2
2754,0
2755,-0.3
2756,-0.1
2757,0
2758,0
2759,0
2760,0.1
2761,0.3
2762,-0.3
2763,-0.3
2764,-0.1
2765,0.1
2766,0.2
2767,0
2768,-0.3
2769,-0.3
2770,0
2771,0.1
2772,0
2773,-0.1
2774,-0.1
2775,-0.1
2776,0
2777,0
2778,0.1
2779,0
2780,0.2
2781,0
2782,-0.6
2783,-0.3
2784,0
2785,0.1
2786,0.1
2787,0.3
2788,0.1
2789,0.2
2790,0.3
2791,0.2
2792,0.1
2793,0.1
2794,0.3
2795,0.5
2796,0
2797,0
2798,0.2
2799,0.1
2800,-0.1
2801,0
2802,0.2
2803,0.3
2804,0.1
2805,0.3
2806,0.4
2807,0
2808,0
2809,0.3
2810,0.2
2811,0.2
2812,0.4
2813,0.5
2814,0.4
2815,0.1
2816,0.3
2817,0.6
2818,0.4
2819,0
2820,-0.1
2821,0.1
2822,0.3
2823,0.3
2824,-0.3
2825,-0.5
2826,-0.4
2827,0.2
2828,0.2
2829,0.1
2830,-0.1
2831,-0.1
2832,-0.1
2833,0.2
2834,0.4
2835,0.3
2836,0.4
2837,0.3
2838,0
2839,-0.2
2840,-0.3
2841,-0.2
2842,-0.1
2843,0.3
2844,0.3
2845,0.1
2846,0
2847,0
2848,-0.4
2849,-0.2
2850,0.1
2851,0.2
2852,0
2853,0
2854,0.1
2855,-0.1
2856,-0.4
2857,-0.1
2858,0.3
2859,0.3
2860,0.1
2861,0.1
2862,0.2
2863,0.3
2864,0.1
2865,0
2866,0
2867,0
2868,0.2
2869,0
2870,0.2
2871,0
2872,0.3
2873,0.5
2874,0.3
2875,0.1
2876,0.1
2877,-0.3
2878,-0.2
2879,0.2
2880,0
2881,-0.2
2882,-0.1
2883,0
2884,0.2
2885,0.2
2886,0.1
2887,-0.1
2888,-0.5
2889,-0.4
2890,0.2
2891,0.4
2892,0.4
2893,0.3
2894,0.1
2895,0.1
2896,0.1
2897,-0.1
2898,0.1
2899,0.1
2900,0.4
2901,0.1
2902,-0.3
2903,-0.1
2904,0.2
2905,0.3
2906,0.2
2907,0.2
2908,0.4
2909,0.4
2910,0.5
2911,0.5
2912,0.3
2913,0.1
2914,0.1
2915,0
2916,0.1
2917,0.4
2918,0.3
2919,0.2
2920,0.2
2921,0.4
2922,0.2
2923,-0.1
2924,-0.2
2925,-0.3
2926,-0.3
2927,0
2928,0.4
2929,0.6
2930,0.5
2931,0.5
2932,0.5
2933,0.5
2934,0.5
2935,0.8
2936,0.9
2937,0.6
2938,0.5
2939,0.3
2940,0.4
2941,0.9
2942,1.1
2943,0.7
2944,0.2
2945,0.5
2946,0.5
2947,0.3
2948,0.2
2949,0.5
2950,0.3
2951,0.2
2952,0
2953,-0.2
2954,0.2
2955,0.3
2956,0.4
2957,0.3
2958,0.2
2959,-0.2
2960,-0.5
2961,-0.4
2962,-0.2
2963,-0.1
2964,-0.2
2965,-0.4
2966,-0.3
2967,-0.3
2968,-0.3
2969,-0.5
2970,-0.5
2971,-0.6
2972,-0.5
2973,-0.4
2974,0.2
2975,0.1
2976,0.2
2977,0.1
2978,-0.1
2979,-0.2
2980,-0.1
2981,-0.1
2982,-0.6
2983,-0.3
2984,-0.1
2985,-0.4
2986,-0.4
2987,-0.2
2988,0
2989,-0.1
2990,-0.3
2991,-0.4
2992,-0.5
2993,-0.4
2994,-0.7
2995,-0.6
2996,-0.5
2997,-0.6
2998,-0.3
2999,0.1
3000,0.6
3001,1.1
3002,1.9
3003,2.4
3004,3.1
3005,3.1
3006,2.6
3007,1.6
3008,0.4
3009,-0.9
3010,-1.4
3011,-2.4
3012,-3.7
3013,-5.2
3014,-5.8
3015,-5.7
3016,-5.7
3017,-5.7
3018,-6.4
3019,-6.8
3020,-6.8
3021,-6.9
3022,-8.2
3023,-9.2
3024,-8.8
3025,-9.4
3026,-9.6
3027,-9.8
3028,-10.4
3029,-10.4
3030,-9.6
3031,-8.4
3032,-7.1
3033,-5.6
3034,-3.6
3035,-2.6
3036,-2.3
3037,-2.4
3038,-2.2
3039,-1.6
3040,-1.8
3041,-1.5
3042,-1.4
3043,-1.1
3044,-0.8
3045,-0.6
3046,-0.6
3047,-0.7
3048,-0.9
3049,-0.9
3050,-0.6
3051,-0.4
3052,-0.2
3053,-0.4
3054,-0.7
3055,-0.3
3056,0
3057,-0.1
3058,0
3059,-0.1
3060,-0.3
3061,-0.3
3062,-0.4
3063,-0.2
3064,-0.3
3065,-0.5
3066,-0.5
3067,-0.3
3068,0.3
3069,0.1
3070,-0.2
3071,0
3072,-0.1
3073,-0.2
3074,-0.3
3075,-0.1
3076,-0.3
3077,-0.2
3078,-0.3
3079,-0.2
3080,-0.2
3081,-0.2
3082,-0.2
3083,-0.4
3084,-0.2
3085,-0.1
3086,-0.4
3087,-0.2
3088,0
3089,0
3090,-0.2
3091,0
3092,-0.2
3093,-0.4
3094,-0.4
3095,-0.3
3096,-0.2
3097,0
3098,-0.2
3099,-0.3
3100,-0.3
3101,-0.4
3102,-0.6
3103,-0.5
3104,-0.2
3105,0
3106,-0.2
3107,-0.4
3108,-0.4
3109,-0.6
3110,-0.5
3111,-0.4
3112,-0.3
3113,-0.4
3114,-0.2
3115,-0.4
3116,-0.1
3117,-0.3
3118,-0.4
3119,-0.8
3120,-0.7
3121,-0.6
3122,-0.5
3123,-0.4
3124,-0.6
3125,-0.5
3126,-1
3127,-0.8
3128,-1.1
3129,-0.9
3130,-0.9
3131,-1.2
3132,-1.1
3133,-0.9
3134,-1.1
3135,-1
3136,-1
3137,-1.1
3138,-1.2
3139,-1.1
3140,-0.9
3141,-0.9
3142,-0.8
3143,-0.7
3144,-0.8
3145,-1.2
3146,-1.5
3147,-1.8
3148,-1.9
3149,-2
3150,-2
3151,-1.9
3152,-1.7
3153,-1.8
3154,-1.8
3155,-2
3156,-2.4
3157,-2.3
3158,-1.9
3159,-1.9
3160,-2.1
3161,-2.2
3162,-2.3
3163,-2.3
3164,-2.1
3165,-2.2
3166,-2.4
3167,-2.3
3168,-2.3
3169,-2.1
3170,-1.9
3171,-1.7
3172,-2.1
3173,-2.1
3174,-1.9
3175,-1.7
3176,-1.6
3177,-1.5
3178,-1.4
3179,-1.2
3180,-1.2
3181,-0.8
3182,-0.6
3183,-0.5
3184,-0.3
3185,-0.7
3186,-1.2
3187,-1
3188,-0.8
3189,-0.7
3190,-0.4
3191,-0.3
3192,-0.3
3193,-0.5
3194,-0.4
3195,-0.5
3196,-0.6
3197,-0.3
3198,-0.1
3199,-0.1
3200,-0.4
3201,-0.1
3202,0.2
3203,0.1
3204,-0.2
3205,-0.4
3206,-0.4
3207,-0.7
3208,-0.4
3209,-0.4
3210,-0.3
3211,-0.3
3212,-0.3
3213,-0.5
3214,-0.4
3215,-0.2
3216,-0.2
3217,-0.6
3218,-0.6
3219,-0.5
3220,-0.4
3221,-0.4
3222,-0.5
3223,-0.6
3224,-0.7
3225,-0.7
3226,-0.5
3227,-0.9
3228,-0.8
3229,-0.4
3230,-0.2
3231,-0.3
3232,-0.4
3233,-0.5
3234,-0.7
3235,-0.6
3236,-0.5
3237,-0.4
3238,-0.3
3239,-0.3
3240,-0.2
3241,-0.5
3242,-0.7
3243,-1
3244,-0.6
3245,-0.4
3246,-0.3
3247,-0.5
3248,-0.6
3249,-0.9
3250,-0.6
3251,-0.2
3252,-0.4
3253,-0.3
3254,-0.3
3255,-0.5
3256,-0.6
3257,-0.6
3258,-0.3
3259,-0.4
3260,-0.8
3261,-0.5
3262,0.1
3263,0
3264,-0.3
3265,-0.8
3266,-0.9
3267,-0.8
3268,-0.8
3269,-0.7
3270,-0.4
3271,-0.1
3272,0
3273,0.2
3274,0
3275,-0.2
3276,-0.4
3277,-0.3
3278,0.3
3279,0
3280,-0.1
3281,-0.4
3282,-0.3
3283,-0.1
3284,-0.2
3285,-0.3
3286,-0.3
3287,-0.2
3288,-0.2
3289,-0.4
3290,0.1
3291,0
3292,-0.4
3293,-0.4
3294,-0.1
3295,-0.1
3296,-0.2
3297,-0.3
3298,-0.2
3299,-0.5
3300,-0.6
3301,-0.4
3302,0.2
3303,0
3304,-0.5
3305,-0.5
3306,-0.7
3307,-0.3
3308,0.1
3309,0.1
3310,0.1
3311,0
3312,-0.6
3313,-0.6
3314,-0.4
3315,-0.3
3316,-0.4
3317,-0.2
3318,0.2
3319,0.1
3320,-0.1
3321,0.1
3322,-0.1
3323,-0.2
3324,-0.5
3325,-0.6
3326,-0.5
3327,-0.4
3328,-0.6
3329,-0.6
3330,-0.4
3331,-0.3
3332,-0.1
3333,-0.3
3334,-0.3
3335,-0.3
3336,-0.7
3337,-0.3
3338,0
3339,0
3340,-0.2
3341,-0.1
3342,-0.2
3343,0
3344,0
3345,-0.1
3346,-0.5
3347,-0.5
3348,-0.6
3349,-0.7
3350,-0.3
3351,-0.3
3352,-0.4
3353,-0.3
3354,0
3355,-0.2
3356,-0.6
3357,-0.7
3358,-0.1
3359,0
3360,-0.1
3361,-0.3
3362,-0.5
3363,-0.5
3364,-0.2
3365,-0.2
3366,-0.2
3367,-0.3
3368,-0.4
3369,-0.6
3370,-0.7
3371,-0.9
3372,-0.6
3373,-0.1
3374,-0.5
3375,-0.6
3376,-0.3
3377,-0.2
3378,-0.3
3379,-0.1
3380,-0.2
3381,-0.2
3382,-0.4
3383,-0.2
3384,0
3385,-0.1
3386,-0.3
3387,-0.5
3388,-0.5
3389,-0.5
3390,-0.4
3391,-0.4
3392,-0.7
3393,-0.4
3394,-0.5
3395,-0.6
3396,-0.3
3397,-0.2
3398,-0.1
3399,-0.2
3400,-0.2
3401,0.1
3402,0.2
3403,0.2
3404,-0.1
3405,-0.3
3406,-0.2
3407,0
3408,0
3409,0.2
3410,0.2
3411,0.3
3412,0.4
3413,0.4
3414,0.6
3415,0.1
3416,0.1
3417,0.4
3418,0.4
3419,0.4
3420,0.3
3421,-0.1
3422,0
3423,0.2
3424,0.1
3425,-0.1
3426,-0.3
3427,-0.5
3428,-0.4
3429,-0.4
3430,-0.3
3431,-0.1
3432,-0.1
3433,-0.2
3434,-0.1
3435,-0.3
3436,-0.3
3437,-0.4
3438,-0.4
3439,-0.4
3440,-0.3
3441,-0.5
3442,-0.3
3443,-0.3
3444,-0.4
3445,-0.7
3446,-0.7
3447,-0.4
3448,-0.4
3449,-0.6
3450,-0.6
3451,-0.3
3452,-0.4
3453,-0.7
3454,-0.9
3455,-0.7
3456,-0.5
3457,-0.6
3458,-0.6
3459,-0.7
3460,-0.5
3461,-0.2
3462,-0.3
3463,-0.4
3464,-0.5
3465,-0.7
3466,-0.3
3467,0.4
3468,1.5
3469,2.2
3470,2.7
3471,2.8
3472,2.2
3473,1.4
3474,0.6
3475,-0.3
3476,-1.4
3477,-2.2
3478,-2.7
3479,-4
3480,-4.5
3481,-4.4
3482,-4.2
3483,-4.1
3484,-4.4
3485,-4.8
3486,-4.4
3487,-4.7
3488,-6.4
3489,-7.3
3490,-7.5
3491,-7.8
3492,-7.6
3493,-8
3494,-9.2
3495,-9.6
3496,-8.9
3497,-7.4
3498,-5.4
3499,-2.9
3500,-1.2
3501,-0.6
3502,-0.9
3503,-1.3
3504,-1.4
3505,-1.5
3506,-1.4
3507,-1.4
3508,-1.4
3509,-1.4
3510,-1.4
3511,-1
3512,-1.3
3513,-1.1
3514,-0.8
3515,-0.9
3516,-0.8
3517,-0.7
3518,-0.9
3519,-1.1
3520,-0.9
3521,-0.7
3522,-0.6
3523,-0.7
3524,-0.5
3525,-0.2
3526,-0.4
3527,-0.4
3528,-0.3
3529,-0.4
3530,-0.4
3531,-0.7
3532,-0.8
3533,-0.9
3534,-0.8
3535,-0.6
3536,-0.7
3537,-0.5
3538,-0.5
3539,-0.7
3540,-0.3
3541,0
3542,-0.1
3543,0
3544,-0.6
3545,-0.6
3546,-0.4
3547,-0.5
3548,-0.4
3549,-0.3
3550,-0.3
3551,-0.5
3552,-0.5
3553,-0.4
3554,-0.5
3555,-0.4
3556,-0.5
3557,-0.4
3558,-0.7
3559,-0.8
3560,-0.7
3561,-0.7
3562,-0.3
3563,-0.1
3564,-0.1
3565,-0.1
3566,-0.4
3567,-0.5
3568,-1.2
3569,-0.9
3570,-0.7
3571,-0.6
3572,-0.7
3573,-0.8
3574,-0.9
3575,-0.6
3576,-0.5
3577,-0.7
3578,-1.2
3579,-0.7
3580,-0.5
3581,-0.6
3582,-0.7
3583,-0.6
3584,-0.7
3585,-1.1
3586,-1.1
3587,-1
3588,-0.9
3589,-0.8
3590,-0.6
3591,-0.8
3592,-1.1
3593,-0.6
3594,-0.6
3595,-0.7
3596,-0.9
3597,-0.8
3598,-1
3599,-1
3600,-0.9
3601,-1
3602,-1.1
3603,-1
3604,-1.1
3605,-1.3
3606,-1.5
3607,-1.4
3608,-1
3609,-1.1
3610,-1
3611,-1.4
3612,-1.4
3613,-1.1
3614,-1.5
3615,-1.8
3616,-1.9
3617,-1.7
3618,-1.8
3619,-1.7
3620,-1.6
3621,-1.6
3622,-1.7
3623,-1.7
3624,-1.8
3625,-1.9
3626,-1.7
3627,-1.8
3628,-1.5
3629,-1.5
3630,-1.7
3631,-1.6
3632,-1.5
3633,-1.3
3634,-1.6
3635,-1.5
3636,-1.5
3637,-1.4
3638,-1.4
3639,-1.3
3640,-1.2
3641,-1.3
3642,-0.9
3643,-0.9
3644,-1.1
3645,-1.1
3646,-1.2
3647,-1.3
3648,-0.9
3649,-0.6
3650,-0.5
3651,-0.4
3652,-0.4
3653,-0.3
3654,-0.4
3655,-0.5
3656,-0.3
3657,-0.4
3658,-0.5
3659,-0.9
3660,-1
3661,-0.6
3662,-0.4
3663,-0.2
3664,-0.4
3665,-0.5
3666,-0.4
3667,-0.3
3668,-0.2
3669,-0.4
3670,-0.7
3671,-0.7
3672,-0.6
3673,-0.6
3674,-0.6
3675,-0.6
3676,-0.6
3677,-0.7
3678,-0.8
3679,-0.7
3680,-0.7
3681,-0.7
3682,-0.7
3683,-0.7
3684,-0.6
3685,-0.8
3686,-1.1
3687,-0.4
3688,-0.4
3689,-0.7
3690,-0.7
3691,-0.7
3692,-0.5
3693,-0.4
3694,-0.4
3695,-0.2
3696,0
3697,-0.4
3698,-0.7
3699,-0.6
3700,-0.5
3701,-0.8
3702,-0.6
3703,-0.5
3704,-0.5
3705,-0.7
3706,-0.7
3707,-0.7
3708,-0.7
3709,-0.7
3710,-0.6
3711,-1
3712,-1.4
3713,-1.1
3714,-0.7
3715,-0.5
3716,-0.6
3717,-0.5
3718,-0.6
3719,-0.7
3720,-0.5
3721,-0.3
3722,-0.1
3723,-0.1
3724,-0.2
3725,-0.3
3726,-0.3
3727,-0.5
3728,-0.4
3729,-0.4
3730,-0.4
3731,-0.3
3732,-0.2
3733,0
3734,-0.2
3735,-0.6
3736,-0.4
3737,-0.3
3738,-0.1
3739,-0.1
3740,-0.1
3741,0
3742,0
3743,-0.3
3744,0
3745,-0.1
3746,-0.2
3747,-0.3
3748,-0.2
3749,-0.4
3750,-0.3
3751,0
3752,0.1
3753,0
3754,-0.1
3755,-0.2
3756,-0.2
3757,0
3758,-0.4
3759,-0.4
3760,-0.3
3761,-0.1
3762,-0.1
3763,-0.1
3764,-0.1
3765,-0.3
3766,-0.4
3767,-0.2
3768,-0.2
3769,-0.1
3770,-0.1
3771,-0.1
3772,-0.2
3773,-0.4
3774,-0.4
3775,-0.1
3776,-0.3
3777,-0.4
3778,-0.2
3779,-0.3
3780,-0.4
3781,-0.2
3782,-0.1
3783,-0.3
3784,-0.6
3785,-0.5
3786,0
3787,-0.3
3788,-0.5
3789,-0.5
3790,-0.2
3791,-0.1
3792,-0.1
3793,0.1
3794,-0.1
3795,0
3796,-0.1
3797,-0.4
3798,-0.2
3799,-0.1
3800,-0.1
3801,-0.2
3802,-0.1
3803,-0.6
3804,-0.1
3805,0
3806,0.2
3807,0.1
3808,-0.1
3809,0
3810,0.3
3811,0.2
3812,-0.2
3813,-0.1
3814,-0.3
3815,-0.4
3816,-0.4
3817,-0.2
3818,-0.4
3819,-0.2
3820,0
3821,-0.3
3822,-0.5
3823,-0.6
3824,-0.4
3825,-0.2
3826,-0.4
3827,-0.6
3828,-0.3
3829,-0.2
3830,-0.2
3831,0.1
3832,0
3833,-0.4
3834,-0.2
3835,-0.2
3836,-0.3
3837,-0.3
3838,-0.4
3839,-0.5
3840,-0.4
3841,-0.5
3842,-0.5
3843,-0.4
3844,-0.6
3845,-0.8
3846,-0.4
3847,-0.6
3848,-0.5
3849,-0.8
3850,-0.6
3851,-0.4
3852,-0.5
3853,-0.7
3854,-0.4
3855,-0.1
3856,-0.3
3857,-0.5
3858,0.4
3859,0.7
3860,0.6
3861,0.4
3862,0.2
3863,0.5
3864,0.4
3865,0
3866,0.1
3867,0.1
3868,0.5
3869,0.5
3870,0.3
3871,0.1
3872,0.4
3873,0.5
3874,0.2
3875,0.4
3876,0.6
3877,0.6
3878,0.5
3879,0.4
3880,0.1
3881,0.1
3882,0.3
3883,0.4
3884,0.1
3885,-0.3
3886,-0.1
3887,-0.3
3888,-0.7
3889,-0.6
3890,-0.4
3891,-0.3
3892,-0.3
3893,-0.6
3894,-0.6
3895,-0.7
3896,-0.7
3897,-0.6
3898,-0.4
3899,-0.5
3900,-0.6
3901,-0.5
3902,-0.1
3903,0.2
3904,0.2
3905,0.1
3906,0.3
3907,-0.1
3908,-0.6
3909,-0.8
3910,-0.6
3911,-0.4
3912,-0.5
3913,-0.5
3914,-0.7
3915,-0.5
3916,-0.2
3917,-0.3
3918,-0.5
3919,-0.4
3920,-0.3
3921,-0.5
3922,-0.2
3923,-0.3
3924,-0.1
3925,-0.5
3926,-0.5
3927,-0.4
3928,-0.4
3929,0.1
3930,1.4
3931,2.2
3932,2.8
3933,2.9
3934,2.8
3935,2
3936,0.8
3937,0
3938,-0.6
3939,-1.4
3940,-2.6
3941,-3.8
3942,-4.8
3943,-5.4
3944,-5.6
3945,-5.1
3946,-4.9
3947,-5.8
3948,-6.2
3949,-6.3
3950,-6.6
3951,-7.6
3952,-8.2
3953,-8.5
3954,-8.7
3955,-9
3956,-9.8
3957,-10.7
3958,-10.4
3959,-9.4
3960,-8.1
3961,-6.5
3962,-4.3
3963,-3
3964,-2.2
3965,-2.3
3966,-2.3
3967,-1.9
3968,-1.6
3969,-1.4
3970,-1.2
3971,-1.2
3972,-1.2
3973,-1
3974,-0.8
3975,-0.6
3976,-0.5
3977,-0.5
3978,-0.4
3979,-0.5
3980,-0.5
3981,-0.5
3982,-0.4
3983,-0.2
3984,-0.1
3985,-0.1
3986,-0.5
3987,-0.7
3988,-0.8
3989,-0.3
3990,-0.2
3991,-0.4
3992,-0.7
3993,-0.4
3994,-0.4
3995,-0.1
3996,0
3997,-0.2
3998,-0.3
3999,-0.2
4000,-0.8
4001,-0.3
4002,0.1
4003,0.1
4004,-0.3
4005,-0.3
4006,-0.2
4007,-0.3
4008,-0.7
4009,-0.3
4010,-0.2
4011,-0.4
4012,-0.4
4013,-0.3
4014,-0.7
4015,-0.6
4016,-0.3
4017,-0.4
4018,-0.4
4019,-0.4
4020,-0.3
4021,-0.3
4022,-0.2
4023,0
4024,0
4025,-0.1
4026,-0.3
4027,-0.5
4028,-0.4
4029,-0.5
4030,-0.7
4031,-0.5
4032,-0.7
4033,-0.9
4034,-0.4
4035,-0.2
4036,-0.1
4037,-0.2
4038,-0.4
4039,-0.6
4040,-0.9
4041,-0.7
4042,-0.5
4043,-0.4
4044,-0.3
4045,-0.3
4046,-0.2
4047,-0.2
4048,0
4049,-0.1
4050,-0.3
4051,-0.7
4052,-0.7
4053,-0.6
4054,-0.5
4055,-0.7
4056,-0.7
4057,-0.7
4058,-0.7
4059,-0.7
4060,-0.5
4061,-0.5
4062,-0.5
4063,-0.9
4064,-0.8
4065,-0.6
4066,-0.9
4067,-1.2
4068,-1
4069,-1.1
4070,-1.1
4071,-1.1
4072,-1.1
4073,-1.7
4074,-1.3
4075,-1.1
4076,-1.1
4077,-1.4
4078,-1
4079,-1.1
4080,-1.4
4081,-1.7
4082,-1.8
4083,-1.7
4084,-1.8
4085,-1.7
4086,-1.8
4087,-1.8
4088,-1.9
4089,-1.9
4090,-1.6
4091,-1.8
4092,-1.7
4093,-1.9
4094,-2.1
4095,-2.2
4096,-2.2
4097,-1.9
4098,-1.8
4099,-1.4
4100,-1.4
4101,-1.2
4102,-1.2
4103,-1.2
4104,-1.3
4105,-1.1
4106,-1.2
4107,-1.2
4108,-1.2
4109,-1.2
4110,-0.7
4111,-0.4
4112,-0.6
4113,-0.6
4114,-0.7
4115,-0.9
4116,-0.8
4117,-0.6
4118,-0.5
4119,-0.6
4120,-0.5
4121,-0.2
4122,-0.2
4123,-0.2
4124,-0.4
4125,-0.5
4126,-0.4
4127,-0.4
4128,-0.2
4129,-0.2
4130,-0.2
4131,-0.2
4132,-0.3
4133,-0.7
4134,-0.7
4135,-0.7
4136,-0.4
4137,-0.4
4138,-0.5
4139,-0.3
4140,-0.5
4141,-1
4142,-1.1
4143,-0.9
4144,-0.6
4145,-0.6
4146,-0.5
4147,-0.7
4148,-0.6
4149,-0.9
4150,-0.9
4151,-0.3
4152,-0.4
4153,-0.4
4154,-0.5
4155,-0.6
4156,-0.7
4157,-1.1
4158,-1.3
4159,-1.1
4160,-0.6
4161,-0.3
4162,-0.5
4163,-0.1
4164,-0.2
4165,-0.3
4166,-0.5
4167,-0.7
4168,-0.6
4169,-0.5
4170,-0.6
4171,-0.8
4172,-0.7
4173,-0.6
4174,-0.7
4175,-0.6
4176,-0.4
4177,-0.2
4178,-0.4
4179,-0.6
4180,-0.6
4181,-0.9
4182,-0.6
4183,-0.4
4184,-0.3
4185,-0.3
4186,-0.4
4187,-0.6
4188,-0.8
4189,-0.5
4190,-0.7
4191,-0.5
4192,-0.3
4193,-0.3
4194,-0.4
4195,-0.7
4196,-0.5
4197,-0.5
4198,-0.4
4199,-0.1
4200,0
4201,-0.1
4202,-0.3
4203,-0.1
4204,0.1
4205,-0.2
4206,-0.2
4207,-0.4
4208,-0.7
4209,-0.5
4210,-0.3
4211,-0.2
4212,-0.3
4213,-0.4
4214,-0.6
4215,-0.5
4216,-0.7
4217,-0.4
4218,-0.3
4219,-0.5
4220,-0.3
4221,-0.2
4222,-0.1
4223,0
4224,-0.3
4225,-0.4
4226,-0.1
4227,0
4228,0
4229,-0.2
4230,-0.1
4231,0
4232,0
4233,-0.1
4234,-0.4
4235,-0.4
4236,-0.4
4237,-0.6
4238,-0.4
4239,-0.2
4240,-0.3
4241,-0.3
4242,-0.1
4243,-0.3
4244,-0.3
4245,-0.5
4246,-0.3
4247,-0.1
4248,0
4249,0
4250,0
4251,0
4252,-0.1
4253,0
4254,0.1
4255,-0.3
4256,-0.3
4257,-0.3
4258,-0.1
4259,-0.1
4260,-0.1
4261,-0.3
4262,-0.4
4263,-0.5
4264,-0.3
4265,0
4266,0
4267,0.1
4268,0
4269,0.1
4270,-0.2
4271,-0.5
4272,-0.4
4273,0.1
4274,0.4
4275,0
4276,-0.4
4277,-0.4
4278,-0.3
4279,-0.6
4280,-0.4
4281,-0.2
4282,0.1
4283,0
4284,0
4285,-0.3
4286,-0.3
4287,-0.1
4288,-0.2
4289,-0.5
4290,-0.5
4291,0
4292,-0.2
4293,-0.1
4294,-0.2
4295,-0.3
4296,-0.3
4297,-0.4
4298,-0.6
4299,-0.5
4300,-0.2
4301,0.1
4302,-0.2
4303,-0.4
4304,-0.3
4305,-0.2
4306,-0.2
4307,-0.3
4308,-0.6
4309,-0.2
4310,0.1
4311,0.1
4312,-0.1
4313,-0.1
4314,-0.4
4315,-0.3
4316,-0.4
4317,-0.3
4318,-0.2
4319,-0.3
4320,-0.3
4321,0
4322,0.1
4323,0.1
4324,0
4325,-0.2
4326,-0.3
4327,-0.3
4328,-0.3
4329,-0.1
4330,0.3
4331,0.3
4332,0
4333,0.1
4334,0.2
4335,0.1
4336,0.1
4337,0.1
4338,0.2
4339,0.2
4340,0.2
4341,0.1
4342,0.3
4343,0.5
4344,0.5
4345,0.7
4346,0.7
4347,0.3
4348,0.4
4349,0.4
4350,0.1
4351,0.6
4352,0.6
4353,0.2
4354,0
4355,-0.3
4356,-0.1
4357,-0.2
4358,-0.3
4359,-0.2
4360,-0.2
4361,-0.5
4362,-0.2
4363,-0.1
4364,-0.3
4365,-0.6
4366,-0.4
4367,-0.5
4368,-0.2
4369,-0.1
4370,-0.2
4371,-0.2
4372,-0.1
4373,-0.1
4374,-0.1
4375,-0.3
4376,-0.3
4377,-0.2
4378,-0.1
4379,0
4380,0.2
4381,0.2
4382,0
4383,-0.1
4384,-0.1
4385,-0.3
4386,-0.3
4387,-0.3
4388,0
4389,0.2
4390,0.1
4391,-0.3
4392,-0.2
4393,0
4394,-0.4
4395,-0.3
4396,-0.2
4397,-0.1
4398,0.3
4399,0.9
4400,1.6
4401,2.5
4402,3
4403,3.3
4404,3
4405,2
4406,1.2
4407,-0.1
4408,-1.1
4409,-2
4410,-3.5
4411,-4.7
4412,-5.1
4413,-4.9
4414,-5
4415,-5.4
4416,-5.9
4417,-6.4
4418,-6.9
4419,-6.5
4420,-7.8
4421,-8.7
4422,-8.8
4423,-9.1
4424,-9.1
4425,-9.9
4426,-10.4
4427,-10.4
4428,-9.3
4429,-8.4
4430,-7.5
4431,-6.2
4432,-4.3
4433,-2.9
4434,-2.1
4435,-2
4436,-1.7
4437,-1.6
4438,-1.3
4439,-1
4440,-0.8
4441,-1
4442,-1
4443,-0.5
4444,-0.2
4445,-0.6
4446,-0.6
4447,-0.3
4448,-0.3
4449,-0.3
4450,-0.3
4451,-0.2
4452,-0.2
4453,-0.2
4454,-0.1
4455,0
4456,-0.1
4457,-0.2
4458,-0.1
4459,-0.1
4460,-0.4
4461,-0.1
4462,0
4463,0
4464,-0.3
4465,0
4466,0.3
4467,0.3
4468,0.1
4469,-0.4
4470,-0.2
4471,0
4472,0
4473,0.1
4474,0.2
4475,0.4
4476,0
4477,-0.2
4478,-0.1
4479,-0.1
4480,0
4481,0.2
4482,0
4483,-0.4
4484,-0.2
4485,0
4486,0.1
4487,0.5
4488,0.2
4489,0
4490,0.1
4491,0.3
4492,0.6
4493,0.4
4494,0.1
4495,0
4496,0.3
4497,0.3
4498,0.4
4499,0.5
4500,0.6
4501,0.6
4502,0.2
4503,-0.2
4504,-0.4
4505,0.1
4506,-0.1
4507,0.1
4508,0.3
4509,0.1
4510,0.1
4511,0.2
4512,0.2
4513,0.2
4514,0.1
4515,-0.4
4516,-0.2
4517,-0.2
4518,0.1
4519,0.2
4520,-0.1
4521,-0.1
4522,-0.3
4523,-0.4
4524,-0.4
4525,-0.5
4526,-0.3
4527,-0.4
4528,-0.3
4529,-0.4
4530,0
4531,0
4532,0.1
4533,0
4534,0.1
4535,0.1
4536,-0.1
4537,0.2
4538,-0.2
4539,-0.6
4540,-0.6
4541,-0.7
4542,-0.7
4543,-0.6
4544,-0.6
4545,-0.6
4546,-1
4547,-0.7
4548,-0.8
4549,-0.9
4550,-1.1
4551,-1.2
4552,-1.3
4553,-1.4
4554,-1.5
4555,-1.2
4556,-0.8
4557,-1.2
4558,-0.9
4559,-0.7
4560,-0.9
4561,-1.1
4562,-1.1
4563,-1.4
4564,-1.3
4565,-1.4
4566,-1.3
4567,-1.3
4568,-1.4
4569,-1.3
4570,-1.2
4571,-1.4
4572,-1
4573,-0.9
4574,-0.9
4575,-1
4576,-0.8
4577,-0.8
4578,-0.9
4579,-0.7
4580,-0.5
4581,-0.2
4582,0.1
4583,-0.1
4584,-0.3
4585,-0.2
4586,-0.1
4587,0
4588,-0.1
4589,-0.2
4590,-0.1
4591,0.2
4592,0
4593,0
4594,0.1
4595,0
4596,0.2
4597,-0.1
4598,-0.4
4599,-0.3
4600,-0.1
4601,0
4602,0
4603,-0.1
4604,-0.1
4605,-0.2
4606,-0.4
4607,-0.1
4608,-0.3
4609,-0.1
4610,0.1
4611,-0.1
4612,-0.1
4613,-0.4
4614,-0.3
4615,-0.4
4616,-0.5
4617,-0.5
4618,-0.5
4619,-0.5
4620,-0.2
4621,-0.1
4622,-0.1
4623,-0.4
4624,-0.4
4625,0
4626,0
4627,-0.1
4628,0.1
4629,-0.2
4630,-0.3
4631,-0.3
4632,-0.1
4633,-0.2
4634,-0.5
4635,-0.5
4636,-0.2
4637,-0.5
4638,-0.5
4639,-0.4
4640,-0.5
4641,-0.5
4642,-0.5
4643,-0.5
4644,-0.5
4645,-0.5
4646,-0.4
4647,-0.4
4648,-0.4
4649,-0.3
4650,-0.6
4651,-0.6
4652,-0.8
4653,-0.8
4654,-0.4
4655,-0.4
4656,-0.3
4657,-0.2
4658,-0.3
4659,-0.3
4660,-0.1
4661,-0.1
4662,-0.3
4663,-0.1
4664,-0.1
4665,0
4666,0
4667,-0.2
4668,-0.4
4669,-0.3
4670,-0.2
4671,-0.4
4672,-0.4
4673,-0.3
4674,-0.4
4675,-0.2
4676,-0.1
4677,0
4678,-0.2
4679,-0.3
4680,-0.1
4681,-0.1
4682,0.1
4683,-0.1
4684,0
4685,-0.1
4686,-0.4
4687,-0.4
4688,0
4689,0.1
4690,0
4691,-0.3
4692,-0.4
4693,0
4694,-0.3
4695,-0.1
4696,-0.2
4697,-0.1
4698,-0.2
4699,0.1
4700,0.3
4701,0
4702,0
4703,-0.1
4704,-0.2
4705,-0.3
4706,-0.3
4707,-0.3
4708,0.1
4709,0.1
4710,-0.1
4711,-0.2
4712,-0.2
4713,-0.3
4714,-0.8
4715,-0.8
4716,-0.2
4717,-0.2
4718,-0.5
4719,-0.4
4720,-0.2
4721,-0.3
4722,-0.2
4723,-0.2
4724,0
4725,0
4726,-0.1
4727,-0.2
4728,-0.3
4729,-0.3
4730,-0.2
4731,-0.3
4732,-0.5
4733,-0.3
4734,-0.2
4735,-0.2
4736,-0.1
4737,-0.1
4738,0
4739,0.1
4740,-0.1
4741,0
4742,0.1
4743,-0.2
4744,-0.4
4745,-0.6
4746,-0.4
4747,0
4748,0.2
4749,0.2
4750,-0.1
4751,-0.1
4752,-0.1
4753,-0.2
4754,-0.2
4755,-0.2
4756,-0.2
4757,-0.2
4758,-0.1
4759,0
4760,0.2
4761,0.2
4762,-0.1
4763,-0.1
4764,-0.4
4765,-0.5
4766,-0.4
4767,-0.2
4768,-0.5
4769,-0.4
4770,-0.1
4771,0
4772,0
4773,0
4774,-0.5
4775,-0.4
4776,-0.4
4777,0
4778,-0.3
4779,-0.6
4780,0
4781,0.4
4782,0
4783,-0.2
4784,-0.4
4785,-0.5
4786,-0.5
4787,-0.1
4788,0
4789,-0.3
4790,-0.3
4791,0.2
4792,0.3
4793,0.1
4794,-0.6
4795,-0.7
4796,-0.5
4797,-0.3
4798,-0.4
4799,0.1
4800,0.4
4801,0.4
4802,0
4803,-0.1
4804,0.3
4805,0.2
4806,0.3
4807,0.4
4808,0.4
4809,0.4
4810,0.6
4811,0.8
4812,0.7
4813,0.7
4814,0.7
4815,0.9
4816,1.3
4817,1.3
4818,1.2
4819,1.1
4820,0.5
4821,0.4
4822,0.5
4823,0.1
4824,0
4825,-0.1
4826,0.5
4827,0.4
4828,-0.3
4829,-0.4
4830,-0.3
4831,-0.1
4832,0.1
4833,0.2
4834,0.1
4835,0.3
4836,0.2
4837,-0.2
4838,-0.3
4839,-0.1
4840,0.2
4841,0.1
4842,-0.1
4843,0.1
4844,0.2
4845,0.5
4846,0.7
4847,0
4848,-0.4
4849,-0.2
4850,-0.1
4851,0
4852,-0.3
4853,-0.1
4854,0
4855,-0.4
4856,-0.2
4857,0.1
4858,0.1
4859,0.2
4860,-0.2
4861,-0.4
4862,-0.1
4863,0.2
4864,0.2
4865,0
4866,0.1
4867,0.1
4868,0.2
4869,1
4870,1.9
4871,2.7
4872,3.3
4873,3.5
4874,3.3
4875,2.8
4876,1.9
4877,0.4
4878,-0.7
4879,-1.8
4880,-2.9
4881,-4.1
4882,-5.5
4883,-5.7
4884,-5.7
4885,-5.8
4886,-6.3
4887,-6.9
4888,-7.2
4889,-6.8
4890,-7.6
4891,-9
4892,-9.1
4893,-9.1
4894,-9
4895,-9
4896,-9.5
4897,-10.1
4898,-9.3
4899,-8.2
4900,-7.1
4901,-5.6
4902,-3.6
4903,-2.3
4904,-1.5
4905,-1.7
4906,-1.7
4907,-1.1
4908,-1.1
4909,-0.9
4910,-0.7
4911,-0.4
4912,-0.8
4913,-0.7
4914,-0.2
4915,-0.4
4916,-0.1
4917,0
4918,0
4919,-0.2
4920,-0.2
4921,-0.2
4922,-0.1
4923,-0.3
4924,-0.3
4925,-0.3
4926,-0.3
4927,0
4928,0
4929,-0.3
4930,0.1
4931,0.6
4932,0.4
4933,0.2
4934,0.2
4935,0.4
4936,0
4937,-0.1
4938,-0.2
4939,-0.1
4940,0.4
4941,0.3
4942,0.1
4943,-0.1
4944,0
4945,0
4946,0.2
4947,0.5
4948,0.6
4949,0.5
4950,0.3
4951,0.4
4952,0.1
4953,0
4954,-0.2
4955,-0.2
4956,-0.2
4957,0
4958,0.2
4959,-0.1
4960,0.2
4961,0.3
4962,0.1
4963,-0.1
4964,-0.2
4965,-0.1
4966,0
4967,0.2
4968,0.3
4969,-0.1
4970,-0.3
4971,-0.1
4972,0.3
4973,0.2
4974,-0.3
4975,-0.1
4976,-0.4
4977,-0.5
4978,-0.3
4979,-0.7
4980,-0.5
4981,-0.4
4982,-0.3
4983,-0.2
4984,-0.1
4985,-0.1
4986,-0.5
4987,-0.8
4988,-0.6
4989,-0.5
4990,-0.6
4991,-0.9
4992,-0.9
4993,-0.8
4994,-0.6
4995,-0.8
4996,-0.7
4997,-0.7
4998,-0.9
4999,-1.1
5000,-1.1
