TS,Reading
1,-2.6
2,-2.3
3,-2.4
4,-2.3
5,-2.3
6,-2.3
7,-2.3
8,-2.3
9,-2.3
10,-2.5
11,-2.5
12,-2.5
13,-2.5
14,-2.4
15,-2.3
16,-2.2
17,-2.4
18,-2.4
19,-2.6
20,-2.6
21,-2.5
22,-2.3
23,-2.6
24,-2.8
25,-2.7
26,-2.8
27,-2.7
28,-2.6
29,-2.5
30,-2.6
31,-2.8
32,-2.8
33,-2.7
34,-2.8
35,-2.7
36,-2.7
37,-2.5
38,-2.5
39,-2.5
40,-2.5
41,-2.6
42,-2.7
43,-2.7
44,-2.7
45,-2.6
46,-2.4
47,-2.1
48,-1.9
49,-1.9
50,-2
51,-1.9
52,-2
53,-2.1
54,-2.4
55,-2.3
56,-2
57,-1.9
58,-1.9
59,-1.6
60,-1.5
61,-1.4
62,-1.3
63,-1.8
64,-1.9
65,-1.8
66,-1.8
67,-1.6
68,-1.6
69,-1.6
70,-1.7
71,-1.7
72,-1.8
73,-1.8
74,-1.8
75,-2
76,-2.3
77,-2.2
78,-2.2
79,-2.3
80,-2.5
81,-2.4
82,-2.5
83,-2.4
84,-2.4
85,-2.3
86,-2.4
87,-2.5
88,-2.4
89,-2.5
90,-2.6
91,-2.7
92,-2.8
93,-2.8
94,-3
95,-3.1
96,-2.9
97,-2.9
98,-3
99,-3.1
100,-3.3
101,-3.4
102,-3.3
103,-3.2
104,-3.4
105,-3.5
106,-3.5
107,-3.4
108,-3.2
109,-3.2
110,-3.2
111,-3.1
112,-3.2
113,-3.4
114,-3.4
115,-3.3
116,-3.2
117,-3.5
118,-3.7
119,-3.9
120,-3.7
121,-3.1
122,-2.1
123,-0.8
124,1
125,3.5
126,6.5
127,9.1
128,10.8
129,12.3
130,14.9
131,17.2
132,17.3
133,16.5
134,14.8
135,13.1
136,9.5
137,4.9
138,0.2
139,-5.2
140,-11.9
141,-18.2
142,-22
143,-23.9
144,-24.7
145,-25
146,-24.6
147,-23.6
148,-22
149,-20.1
150,-18.1
151,-15.7
152,-13.2
153,-11
154,-9.5
155,-8.2
156,-7
157,-6
158,-5.1
159,-4.3
160,-3.8
161,-3.4
162,-3.3
163,-3.2
164,-3.2
165,-2.9
166,-2.9
167,-2.8
168,-2.7
169,-2.4
170,-2.4
171,-2.5
172,-2.4
173,-2.4
174,-2.5
175,-2.2
176,-1.9
177,-2
178,-2.2
179,-2.2
180,-2.1
181,-2
182,-1.9
183,-1.8
184,-1.7
185,-1.6
186,-1.5
187,-1.8
188,-1.7
189,-1.4
190,-1.3
191,-1.4
192,-1.2
193,-1.2
194,-1.3
195,-1.3
196,-1.3
197,-1.2
198,-1
199,-0.9
200,-0.8
201,-0.9
202,-0.9
203,-0.9
204,-0.7
205,-0.6
206,-0.6
207,-0.4
208,-0.1
209,0
210,-0.1
211,-0.1
212,0
213,0
214,-0.1
215,0
216,0.2
217,0.3
218,0.3
219,0.5
220,0.5
221,0.5
222,0.4
223,0.5
224,0.6
225,0.7
226,0.7
227,0.7
228,1
229,1.4
230,1.5
231,1.4
232,1.4
233,1.6
234,1.6
235,1.6
236,1.9
237,2.2
238,2.3
239,2.2
240,2.2
241,2.3
242,2.4
243,2.4
244,2.6
245,2.9
246,3
247,3.1
248,3.5
249,3.9
250,4
251,4.1
252,4
253,3.9
254,4.1
255,4.5
256,4.6
257,4.6
258,4.5
259,4.8
260,4.8
261,4.8
262,5.1
263,5.1
264,5
265,5
266,5.1
267,5.2
268,5.3
269,5.3
270,5.3
271,5.3
272,5.3
273,5.3
274,5.2
275,5.2
276,5.3
277,5.2
278,5.1
279,4.9
280,5
281,5
282,4.8
283,4.6
284,4.5
285,4.5
286,4.3
287,4
288,3.7
289,3.7
290,3.7
291,3.4
292,3.2
293,2.9
294,2.6
295,2.4
296,2.4
297,2.2
298,1.8
299,1.6
300,1.5
301,1.4
302,1.2
303,0.9
304,0.8
305,0.3
306,-0.1
307,-0.3
308,-0.5
309,-0.5
310,-0.6
311,-0.6
312,-0.9
313,-1.1
314,-1.4
315,-1.6
316,-1.5
317,-1.4
318,-1.6
319,-1.8
320,-2
321,-1.9
322,-1.8
323,-1.9
324,-1.9
325,-1.6
326,-1.4
327,-1.4
328,-1.6
329,-1.8
330,-1.9
331,-1.9
332,-2
333,-2
334,-2
335,-1.9
336,-1.9
337,-1.8
338,-1.8
339,-1.8
340,-2
341,-2.2
342,-2
343,-2.2
344,-2.1
345,-2
346,-2
347,-1.8
348,-1.8
349,-1.7
350,-1.7
351,-1.8
352,-2
353,-1.8
354,-1.8
355,-1.7
356,-1.7
357,-1.6
358,-1.7
359,-1.8
360,-1.7
361,-1.8
362,-1.8
363,-1.8
364,-2
365,-2
366,-1.7
367,-1.6
368,-1.7
369,-1.8
370,-1.7
371,-1.5
372,-1.6
373,-1.7
374,-1.8
375,-1.7
376,-1.5
377,-1.4
378,-1.1
379,-1.1
380,-1.1
381,-1.1
382,-1.1
383,-1
384,-0.9
385,-1.1
386,-1.2
387,-1.1
388,-1
389,-0.9
390,-0.9
391,-1
392,-0.9
393,-0.8
394,-0.7
395,-0.5
396,-0.5
397,-0.4
398,-0.2
399,0
400,0.1
401,0
402,-0.2
403,-0.2
404,-0.3
405,-0.2
406,0
407,-0.1
408,-0.2
409,-0.1
410,-0.2
411,-0.2
412,-0.2
413,-0.2
414,-0.2
415,-0.4
416,-0.3
417,-0.2
418,-0.2
419,-0.1
420,0
421,0
422,-0.2
423,-0.2
424,-0.2
425,-0.3
426,-0.3
427,-0.4
428,-0.4
429,-0.3
430,-0.2
431,-0.4
432,-0.5
433,-0.7
434,-0.7
435,-0.7
436,-0.5
437,-0.4
438,-0.3
439,-0.3
440,-0.3
441,-0.4
442,-0.6
443,-0.7
444,-0.6
445,-0.6
446,-0.4
447,-0.3
448,-0.4
449,-0.6
450,-0.7
451,-0.7
452,-0.6
453,-0.6
454,-0.5
455,-0.6
456,-0.6
457,-0.6
458,-0.8
459,-1
460,-1
461,-0.9
462,-0.9
463,-0.7
464,-0.8
465,-0.8
466,-0.7
467,-0.6
468,-0.7
469,-0.7
470,-0.8
471,-0.8
472,-0.8
473,-0.9
474,-0.9
475,-1
476,-0.9
477,-0.8
478,-0.9
479,-1.1
480,-1.2
481,-1.2
482,-1
483,-1
484,-0.9
485,-0.6
486,-0.7
487,-0.9
488,-0.7
489,-0.5
490,-0.6
491,-0.6
492,-0.6
493,-0.5
494,-0.7
495,-0.9
496,-0.9
497,-0.9
498,-0.9
499,-0.9
500,-1
501,-1.1
502,-1.1
503,-1
504,-1.1
505,-1
506,-1
507,-1
508,-0.8
509,-0.9
510,-0.8
511,-0.9
512,-1
513,-0.8
514,-0.9
515,-1
516,-1.1
517,-0.9
518,-0.9
519,-0.9
520,-1
521,-1.2
522,-1.2
523,-1.2
524,-1.1
525,-1
526,-0.9
527,-0.9
528,-0.9
529,-0.8
530,-0.7
531,-0.6
532,-0.6
533,-0.6
534,-0.5
535,-0.3
536,-0.3
537,-0.3
538,0
539,-0.1
540,0
541,-0.1
542,-0.3
543,-0.3
544,-0.4
545,-0.2
546,0.1
547,0.5
548,0.4
549,0.4
550,0.3
551,0.1
552,-0.1
553,-0.3
554,-0.3
555,0.3
556,0.4
557,0.3
558,0.2
559,0
560,-0.1
561,-0.2
562,-0.4
563,-0.4
564,-0.4
565,-0.4
566,-0.4
567,-0.3
568,-0.1
569,0
570,-0.3
571,-0.7
572,-0.7
573,-0.7
574,-0.8
575,-0.8
576,-0.5
577,-0.4
578,-0.5
579,-0.6
580,-0.8
581,-1
582,-0.9
583,-1.1
584,-1.3
585,-1.3
586,-1.4
587,-1.3
588,-1.1
589,-1
590,-1
591,-1.4
592,-1.5
593,-1.7
594,-1.5
595,-1.2
596,-1.2
597,-1.3
598,-1.4
599,-1.5
600,-1.4
601,-1.4
602,-1.7
603,-1.9
604,-1.5
605,-0.7
606,0
607,1.4
608,3.4
609,6
610,9.2
611,11.6
612,12.7
613,14.3
614,17.6
615,20.2
616,20.2
617,19.3
618,17.7
619,15.5
620,11.4
621,6.6
622,1.6
623,-3.9
624,-11.2
625,-17.8
626,-21.8
627,-23.6
628,-24.2
629,-24.1
630,-23.4
631,-22
632,-20.1
633,-18
634,-15.9
635,-13
636,-10.5
637,-8.1
638,-6.2
639,-5.1
640,-4.2
641,-3.4
642,-2.8
643,-2.1
644,-1.6
645,-1.3
646,-1.1
647,-1
648,-0.7
649,-0.6
650,-0.4
651,-0.4
652,-0.3
653,-0.3
654,-0.4
655,0
656,0.2
657,0.1
658,0.3
659,0.5
660,0.5
661,0.5
662,0.5
663,0.5
664,0.5
665,0.6
666,0.7
667,0.8
668,0.7
669,0.8
670,0.9
671,1
672,1.1
673,1.1
674,1.1
675,1.2
676,1.3
677,1.3
678,1.3
679,1.6
680,1.9
681,2
682,2
683,2
684,1.8
685,1.8
686,1.9
687,1.7
688,1.7
689,1.7
690,2.1
691,2.2
692,2.3
693,2.3
694,2.4
695,2.5
696,2.6
697,2.7
698,2.6
699,2.7
700,3
701,2.9
702,3
703,3.1
704,3.2
705,3.3
706,3.3
707,3.4
708,3.4
709,3.6
710,3.5
711,3.6
712,3.7
713,3.7
714,3.8
715,4.1
716,4.1
717,4.4
718,4.8
719,4.9
720,4.7
721,4.7
722,4.8
723,4.9
724,5.2
725,5.2
726,5.4
727,5.7
728,6
729,6.1
730,6.3
731,6.2
732,6.2
733,6
734,5.9
735,5.8
736,6
737,6.2
738,6.2
739,6.2
740,6.1
741,6
742,5.9
743,5.9
744,6
745,6.2
746,6.1
747,6
748,5.9
749,6
750,6.2
751,6.2
752,6
753,5.9
754,5.8
755,5.6
756,5.6
757,5.7
758,5.6
759,5.5
760,5.3
761,5.1
762,5
763,5
764,5.1
765,4.9
766,4.6
767,4.4
768,4.2
769,4.2
770,4.2
771,4
772,3.8
773,3.5
774,3.1
775,2.8
776,2.6
777,2.5
778,2
779,1.9
780,1.7
781,1.5
782,1.3
783,1.1
784,0.8
785,0.5
786,0.4
787,0.3
788,0
789,-0.4
790,-0.8
791,-0.8
792,-1.1
793,-1.4
794,-1.7
795,-1.8
796,-1.9
797,-1.9
798,-2.2
799,-2.6
800,-2.7
801,-2.7
802,-2.6
803,-2.6
804,-2.9
805,-3
806,-3.1
807,-3.2
808,-3.4
809,-3.4
810,-3.4
811,-3.3
812,-3.4
813,-3.6
814,-3.6
815,-3.4
816,-3.4
817,-3.6
818,-3.6
819,-3.5
820,-3.6
821,-3.7
822,-3.8
823,-3.6
824,-3.5
825,-3.3
826,-3.4
827,-3.4
828,-3.3
829,-3.2
830,-3.2
831,-3.3
832,-3.4
833,-3.4
834,-3.3
835,-3.3
836,-3.2
837,-3.1
838,-3
839,-3.1
840,-3.2
841,-3.2
842,-3.3
843,-3.3
844,-3.4
845,-3.3
846,-3.2
847,-3
848,-3.1
849,-3
850,-3.1
851,-3.3
852,-3.4
853,-3.5
854,-3.5
855,-3.3
856,-3.4
857,-3.3
858,-3.2
859,-3.1
860,-3
861,-2.9
862,-3
863,-3.2
864,-3.2
865,-3.4
866,-3.2
867,-3.1
868,-3.3
869,-3.4
870,-3.2
871,-3.1
872,-3.2
873,-3
874,-2.9
875,-3
876,-3.1
877,-2.9
878,-2.9
879,-2.9
880,-2.9
881,-2.9
882,-2.8
883,-3.1
884,-3.3
885,-3.2
886,-3
887,-3
888,-3
889,-3.1
890,-3.4
891,-3.2
892,-3.2
893,-3.2
894,-3.3
895,-3.2
896,-3.2
897,-3.2
898,-3.3
899,-3.3
900,-3.3
901,-3.3
902,-3.6
903,-3.6
904,-3.6
905,-3.7
906,-3.7
907,-3.7
908,-3.8
909,-3.8
910,-4
911,-4
912,-4.2
913,-4
914,-3.9
915,-3.8
916,-3.9
917,-3.9
918,-3.9
919,-3.8
920,-3.9
921,-4
922,-4.3
923,-4.2
924,-4.3
925,-4.2
926,-4.1
927,-3.9
928,-4
929,-4
930,-4.1
931,-4.1
932,-4.1
933,-4.4
934,-4.4
935,-4.2
936,-4.2
937,-4.2
938,-4.4
939,-4.3
940,-4.3
941,-4.4
942,-4.4
943,-4.4
944,-4.4
945,-4.3
946,-4.3
947,-4.3
948,-4.3
949,-4.3
950,-4.5
951,-4.4
952,-4.4
953,-4.5
954,-4.4
955,-4.4
956,-4.3
957,-4.3
958,-4.1
959,-4
960,-4.3
961,-4.5
962,-4.7
963,-4.6
964,-4.5
965,-4.4
966,-4.5
967,-4.5
968,-4.7
969,-4.5
970,-4.5
971,-4.5
972,-4.6
973,-4.6
974,-4.7
975,-4.7
976,-4.3
977,-4
978,-4.1
979,-4.2
980,-4.1
981,-4.1
982,-4.3
983,-4.3
984,-4.4
985,-4.4
986,-4.5
987,-4.5
988,-4.5
989,-4.5
990,-4.4
991,-4.2
992,-4.3
993,-4.4
994,-4.4
995,-4.3
996,-4.4
997,-4.2
998,-4.1
999,-4.2
1000,-4
1001,-3.9
1002,-3.8
1003,-3.9
1004,-3.9
1005,-4
1006,-3.9
1007,-3.7
1008,-3.7
1009,-3.9
1010,-4
1011,-4
1012,-3.9
1013,-4.1
1014,-4.3
1015,-4
1016,-4.1
1017,-4.1
1018,-3.9
1019,-3.8
1020,-3.9
1021,-3.9
1022,-3.8
1023,-3.6
1024,-3.6
1025,-3.5
1026,-3.4
1027,-3.2
1028,-3.2
1029,-3.1
1030,-3.2
1031,-3.1
1032,-3
1033,-3.1
1034,-3.4
1035,-3.2
1036,-2.8
1037,-2.7
1038,-2.6
1039,-2.4
1040,-2.4
1041,-2.5
1042,-2.7
1043,-2.8
1044,-2.8
1045,-2.8
1046,-3
1047,-2.9
1048,-3.1
1049,-3.3
1050,-3.2
1051,-3.4
1052,-3.7
1053,-3.6
1054,-3.3
1055,-3.1
1056,-3.1
1057,-3.2
1058,-3.4
1059,-3.3
1060,-3.5
1061,-3.7
1062,-3.8
1063,-3.7
1064,-3.9
1065,-3.9
1066,-4
1067,-3.9
1068,-3.9
1069,-3.9
1070,-4.1
1071,-4
1072,-3.9
1073,-3.9
1074,-4.1
1075,-4.1
1076,-4.2
1077,-4.2
1078,-4.1
1079,-4.1
1080,-4.1
1081,-4.2
1082,-4.2
1083,-4.2
1084,-4.3
1085,-4.2
1086,-4.2
1087,-4.2
1088,-4.2
1089,-3.9
1090,-3.7
1091,-3.7
1092,-4
1093,-4.3
1094,-4.4
1095,-4.4
1096,-3.6
1097,-2.3
1098,-1.1
1099,0.6
1100,3
1101,6
1102,8.6
1103,10.1
1104,12
1105,15.4
1106,18
1107,18.2
1108,17.2
1109,15.5
1110,13.5
1111,9.3
1112,4.5
1113,-0.5
1114,-6.3
1115,-14
1116,-21
1117,-24.8
1118,-26.7
1119,-27.3
1120,-27.5
1121,-26.8
1122,-25.5
1123,-23.4
1124,-21.2
1125,-18.6
1126,-15.8
1127,-13.2
1128,-11
1129,-9.4
1130,-8.2
1131,-7.2
1132,-6.3
1133,-5.5
1134,-4.7
1135,-4.2
1136,-3.8
1137,-3.6
1138,-3.5
1139,-3.3
1140,-3.2
1141,-3.2
1142,-3
1143,-3
1144,-2.9
1145,-2.8
1146,-2.7
1147,-2.6
1148,-2.4
1149,-2.3
1150,-2.4
1151,-2.3
1152,-2.2
1153,-2.2
1154,-2.1
1155,-2
1156,-2
1157,-1.7
1158,-1.8
1159,-1.5
1160,-1.5
1161,-1.4
1162,-1.5
1163,-1.4
1164,-1.1
1165,-0.9
1166,-0.8
1167,-0.7
1168,-0.5
1169,-0.6
1170,-0.9
1171,-0.8
1172,-0.9
1173,-0.7
1174,-0.6
1175,-0.7
1176,-0.6
1177,-0.4
1178,-0.4
1179,-0.2
1180,-0.1
1181,0
1182,0
1183,-0.1
1184,-0.3
1185,-0.1
1186,0
1187,0.2
1188,0.4
1189,0.5
1190,0.6
1191,0.6
1192,0.5
1193,0.5
1194,0.5
1195,0.5
1196,0.7
1197,0.8
1198,1
1199,1.2
1200,1.3
1201,1.3
1202,1.3
1203,1.5
1204,1.6
1205,1.5
1206,1.6
1207,1.8
1208,2
1209,2.2
1210,2.3
1211,2.3
1212,2.4
1213,2.4
1214,2.5
1215,2.6
1216,3.1
1217,3.6
1218,3.7
1219,3.8
1220,3.9
1221,4
1222,4.1
1223,4.2
1224,4.3
1225,4.6
1226,4.7
1227,4.7
1228,5.1
1229,5.3
1230,5.5
1231,5.5
1232,5.6
1233,5.7
1234,5.7
1235,5.9
1236,6.3
1237,6.4
1238,6.5
1239,6.5
1240,6.5
1241,6.5
1242,6.6
1243,6.6
1244,6.4
1245,6.3
1246,6.3
1247,6.5
1248,6.4
1249,6.4
1250,6.5
1251,6.4
1252,6.1
1253,6.2
1254,6
1255,6
1256,6.1
1257,6
1258,5.8
1259,6
1260,5.9
1261,5.7
1262,5.4
1263,5.3
1264,5.1
1265,5.1
1266,4.9
1267,4.7
1268,4.6
1269,4.4
1270,4
1271,3.7
1272,3.6
1273,3.7
1274,3.5
1275,3.3
1276,2.7
1277,2.7
1278,2.5
1279,2.1
1280,1.8
1281,1.7
1282,1.4
1283,1.1
1284,0.9
1285,0.8
1286,1
1287,0.8
1288,0.4
1289,0.4
1290,0.3
1291,0.2
1292,0
1293,-0.1
1294,-0.1
1295,-0.1
1296,0
1297,-0.1
1298,-0.1
1299,-0.3
1300,-0.4
1301,-0.5
1302,-0.6
1303,-0.5
1304,-0.7
1305,-0.6
1306,-0.6
1307,-0.7
1308,-0.5
1309,-0.4
1310,-0.4
1311,-0.3
1312,-0.2
1313,-0.6
1314,-0.6
1315,-0.5
1316,-0.5
1317,-0.6
1318,-0.5
1319,-0.2
1320,-0.2
1321,-0.4
1322,-0.7
1323,-0.8
1324,-0.8
1325,-0.7
1326,-0.6
1327,-0.5
1328,-0.4
1329,-0.7
1330,-0.5
1331,-0.5
1332,-0.5
1333,-0.5
1334,-0.6
1335,-0.5
1336,-0.5
1337,-0.4
1338,-0.4
1339,-0.4
1340,-0.5
1341,-0.5
1342,-0.4
1343,-0.2
1344,-0.3
1345,-0.4
1346,-0.5
1347,-0.4
1348,-0.3
1349,-0.1
1350,-0.2
1351,-0.3
1352,-0.6
1353,-0.8
1354,-0.7
1355,-0.5
1356,-0.5
1357,-0.3
1358,-0.1
1359,0
1360,-0.3
1361,-0.3
1362,-0.3
1363,-0.4
1364,-0.4
1365,-0.3
1366,-0.4
1367,-0.4
1368,-0.3
1369,-0.3
1370,-0.4
1371,-0.5
1372,-0.6
1373,-0.4
1374,-0.2
1375,-0.4
1376,-0.5
1377,-0.6
1378,-0.7
1379,-0.6
1380,-0.5
1381,-0.4
1382,-0.6
1383,-0.9
1384,-0.9
1385,-0.6
1386,-0.4
1387,-0.6
1388,-0.6
1389,-0.6
1390,-0.8
1391,-1
1392,-0.9
1393,-0.8
1394,-0.9
1395,-0.8
1396,-0.5
1397,-0.5
1398,-0.8
1399,-0.8
1400,-0.8
1401,-1
1402,-1.1
1403,-1.1
1404,-1.1
1405,-1.3
1406,-1.5
1407,-1.3
1408,-1.3
1409,-1.3
1410,-1.4
1411,-1.4
1412,-1.4
1413,-1.3
1414,-1.3
1415,-1.4
1416,-1.3
1417,-1.2
1418,-1.2
1419,-1.3
1420,-1.5
1421,-1.5
1422,-1.6
1423,-1.6
1424,-1.7
1425,-1.4
1426,-1.4
1427,-1.3
1428,-1.5
1429,-1.5
1430,-1.6
1431,-1.7
1432,-1.9
1433,-1.9
1434,-2.1
1435,-2
1436,-1.6
1437,-1.4
1438,-1.5
1439,-1.7
1440,-1.7
1441,-1.7
1442,-1.9
1443,-1.7
1444,-1.6
1445,-1.6
1446,-1.7
1447,-1.8
1448,-1.7
1449,-1.7
1450,-1.7
1451,-1.9
1452,-1.9
1453,-1.9
1454,-2.1
1455,-1.7
1456,-1.8
1457,-1.8
1458,-1.8
1459,-1.8
1460,-1.8
1461,-1.6
1462,-1.7
1463,-1.7
1464,-1.9
1465,-2.1
1466,-1.8
1467,-1.7
1468,-1.7
1469,-1.9
1470,-1.8
1471,-1.8
1472,-2
1473,-2
1474,-1.8
1475,-1.8
1476,-1.9
1477,-1.6
1478,-1.5
1479,-1.4
1480,-1.5
1481,-1.6
1482,-1.8
1483,-1.9
1484,-1.8
1485,-1.7
1486,-1.6
1487,-1.6
1488,-1.8
1489,-1.9
1490,-1.8
1491,-1.6
1492,-1.4
1493,-1.3
1494,-1.3
1495,-1.2
1496,-1.2
1497,-1.3
1498,-1.2
1499,-1.4
1500,-1.4
1501,-1.6
1502,-1.5
1503,-1.4
1504,-1.4
1505,-1.2
1506,-1
1507,-1
1508,-1
1509,-1.1
1510,-1.1
1511,-1
1512,-1
1513,-1
1514,-1.2
1515,-1.2
1516,-1.2
1517,-1.2
1518,-0.9
1519,-1
1520,-1.1
1521,-1.4
1522,-1.8
1523,-1.8
1524,-1.9
1525,-1.8
1526,-1.8
1527,-1.9
1528,-1.8
1529,-1.7
1530,-1.8
1531,-1.6
1532,-1.8
1533,-1.8
1534,-2
1535,-2.1
1536,-2.1
1537,-2
1538,-2.2
1539,-2.2
1540,-2.2
1541,-2.1
1542,-2.2
1543,-2.4
1544,-2.4
1545,-2.2
1546,-2.2
1547,-2.2
1548,-2.3
1549,-2.2
1550,-2.2
1551,-2.3
1552,-2.3
1553,-2.1
1554,-2.2
1555,-2.2
1556,-2.3
1557,-2.4
1558,-2.2
1559,-2
1560,-1.9
1561,-2
1562,-2.3
1563,-2.4
1564,-2.4
1565,-2.2
1566,-1.4
1567,-0.5
1568,0.7
1569,2.2
1570,4.3
1571,6.8
1572,9.5
1573,11.4
1574,13.4
1575,15.8
1576,18.4
1577,18.5
1578,17.2
1579,15.4
1580,13.6
1581,10
1582,5.5
1583,0.9
1584,-4.3
1585,-10.2
1586,-16.6
1587,-20.5
1588,-22.6
1589,-23.6
1590,-24.1
1591,-24.2
1592,-23.5
1593,-22.2
1594,-20.5
1595,-18.1
1596,-15.5
1597,-13.3
1598,-11.1
1599,-9.3
1600,-7.8
1601,-6.3
1602,-5.1
1603,-4.1
1604,-3.5
1605,-2.7
1606,-2.2
1607,-2
1608,-1.9
1609,-1.8
1610,-1.8
1611,-1.7
1612,-1.5
1613,-1.5
1614,-1.5
1615,-1.2
1616,-1
1617,-0.8
1618,-0.8
1619,-0.8
1620,-0.8
1621,-0.9
1622,-1
1623,-0.8
1624,-0.8
1625,-0.8
1626,-0.8
1627,-0.6
1628,-0.7
1629,-0.9
1630,-1.1
1631,-0.8
1632,-0.9
1633,-1.2
1634,-1.2
1635,-1
1636,-0.8
1637,-0.9
1638,-0.8
1639,-0.7
1640,-0.6
1641,-0.6
1642,-0.6
1643,-0.3
1644,-0.3
1645,-0.4
1646,-0.3
1647,-0.2
1648,-0.2
1649,-0.3
1650,-0.4
1651,-0.1
1652,-0.1
1653,-0.2
1654,-0.1
1655,-0.2
1656,-0.1
1657,0.1
1658,0.3
1659,0.4
1660,0.4
1661,0.7
1662,0.5
1663,0.5
1664,0.7
1665,0.8
1666,0.8
1667,0.9
1668,1.1
1669,1.3
1670,1.8
1671,1.5
1672,1.5
1673,1.4
1674,1.6
1675,1.8
1676,1.8
1677,2
1678,2.1
1679,2.2
1680,2.4
1681,2.6
1682,2.5
1683,2.5
1684,2.6
1685,3
1686,3.1
1687,3.1
1688,3.1
1689,3.2
1690,3.3
1691,3.5
1692,3.6
1693,3.6
1694,3.7
1695,3.7
1696,3.9
1697,4.1
1698,4.3
1699,4.7
1700,4.8
1701,4.7
1702,4.8
1703,4.8
1704,5
1705,5
1706,5.1
1707,5.4
1708,5.5
1709,5.3
1710,5.6
1711,5.7
1712,5.7
1713,5.7
1714,5.4
1715,5.5
1716,5.5
1717,5.3
1718,5.4
1719,5.6
1720,5.7
1721,5.7
1722,5.6
1723,5.4
1724,5.3
1725,5.2
1726,5.1
1727,5.2
1728,5.3
1729,5.3
1730,5
1731,4.6
1732,4.7
1733,4.5
1734,4.2
1735,4.2
1736,3.9
1737,3.8
1738,3.5
1739,3.3
1740,3
1741,2.8
1742,2.6
1743,2.2
1744,1.9
1745,1.7
1746,1.5
1747,1.6
1748,1.8
1749,1.8
1750,1.6
1751,1.3
1752,0.9
1753,0.6
1754,0.3
1755,0.2
1756,0.1
1757,-0.1
1758,-0.2
1759,-0.2
1760,-0.2
1761,-0.2
1762,-0.4
1763,-0.5
1764,-0.6
1765,-0.6
1766,-0.7
1767,-0.7
1768,-0.7
1769,-0.8
1770,-0.8
1771,-0.8
1772,-1
1773,-1.1
1774,-1
1775,-1
1776,-1
1777,-0.9
1778,-0.9
1779,-0.9
1780,-0.9
1781,-0.9
1782,-1.1
1783,-1
1784,-1.2
1785,-1.3
1786,-1.1
1787,-1
1788,-1
1789,-0.9
1790,-0.7
1791,-0.8
1792,-1
1793,-1
1794,-1.1
1795,-1.3
1796,-1.3
1797,-0.9
1798,-0.7
1799,-0.5
1800,-0.5
1801,-0.7
1802,-0.8
1803,-0.8
1804,-1
1805,-0.9
1806,-1
1807,-0.8
1808,-0.5
1809,-0.5
1810,-0.5
1811,-0.6
1812,-0.6
1813,-0.7
1814,-0.8
1815,-0.8
1816,-0.8
1817,-0.6
1818,-0.6
1819,-0.4
1820,-0.2
1821,-0.4
1822,-0.5
1823,-0.3
1824,-0.2
1825,-0.3
1826,-0.1
1827,0
1828,0
1829,-0.1
1830,0
1831,-0.1
1832,-0.4
1833,-0.6
1834,-0.4
1835,-0.4
1836,-0.5
1837,-0.5
1838,-0.2
1839,-0.1
1840,-0.3
1841,-0.5
1842,-0.4
1843,-0.4
1844,-0.5
1845,-0.4
1846,-0.4
1847,-0.3
1848,-0.2
1849,-0.2
1850,-0.4
1851,-0.6
1852,-0.6
1853,-0.5
1854,-0.5
1855,-0.6
1856,-0.4
1857,-0.3
1858,-0.4
1859,-0.4
1860,-0.3
1861,-0.6
1862,-0.6
1863,-0.8
1864,-0.8
1865,-0.8
1866,-0.9
1867,-1
1868,-1
1869,-1
1870,-0.9
1871,-0.9
1872,-1
1873,-1.1
1874,-1.1
1875,-1.1
1876,-1
1877,-1
1878,-1
1879,-1.1
1880,-1
1881,-1
1882,-1.1
1883,-1.3
1884,-1.2
1885,-0.9
1886,-1.2
1887,-1.1
1888,-1.1
1889,-1.1
1890,-1.3
1891,-1.5
1892,-1.4
1893,-1.5
1894,-1.7
1895,-1.6
1896,-1.5
1897,-1.5
1898,-1.4
1899,-1.3
1900,-1.3
1901,-1.5
1902,-1.5
1903,-1.8
1904,-2
1905,-2
1906,-1.7
1907,-1.3
1908,-1.2
1909,-1.2
1910,-1.2
1911,-1.5
1912,-1.5
1913,-1.5
1914,-1.5
1915,-1.4
1916,-1.3
1917,-1.3
1918,-1.6
1919,-1.5
1920,-1.6
1921,-1.4
1922,-1.5
1923,-1.6
1924,-1.5
1925,-1.6
1926,-1.8
1927,-1.5
1928,-1.4
1929,-1.5
1930,-1.6
1931,-1.5
1932,-1.6
1933,-1.8
1934,-2
1935,-1.7
1936,-1.7
1937,-1.9
1938,-1.8
1939,-1.7
1940,-1.8
1941,-1.8
1942,-1.7
1943,-1.8
1944,-1.8
1945,-1.8
1946,-1.8
1947,-1.7
1948,-1.4
1949,-0.9
1950,-1
1951,-1.2
1952,-1.4
1953,-1.5
1954,-1.7
1955,-1.7
1956,-1.6
1957,-1.7
1958,-1.7
1959,-1.2
1960,-1.1
1961,-1.2
1962,-1.4
1963,-1.2
1964,-1.1
1965,-1
1966,-0.9
1967,-0.9
1968,-0.9
1969,-0.6
1970,-0.6
1971,-0.7
1972,-0.7
1973,-0.4
1974,-0.2
1975,-0.4
1976,-0.6
1977,-0.7
1978,-1
1979,-0.8
1980,-0.8
1981,-0.9
1982,-1.2
1983,-1.3
1984,-1
1985,-0.8
1986,-1
1987,-1
1988,-0.9
1989,-0.9
1990,-1.1
1991,-1.2
1992,-1.2
1993,-1.6
1994,-1.8
1995,-1.6
1996,-1.4
1997,-1.3
1998,-1.4
1999,-1.6
2000,-1.7
2001,-1.7
2002,-2
2003,-2.2
2004,-2.2
2005,-2.1
2006,-2.1
2007,-2
2008,-2
2009,-2
2010,-1.7
2011,-1.7
2012,-1.7
2013,-1.9
2014,-2.2
2015,-2.3
2016,-2.2
2017,-2.1
2018,-2.1
2019,-1.7
2020,-1.8
2021,-1.9
2022,-1.9
2023,-2
2024,-2.1
2025,-2.2
2026,-2.2
2027,-2.1
2028,-2
2029,-2
2030,-2.1
2031,-2.3
2032,-2.1
2033,-1.5
2034,-0.6
2035,0.4
2036,2.1
2037,4.7
2038,7.7
2039,10.4
2040,11.9
2041,13.4
2042,16.2
2043,18.6
2044,18.7
2045,17.8
2046,16.4
2047,14.9
2048,11.6
2049,7.1
2050,2.5
2051,-2.4
2052,-8.8
2053,-15.7
2054,-20
2055,-22.3
2056,-23.4
2057,-23.7
2058,-23.5
2059,-22.7
2060,-21.3
2061,-19.5
2062,-17.3
2063,-14.6
2064,-12.3
2065,-10.5
2066,-8.8
2067,-7.4
2068,-6.1
2069,-5.1
2070,-4.4
2071,-3.7
2072,-3.3
2073,-3.2
2074,-2.9
2075,-2.5
2076,-2.3
2077,-2.4
2078,-2.4
2079,-2.5
2080,-2.4
2081,-2.1
2082,-2
2083,-2.1
2084,-2.2
2085,-2
2086,-1.9
2087,-1.9
2088,-1.9
2089,-1.8
2090,-1.5
2091,-1.5
2092,-1.7
2093,-1.7
2094,-1.6
2095,-1.5
2096,-1.3
2097,-1.3
2098,-1.3
2099,-1.2
2100,-1.3
2101,-1.2
2102,-1.3
2103,-1.1
2104,-0.6
2105,-0.7
2106,-0.8
2107,-0.8
2108,-0.7
2109,-0.9
2110,-0.9
2111,-0.6
2112,-0.6
2113,-0.6
2114,-0.7
2115,-0.8
2116,-0.6
2117,-0.5
2118,-0.2
2119,0
2120,0
2121,0
2122,-0.1
2123,-0.1
2124,-0.1
2125,0
2126,0.2
2127,0.2
2128,0.4
2129,0.4
2130,0.4
2131,0.5
2132,0.7
2133,0.7
2134,0.7
2135,0.9
2136,0.8
2137,0.9
2138,1.1
2139,1.4
2140,1.4
2141,1.4
2142,1.5
2143,1.7
2144,1.8
2145,1.9
2146,2
2147,2.1
2148,2.2
2149,2.3
2150,2.4
2151,2.7
2152,3.1
2153,3.2
2154,3.3
2155,3.5
2156,3.5
2157,3.7
2158,4.1
2159,4.3
2160,4.3
2161,4.1
2162,4
2163,4
2164,4.2
2165,4.5
2166,4.7
2167,5
2168,5.2
2169,5.3
2170,5.3
2171,5.3
2172,5.6
2173,5.6
2174,5.5
2175,5.8
2176,6
2177,5.9
2178,5.9
2179,6
2180,6.1
2181,5.9
2182,5.9
2183,5.8
2184,5.9
2185,6
2186,5.9
2187,5.9
2188,5.9
2189,5.8
2190,5.8
2191,5.5
2192,5.5
2193,5.2
2194,5
2195,4.9
2196,4.7
2197,4.6
2198,4.8
2199,4.8
2200,4.8
2201,4.6
2202,4.2
2203,3.8
2204,3.8
2205,3.8
2206,3.7
2207,3.4
2208,3.2
2209,2.9
2210,2.8
2211,2.2
2212,2
2213,1.9
2214,1.7
2215,1.3
2216,1.2
2217,0.9
2218,0.7
2219,0.6
2220,0.3
2221,0.1
2222,-0.1
2223,-0.3
2224,-0.6
2225,-0.7
2226,-0.8
2227,-0.8
2228,-0.8
2229,-1
2230,-1
2231,-1
2232,-1
2233,-1.1
2234,-1.3
2235,-1.2
2236,-1.1
2237,-1.4
2238,-1.6
2239,-1.7
2240,-1.8
2241,-1.7
2242,-1.6
2243,-1.6
2244,-1.7
2245,-1.8
2246,-1.9
2247,-1.8
2248,-1.9
2249,-1.7
2250,-1.8
2251,-1.9
2252,-1.9
2253,-1.9
2254,-1.8
2255,-1.8
2256,-1.8
2257,-1.9
2258,-1.7
2259,-1.7
2260,-1.9
2261,-1.8
2262,-1.9
2263,-2
2264,-2
2265,-2
2266,-1.9
2267,-1.7
2268,-1.7
2269,-1.7
2270,-1.7
2271,-1.6
2272,-1.8
2273,-2
2274,-1.8
2275,-1.9
2276,-1.9
2277,-1.9
2278,-2
2279,-2
2280,-1.9
2281,-1.8
2282,-2
2283,-2.1
2284,-2.1
2285,-2.1
2286,-2
2287,-1.9
2288,-1.8
2289,-1.7
2290,-1.6
2291,-1.8
2292,-2
2293,-2
2294,-2
2295,-2.1
2296,-2.1
2297,-1.9
2298,-1.6
2299,-1.6
2300,-1.7
2301,-1.7
2302,-1.7
2303,-1.8
2304,-1.8
2305,-1.9
2306,-1.8
2307,-1.8
2308,-1.9
2309,-1.9
2310,-2.1
2311,-2.2
2312,-2.2
2313,-2.1
2314,-2
2315,-1.9
2316,-2.1
2317,-2.1
2318,-2.2
2319,-2.2
2320,-2.2
2321,-2
2322,-1.9
2323,-2.2
2324,-2.4
2325,-2.2
2326,-2.2
2327,-2.1
2328,-2.1
2329,-1.9
2330,-1.9
2331,-2.2
2332,-2.4
2333,-2.6
2334,-2.6
2335,-2.3
2336,-2.3
2337,-2.5
2338,-2.5
2339,-2.6
2340,-2.6
2341,-2.8
2342,-2.7
2343,-2.4
2344,-2.4
2345,-2.4
2346,-2.4
2347,-2.5
2348,-2.4
2349,-2.5
2350,-2.5
2351,-2.5
2352,-2.5
2353,-2.7
2354,-2.6
2355,-2.4
2356,-2.4
2357,-2.4
2358,-2.2
2359,-2.3
2360,-2.3
2361,-2.5
2362,-2.6
2363,-2.6
2364,-2.6
2365,-2.5
2366,-2.7
2367,-2.7
2368,-2.7
2369,-2.6
2370,-2.6
2371,-2.8
2372,-2.9
2373,-2.9
2374,-2.9
2375,-3
2376,-2.8
2377,-2.5
2378,-2.5
2379,-2.5
2380,-2.6
2381,-2.6
2382,-2.7
2383,-2.9
2384,-3
2385,-2.9
2386,-2.9
2387,-2.9
2388,-2.9
2389,-3.1
2390,-3.1
2391,-3.1
2392,-3.2
2393,-3.4
2394,-3.4
2395,-3.3
2396,-3.2
2397,-3
2398,-2.8
2399,-3
2400,-3.2
2401,-3.3
2402,-3.5
2403,-3.3
2404,-3.2
2405,-3.2
2406,-3.3
2407,-3.2
2408,-3.2
2409,-3.2
2410,-3.2
2411,-3.2
2412,-3.1
2413,-3.1
2414,-3.2
2415,-3.3
2416,-3.3
2417,-3.4
2418,-3.4
2419,-3.5
2420,-3.4
2421,-3.5
2422,-3.3
2423,-3.1
2424,-3.2
2425,-3.5
2426,-3.5
2427,-3.4
2428,-3.5
2429,-3.3
2430,-3.2
2431,-3.2
2432,-3.2
2433,-3.2
2434,-3.3
2435,-3.4
2436,-3.3
2437,-3.2
2438,-3.2
2439,-3
2440,-2.9
2441,-3.2
2442,-3.2
2443,-3.5
2444,-3.4
2445,-3.2
2446,-2.6
2447,-2.5
2448,-2.2
2449,-2.3
2450,-2.4
2451,-2.4
2452,-2.4
2453,-2.5
2454,-2.6
2455,-2.6
2456,-2.6
2457,-2.3
2458,-2.1
2459,-2
2460,-2.1
2461,-2.2
2462,-2.3
2463,-2.4
2464,-2.6
2465,-2.8
2466,-2.9
2467,-2.9
2468,-2.9
2469,-2.6
2470,-2.6
2471,-2.9
2472,-3
2473,-3.1
2474,-3.2
2475,-3.3
2476,-3.2
2477,-3.1
2478,-3.2
2479,-3.2
2480,-3.2
2481,-3
2482,-3.2
2483,-3.4
2484,-3.5
2485,-3.7
2486,-3.9
2487,-3.7
2488,-3.6
2489,-3.6
2490,-3.8
2491,-3.9
2492,-3.9
2493,-4
2494,-3.9
2495,-4
2496,-3.9
2497,-3.9
2498,-4
2499,-3.9
2500,-3.7
2501,-3.6
2502,-3.7
2503,-3.8
2504,-3.7
2505,-3.8
2506,-3.9
2507,-4
2508,-4
2509,-4
2510,-4
2511,-4.1
2512,-4.1
2513,-4.2
2514,-4.4
2515,-4.3
2516,-4.1
2517,-3.5
2518,-2.7
2519,-1.4
2520,0.2
2521,2.5
2522,5.5
2523,8.3
2524,9.8
2525,11.3
2526,14.3
2527,17.1
2528,17.6
2529,16.9
2530,15.6
2531,13.7
2532,10
2533,5.1
2534,0.2
2535,-5
2536,-11.5
2537,-18.9
2538,-23.8
2539,-26.4
2540,-27.3
2541,-27.4
2542,-26.8
2543,-25.7
2544,-23.7
2545,-21.5
2546,-19.3
2547,-16.4
2548,-13.7
2549,-11.5
2550,-9.7
2551,-8.5
2552,-7.4
2553,-6.5
2554,-5.6
2555,-4.9
2556,-4.6
2557,-4.1
2558,-3.9
2559,-3.9
2560,-3.6
2561,-3.4
2562,-3.4
2563,-3.4
2564,-3.4
2565,-3.4
2566,-3.3
2567,-3.1
2568,-3
2569,-2.8
2570,-2.8
2571,-2.8
2572,-2.7
2573,-2.7
2574,-2.6
2575,-2.6
2576,-2.6
2577,-2.4
2578,-2.3
2579,-2.3
2580,-2.3
2581,-2.3
2582,-2.3
2583,-2.4
2584,-2.2
2585,-2.2
2586,-2.2
2587,-2.1
2588,-2.1
2589,-2
2590,-1.8
2591,-1.7
2592,-1.6
2593,-1.5
2594,-1.4
2595,-1.3
2596,-1.2
2597,-1.3
2598,-1.2
2599,-1.3
2600,-1.4
2601,-1.3
2602,-1.3
2603,-1.2
2604,-1.2
2605,-1.1
2606,-1
2607,-0.7
2608,-0.6
2609,-0.7
2610,-0.7
2611,-0.7
2612,-0.8
2613,-0.8
2614,-0.6
2615,-0.3
2616,0
2617,0
2618,-0.1
2619,0.2
2620,0.3
2621,0.3
2622,0.2
2623,0.2
2624,0.3
2625,0.3
2626,0.5
2627,0.6
2628,0.7
2629,1.1
2630,1.2
2631,1.2
2632,1.5
2633,1.4
2634,1.4
2635,1.4
2636,1.6
2637,1.8
2638,2.1
2639,2.1
2640,2.2
2641,2.5
2642,2.5
2643,2.5
2644,2.9
2645,3.1
2646,3.2
2647,3.4
2648,3.7
2649,3.8
2650,3.9
2651,4.2
2652,4.2
2653,4
2654,3.9
2655,4.2
2656,4.3
2657,4.5
2658,4.6
2659,4.7
2660,4.7
2661,4.8
2662,4.8
2663,4.8
2664,4.7
2665,4.6
2666,4.4
2667,4.4
2668,4.5
2669,4.6
2670,4.6
2671,4.6
2672,4.6
2673,4.6
2674,4.7
2675,4.4
2676,4.2
2677,4
2678,4.3
2679,4.2
2680,4.1
2681,4
2682,3.8
2683,3.5
2684,3.5
2685,3.4
2686,3.1
2687,2.8
2688,2.6
2689,2.5
2690,2.1
2691,2
2692,1.9
2693,1.7
2694,1.5
2695,1.1
2696,0.8
2697,0.8
2698,0.6
2699,0.4
2700,0.1
2701,-0.1
2702,-0.4
2703,-0.8
2704,-0.9
2705,-1.1
2706,-1
2707,-1.1
2708,-1.4
2709,-1.5
2710,-1.5
2711,-1.9
2712,-2
2713,-2.1
2714,-2.4
2715,-2.5
2716,-2.5
2717,-2.6
2718,-2.6
2719,-2.7
2720,-2.6
2721,-2.6
2722,-2.8
2723,-2.8
2724,-3
2725,-3.1
2726,-2.9
2727,-2.9
2728,-2.8
2729,-2.6
2730,-2.6
2731,-2.8
2732,-2.7
2733,-2.9
2734,-3
2735,-2.9
2736,-2.9
2737,-2.9
2738,-2.7
2739,-2.8
2740,-2.8
2741,-3.1
2742,-3.1
2743,-3.2
2744,-3.1
2745,-3.2
2746,-3
2747,-2.6
2748,-2.5
2749,-2.5
2750,-2.5
2751,-2.5
2752,-2.6
2753,-2.6
2754,-2.7
2755,-2.8
2756,-2.7
2757,-2.7
2758,-2.7
2759,-2.6
2760,-2.6
2761,-2.6
2762,-2.7
2763,-2.7
2764,-2.9
2765,-2.8
2766,-2.6
2767,-2.5
2768,-2.7
2769,-2.8
2770,-2.7
2771,-2.7
2772,-2.6
2773,-2.5
2774,-2.3
2775,-2.2
2776,-2.3
2777,-2.3
2778,-2.2
2779,-2.2
2780,-2.4
2781,-2.4
2782,-2.5
2783,-2.8
2784,-2.6
2785,-2.5
2786,-2.6
2787,-2.6
2788,-2.6
2789,-2.5
2790,-2.3
2791,-2.3
2792,-2.4
2793,-2.3
2794,-2.3
2795,-2.5
2796,-2.6
2797,-2.6
2798,-2.7
2799,-2.6
2800,-2.4
2801,-2.4
2802,-2.5
2803,-2.6
2804,-2.7
2805,-2.6
2806,-2.7
2807,-2.5
2808,-2.4
2809,-2.5
2810,-2.6
2811,-2.8
2812,-2.8
2813,-2.8
2814,-2.9
2815,-2.9
2816,-2.9
2817,-3
2818,-2.9
2819,-2.9
2820,-2.8
2821,-2.6
2822,-2.7
2823,-2.7
2824,-2.8
2825,-3
2826,-2.9
2827,-2.8
2828,-2.6
2829,-2.6
2830,-2.7
2831,-2.8
2832,-2.9
2833,-2.9
2834,-2.9
2835,-2.9
2836,-2.9
2837,-2.9
2838,-3
2839,-3.1
2840,-3.2
2841,-3.1
2842,-3.1
2843,-3.3
2844,-3.4
2845,-3.2
2846,-3.2
2847,-3.1
2848,-3.2
2849,-3.1
2850,-3
2851,-3
2852,-3
2853,-3
2854,-3.1
2855,-3.3
2856,-3.5
2857,-3.4
2858,-3.3
2859,-3.2
2860,-3.2
2861,-3.3
2862,-3.3
2863,-3.3
2864,-3.3
2865,-3.3
2866,-3.2
2867,-3.4
2868,-3.4
2869,-3.4
2870,-3.4
2871,-3.5
2872,-3.5
2873,-3.6
2874,-3.8
2875,-3.7
2876,-3.6
2877,-3.4
2878,-3.3
2879,-3.2
2880,-3
2881,-3.2
2882,-3.2
2883,-3.3
2884,-3.5
2885,-3.5
2886,-3.5
2887,-3.5
2888,-3.6
2889,-3.4
2890,-3.5
2891,-3.3
2892,-3.4
2893,-3.6
2894,-3.6
2895,-3.6
2896,-3.5
2897,-3.3
2898,-3.4
2899,-3.4
2900,-3.4
2901,-3.6
2902,-3.7
2903,-3.5
2904,-3.5
2905,-3.5
2906,-3.4
2907,-3.4
2908,-3.4
2909,-3.3
2910,-3.3
2911,-3.1
2912,-3.1
2913,-3.4
2914,-3.6
2915,-3.6
2916,-3.3
2917,-3.3
2918,-3.5
2919,-3.6
2920,-3.5
2921,-3.2
2922,-3
2923,-3.1
2924,-3.2
2925,-3.2
2926,-3.2
2927,-3.1
2928,-3.1
2929,-2.8
2930,-2.8
2931,-2.9
2932,-2.9
2933,-2.8
2934,-2.6
2935,-2.6
2936,-2.7
2937,-2.5
2938,-2.4
2939,-2.3
2940,-2.1
2941,-2.1
2942,-2.2
2943,-2.2
2944,-2.1
2945,-2.3
2946,-2.4
2947,-2.2
2948,-2.1
2949,-1.8
2950,-1.6
2951,-1.8
2952,-2.2
2953,-2.3
2954,-2.3
2955,-2.4
2956,-2.2
2957,-2.3
2958,-2.4
2959,-2.4
2960,-2.5
2961,-2.6
2962,-2.6
2963,-2.3
2964,-2.5
2965,-2.6
2966,-2.8
2967,-2.8
2968,-2.9
2969,-3
2970,-2.9
2971,-3.1
2972,-3.3
2973,-3.4
2974,-3.4
2975,-3.4
2976,-3
2977,-3
2978,-3.2
2979,-3.3
2980,-3.4
2981,-3.5
2982,-3.6
2983,-3.6
2984,-3.5
2985,-3.4
2986,-3.3
2987,-3.2
2988,-3
2989,-3.1
2990,-3
2991,-2.9
2992,-3.1
2993,-3.3
2994,-3.4
2995,-3.1
2996,-3.1
2997,-3.2
2998,-3.2
2999,-3.1
3000,-3.2
3001,-3.7
3002,-3.8
3003,-3.4
3004,-2.4
3005,-1.2
3006,0.1
3007,2
3008,4.8
3009,7.9
3010,10
3011,11.4
3012,13.6
3013,17.2
3014,19
3015,18.7
3016,17.6
3017,16.2
3018,13.6
3019,8.9
3020,4
3021,-1.1
3022,-7.1
3023,-15.2
3024,-21.2
3025,-24.6
3026,-25.6
3027,-25.9
3028,-25.9
3029,-25
3030,-23.5
3031,-21.6
3032,-19.5
3033,-16.8
3034,-14.1
3035,-11.7
3036,-9.7
3037,-8.1
3038,-6.8
3039,-5.8
3040,-4.8
3041,-4.1
3042,-3.5
3043,-3
3044,-2.8
3045,-2.8
3046,-2.7
3047,-2.4
3048,-2.4
3049,-2.3
3050,-2.1
3051,-1.9
3052,-1.8
3053,-1.8
3054,-2
3055,-2
3056,-1.8
3057,-1.7
3058,-1.5
3059,-1.2
3060,-1.2
3061,-1
3062,-1
3063,-0.9
3064,-1
3065,-1.1
3066,-1
3067,-1.1
3068,-1
3069,-0.9
3070,-0.8
3071,-0.7
3072,-0.7
3073,-0.6
3074,-0.6
3075,-0.5
3076,-0.3
3077,-0.4
3078,-0.3
3079,-0.3
3080,-0.1
3081,0
3082,0
3083,0.3
3084,0.1
3085,0.1
3086,0.1
3087,0.2
3088,0.1
3089,0
3090,0.3
3091,0.5
3092,0.7
3093,0.5
3094,0.4
3095,0.4
3096,0.6
3097,0.6
3098,0.4
3099,0.4
3100,0.6
3101,0.6
3102,0.6
3103,0.7
3104,0.8
3105,1
3106,1.1
3107,1
3108,1.2
3109,1.3
3110,1.4
3111,1.4
3112,1.6
3113,1.6
3114,1.6
3115,1.6
3116,1.8
3117,1.9
3118,1.9
3119,1.9
3120,2
3121,2
3122,2.3
3123,2.5
3124,2.7
3125,2.8
3126,3
3127,3.1
3128,3.2
3129,3.5
3130,3.8
3131,3.7
3132,3.7
3133,3.9
3134,3.8
3135,4
3136,4.4
3137,4.2
3138,4.5
3139,4.7
3140,4.9
3141,5
3142,4.8
3143,4.7
3144,5
3145,5.3
3146,5.3
3147,5.2
3148,5.3
3149,5.4
3150,5.6
3151,5.7
3152,5.6
3153,5.6
3154,5.7
3155,5.7
3156,5.8
3157,5.7
3158,5.6
3159,5.5
3160,5.5
3161,5.4
3162,5.3
3163,5.3
3164,5
3165,5
3166,4.9
3167,4.9
3168,4.8
3169,4.7
3170,4.5
3171,4.1
3172,3.9
3173,3.8
3174,3.7
3175,3.7
3176,3.5
3177,3.4
3178,3
3179,2.6
3180,2.6
3181,2.4
3182,2.1
3183,1.9
3184,1.5
3185,1.2
3186,1.2
3187,0.9
3188,0.8
3189,0.7
3190,0.5
3191,0.3
3192,-0.1
3193,-0.4
3194,-0.5
3195,-0.6
3196,-0.7
3197,-0.9
3198,-1.1
3199,-1.1
3200,-1.1
3201,-1.3
3202,-1.5
3203,-1.5
3204,-1.6
3205,-1.5
3206,-1.6
3207,-1.7
3208,-1.7
3209,-1.6
3210,-1.6
3211,-1.7
3212,-1.9
3213,-1.9
3214,-1.7
3215,-1.7
3216,-1.7
3217,-1.6
3218,-1.4
3219,-1.3
3220,-1.4
3221,-1.5
3222,-1.7
3223,-1.9
3224,-1.9
3225,-1.8
3226,-1.8
3227,-1.7
3228,-1.7
3229,-1.7
3230,-1.8
3231,-2
3232,-2
3233,-1.8
3234,-1.6
3235,-1.6
3236,-1.5
3237,-1.4
3238,-1.5
3239,-1.6
3240,-1.5
3241,-1.4
3242,-1.6
3243,-1.5
3244,-1.4
3245,-1.6
3246,-1.4
3247,-1.4
3248,-1.6
3249,-1.3
3250,-1.3
3251,-1.5
3252,-1.4
3253,-1.5
3254,-1.6
3255,-1.4
3256,-1.3
3257,-1.2
3258,-1.4
3259,-1.5
3260,-1.5
3261,-1.2
3262,-1.1
3263,-1.3
3264,-1.3
3265,-1.4
3266,-1.4
3267,-1.6
3268,-1.5
3269,-1.3
3270,-1.1
3271,-1
3272,-0.8
3273,-0.9
3274,-1
3275,-1.1
3276,-1.1
3277,-1.2
3278,-1.2
3279,-1.1
3280,-1.3
3281,-1.6
3282,-1.5
3283,-1.4
3284,-1.6
3285,-1.5
3286,-1.5
3287,-1.3
3288,-1
3289,-1.1
3290,-1.2
3291,-1.3
3292,-1.3
3293,-1.4
3294,-1.5
3295,-1.5
3296,-1.7
3297,-1.7
3298,-1.5
3299,-1.3
3300,-1.2
3301,-1.4
3302,-1.6
3303,-1.7
3304,-1.6
3305,-1.7
3306,-2
3307,-1.9
3308,-1.9
3309,-1.9
3310,-1.7
3311,-1.7
3312,-1.7
3313,-1.5
3314,-1.6
3315,-1.8
3316,-1.8
3317,-1.6
3318,-1.7
3319,-1.7
3320,-2.1
3321,-1.9
3322,-1.9
3323,-1.9
3324,-1.9
3325,-2.2
3326,-2.3
3327,-2.3
3328,-2.2
3329,-2.2
3330,-2.1
3331,-2.2
3332,-2.3
3333,-2.2
3334,-2.1
3335,-2.2
3336,-2.2
3337,-2.1
3338,-2
3339,-2.2
3340,-2.2
3341,-2.2
3342,-2.4
3343,-2.6
3344,-2.6
3345,-2.7
3346,-2.6
3347,-2.7
3348,-2.6
3349,-2.5
3350,-2.5
3351,-2.4
3352,-2.4
3353,-2.7
3354,-2.9
3355,-2.9
3356,-2.9
3357,-2.6
3358,-2.6
3359,-2.7
3360,-2.6
3361,-2.7
3362,-2.7
3363,-2.7
3364,-2.8
3365,-2.8
3366,-2.7
3367,-2.7
3368,-2.7
3369,-2.6
3370,-2.5
3371,-2.6
3372,-2.5
3373,-2.8
3374,-3
3375,-2.9
3376,-2.7
3377,-2.7
3378,-2.8
3379,-2.9
3380,-2.9
3381,-2.9
3382,-2.9
3383,-3
3384,-2.9
3385,-2.8
3386,-2.9
3387,-2.8
3388,-2.8
3389,-2.8
3390,-2.5
3391,-2.5
3392,-2.7
3393,-2.7
3394,-2.7
3395,-2.7
3396,-2.5
3397,-2.1
3398,-2
3399,-1.7
3400,-1.6
3401,-1.8
3402,-1.7
3403,-1.7
3404,-1.7
3405,-1.9
3406,-1.9
3407,-1.7
3408,-1.7
3409,-1.6
3410,-1.1
3411,-1
3412,-1.1
3413,-1.1
3414,-1.1
3415,-1.1
3416,-0.9
3417,-1.3
3418,-1.5
3419,-1.5
3420,-1.5
3421,-1.4
3422,-1.4
3423,-1.4
3424,-1.6
3425,-1.8
3426,-1.9
3427,-1.8
3428,-1.7
3429,-1.5
3430,-1.3
3431,-1.6
3432,-1.7
3433,-1.7
3434,-1.7
3435,-1.7
3436,-1.8
3437,-1.9
3438,-2
3439,-1.8
3440,-1.7
3441,-1.7
3442,-1.9
3443,-1.8
3444,-2
3445,-2.2
3446,-2.3
3447,-2.3
3448,-2.1
3449,-2
3450,-2.1
3451,-2.2
3452,-2.3
3453,-2.3
3454,-2.4
3455,-2.4
3456,-2.2
3457,-2.1
3458,-2.1
3459,-2.2
3460,-2
3461,-2
3462,-2
3463,-2.2
3464,-2.3
3465,-2
3466,-2
3467,-2.1
3468,-1.8
3469,-1.1
3470,-0.3
3471,0.6
3472,2
3473,3.7
3474,5.9
3475,9
3476,11.5
3477,13.1
3478,15.3
3479,18.1
3480,18.9
3481,17.9
3482,16.1
3483,14
3484,11.5
3485,7.4
3486,3.3
3487,-1.4
3488,-7.3
3489,-14.2
3490,-18.9
3491,-21.5
3492,-22.6
3493,-22.9
3494,-22.8
3495,-22.3
3496,-21.4
3497,-20.1
3498,-17.9
3499,-15.4
3500,-13
3501,-10.7
3502,-8.8
3503,-7.3
3504,-6.1
3505,-4.9
3506,-4
3507,-3.2
3508,-2.4
3509,-1.9
3510,-1.6
3511,-1.4
3512,-1.3
3513,-1.1
3514,-1.1
3515,-1
3516,-0.8
3517,-0.6
3518,-0.5
3519,-0.6
3520,-0.5
3521,-0.1
3522,-0.1
3523,0
3524,-0.2
3525,-0.1
3526,-0.1
3527,-0.1
3528,0
3529,0
3530,0.2
3531,0.4
3532,0.3
3533,0
3534,-0.1
3535,0
3536,0.3
3537,0.2
3538,0.4
3539,0.6
3540,0.7
3541,0.8
3542,0.8
3543,0.7
3544,0.9
3545,0.9
3546,0.8
3547,1
3548,1
3549,1.2
3550,1.4
3551,1.5
3552,1.5
3553,1.5
3554,1.5
3555,1.4
3556,1.6
3557,1.5
3558,1.5
3559,1.6
3560,1.8
3561,1.8
3562,1.7
3563,1.8
3564,1.9
3565,2
3566,2.2
3567,2.1
3568,2.2
3569,2.5
3570,2.7
3571,2.7
3572,2.7
3573,2.7
3574,2.9
3575,2.8
3576,2.9
3577,3.3
3578,3.5
3579,3.5
3580,3.7
3581,3.9
3582,3.9
3583,4
3584,4.2
3585,4.2
3586,4.2
3587,4.3
3588,4.3
3589,4.5
3590,4.8
3591,5
3592,5.1
3593,5.1
3594,5.1
3595,5.1
3596,5.6
3597,5.9
3598,6.1
3599,6.3
3600,6.6
3601,6.7
3602,6.7
3603,6.6
3604,6.6
3605,6.7
3606,6.7
3607,6.8
3608,7.1
3609,7.2
3610,7.2
3611,7.2
3612,7.2
3613,7.2
3614,7.1
3615,7
3616,7
3617,7.1
3618,7.5
3619,7.6
3620,7.7
3621,7.6
3622,7.4
3623,7
3624,7
3625,7
3626,6.8
3627,6.9
3628,6.9
3629,6.8
3630,6.7
3631,6.5
3632,6.2
3633,6.1
3634,6
3635,5.7
3636,5.6
3637,5.4
3638,5.4
3639,5.2
3640,5.2
3641,5.1
3642,4.8
3643,4.7
3644,4.5
3645,4.4
3646,4
3647,3.8
3648,3.8
3649,3.7
3650,3.5
3651,3.1
3652,2.9
3653,2.6
3654,2.3
3655,2
3656,1.9
3657,1.8
3658,1.6
3659,1.3
3660,1.4
3661,1.1
3662,1.1
3663,1
3664,0.8
3665,0.6
3666,0.5
3667,0.5
3668,0.7
3669,0.9
3670,0.9
3671,0.7
3672,0.4
3673,0.3
3674,0.1
3675,0
3676,0
3677,0
3678,0.1
3679,0.2
3680,0.3
3681,0.3
3682,0.1
3683,0
3684,-0.1
3685,-0.2
3686,-0.1
3687,-0.1
3688,0.1
3689,0.3
3690,0.5
3691,0.3
3692,0
3693,-0.2
3694,-0.1
3695,-0.1
3696,-0.2
3697,0
3698,0.1
3699,0
3700,0
3701,0
3702,0
3703,0
3704,0.2
3705,0.1
3706,0
3707,-0.1
3708,-0.1
3709,0
3710,0.1
3711,0.1
3712,0.1
3713,0
3714,0
3715,0
3716,0.1
3717,0.3
3718,0.5
3719,0.3
3720,0
3721,0.2
3722,0.3
3723,0.3
3724,0.4
3725,0.1
3726,0.2
3727,0.3
3728,0.4
3729,0.5
3730,0.6
3731,0.6
3732,0.5
3733,0.5
3734,0.3
3735,0.3
3736,0.2
3737,0.2
3738,0.5
3739,0.6
3740,0.6
3741,0.4
3742,0.3
3743,0.4
3744,0.3
3745,0.3
3746,0.2
3747,0.2
3748,0.3
3749,0.4
3750,0.6
3751,0.6
3752,0.4
3753,0.3
3754,0.1
3755,0
3756,-0.1
3757,0
3758,0.2
3759,0.2
3760,0.1
3761,-0.1
3762,0
3763,0
3764,0
3765,-0.1
3766,0
3767,-0.1
3768,-0.2
3769,-0.2
3770,-0.2
3771,-0.2
3772,-0.2
3773,-0.1
3774,-0.1
3775,-0.2
3776,-0.2
3777,-0.2
3778,-0.4
3779,-0.5
3780,-0.5
3781,-0.7
3782,-0.7
3783,-0.7
3784,-0.7
3785,-0.7
3786,-0.6
3787,-0.5
3788,-0.6
3789,-0.6
3790,-0.6
3791,-0.8
3792,-0.9
3793,-0.7
3794,-0.7
3795,-0.7
3796,-0.7
3797,-0.9
3798,-0.8
3799,-0.6
3800,-0.7
3801,-0.9
3802,-0.9
3803,-0.8
3804,-0.9
3805,-1.1
3806,-1.1
3807,-1.1
3808,-1.2
3809,-1
3810,-1
3811,-1.1
3812,-1
3813,-1
3814,-1.3
3815,-1.3
3816,-1.2
3817,-1
3818,-1
3819,-1.1
3820,-1.1
3821,-1.2
3822,-1.2
3823,-1.2
3824,-1.3
3825,-1.4
3826,-1.4
3827,-1.4
3828,-1.3
3829,-1.2
3830,-1.2
3831,-1.3
3832,-1.5
3833,-1.5
3834,-1.7
3835,-1.8
3836,-1.6
3837,-1.5
3838,-1.5
3839,-1.4
3840,-1.5
3841,-1.5
3842,-1.6
3843,-1.6
3844,-1.8
3845,-1.8
3846,-1.8
3847,-1.7
3848,-1.7
3849,-1.8
3850,-1.7
3851,-1.5
3852,-1.7
3853,-1.7
3854,-1.5
3855,-1.6
3856,-1.4
3857,-1.4
3858,-1.1
3859,-1.1
3860,-1.2
3861,-1
3862,-0.9
3863,-1.2
3864,-1.3
3865,-1.2
3866,-1.3
3867,-1.4
3868,-1.2
3869,-0.9
3870,-0.9
3871,-1.1
3872,-1
3873,-1.1
3874,-0.9
3875,-1
3876,-0.8
3877,-0.8
3878,-0.8
3879,-1
3880,-1
3881,-1
3882,-1.1
3883,-1.1
3884,-1.1
3885,-0.9
3886,-0.9
3887,-1.1
3888,-1.2
3889,-1.3
3890,-1.3
3891,-1.2
3892,-1.4
3893,-1.6
3894,-1.7
3895,-1.7
3896,-1.7
3897,-1.6
3898,-1.7
3899,-1.7
3900,-1.9
3901,-2.1
3902,-2.4
3903,-2.3
3904,-2.2
3905,-2.2
3906,-2.4
3907,-2.4
3908,-2.3
3909,-2.4
3910,-2.3
3911,-2.2
3912,-2.3
3913,-2.5
3914,-2.8
3915,-2.8
3916,-2.6
3917,-2.6
3918,-2.6
3919,-2.4
3920,-2.2
3921,-2.3
3922,-2.4
3923,-2.6
3924,-2.5
3925,-2.3
3926,-2.3
3927,-2.3
3928,-2.5
3929,-2.7
3930,-3
3931,-2.7
3932,-2.2
3933,-1.5
3934,-0.1
3935,1.3
3936,3.5
3937,6.6
3938,9.3
3939,10.9
3940,12.4
3941,15.4
3942,18.3
3943,18.9
3944,17.8
3945,16.4
3946,14.9
3947,11.7
3948,7.4
3949,3.1
3950,-1.9
3951,-8.5
3952,-15.7
3953,-20.4
3954,-23
3955,-24
3956,-24.4
3957,-24.2
3958,-23.4
3959,-21.8
3960,-19.6
3961,-17.5
3962,-15.1
3963,-13
3964,-11
3965,-9.3
3966,-7.7
3967,-6.3
3968,-5.4
3969,-4.5
3970,-3.7
3971,-3.2
3972,-3.1
3973,-2.9
3974,-2.7
3975,-2.7
3976,-2.6
3977,-2.5
3978,-2.6
3979,-2.3
3980,-2.1
3981,-2
3982,-2
3983,-2
3984,-2.1
3985,-1.7
3986,-1.7
3987,-1.7
3988,-1.7
3989,-1.5
3990,-1.5
3991,-1.4
3992,-1.6
3993,-1.5
3994,-1.3
3995,-1.4
3996,-1.2
3997,-1.1
3998,-0.9
3999,-0.9
4000,-0.9
4001,-0.9
4002,-1
4003,-0.9
4004,-0.6
4005,-0.8
4006,-0.8
4007,-0.7
4008,-0.8
4009,-0.5
4010,-0.3
4011,-0.3
4012,-0.3
4013,-0.4
4014,-0.6
4015,-0.7
4016,-0.3
4017,-0.1
4018,-0.1
4019,-0.1
4020,-0.1
4021,0
4022,0.2
4023,0.1
4024,0.2
4025,0.3
4026,0.5
4027,0.4
4028,0.3
4029,0.3
4030,0.5
4031,0.5
4032,0.6
4033,0.8
4034,0.9
4035,0.9
4036,0.9
4037,1
4038,1.2
4039,1.4
4040,1.5
4041,1.4
4042,1.5
4043,1.6
4044,1.6
4045,1.7
4046,1.9
4047,1.9
4048,2.2
4049,2.4
4050,2.5
4051,2.4
4052,2.6
4053,2.6
4054,2.8
4055,3
4056,2.9
4057,3
4058,3.5
4059,3.7
4060,3.9
4061,3.9
4062,3.8
4063,3.8
4064,4
4065,4.2
4066,4.3
4067,4.4
4068,4.4
4069,4.6
4070,4.8
4071,4.8
4072,5
4073,5.1
4074,5
4075,5.1
4076,5.1
4077,5
4078,5.1
4079,5.3
4080,5.3
4081,5.3
4082,5.1
4083,5.1
4084,5.4
4085,5.2
4086,5
4087,5.1
4088,5.1
4089,5
4090,4.9
4091,4.8
4092,4.8
4093,4.5
4094,4.2
4095,4
4096,4
4097,4
4098,4
4099,4.1
4100,3.9
4101,3.7
4102,3.6
4103,3.2
4104,2.9
4105,2.4
4106,2.4
4107,2.4
4108,2.3
4109,2.3
4110,2.1
4111,1.7
4112,1.4
4113,1.2
4114,0.9
4115,0.6
4116,0.4
4117,0.2
4118,0
4119,-0.2
4120,-0.2
4121,-0.5
4122,-0.6
4123,-0.6
4124,-0.7
4125,-1
4126,-1.2
4127,-1.3
4128,-1.3
4129,-1.3
4130,-1.3
4131,-1.4
4132,-1.6
4133,-1.7
4134,-1.8
4135,-2
4136,-1.9
4137,-1.8
4138,-1.8
4139,-1.9
4140,-1.9
4141,-1.9
4142,-2
4143,-2
4144,-2.1
4145,-1.9
4146,-1.8
4147,-1.9
4148,-1.9
4149,-1.9
4150,-1.8
4151,-2
4152,-2.2
4153,-2.2
4154,-2.2
4155,-2.2
4156,-2.1
4157,-2.1
4158,-2.2
4159,-2.1
4160,-1.8
4161,-1.8
4162,-1.7
4163,-1.8
4164,-1.8
4165,-2
4166,-2
4167,-2
4168,-1.8
4169,-1.8
4170,-1.8
4171,-1.9
4172,-2
4173,-1.9
4174,-1.6
4175,-1.7
4176,-1.7
4177,-1.6
4178,-1.6
4179,-1.5
4180,-1.6
4181,-1.7
4182,-1.8
4183,-1.8
4184,-1.8
4185,-1.8
4186,-1.7
4187,-1.6
4188,-1.6
4189,-1.5
4190,-1.5
4191,-1.6
4192,-1.6
4193,-1.6
4194,-1.6
4195,-1.7
4196,-1.5
4197,-1.3
4198,-1.2
4199,-1.3
4200,-1.2
4201,-1.2
4202,-1.4
4203,-1.4
4204,-1.4
4205,-1.6
4206,-1.6
4207,-1.6
4208,-1.5
4209,-1.3
4210,-1.3
4211,-1.5
4212,-1.5
4213,-1.5
4214,-1.5
4215,-1.4
4216,-1.4
4217,-1.6
4218,-1.4
4219,-1.5
4220,-1.5
4221,-1.5
4222,-1.7
4223,-1.6
4224,-1.7
4225,-1.8
4226,-1.9
4227,-1.9
4228,-1.9
4229,-1.8
4230,-1.9
4231,-2.1
4232,-2.2
4233,-2.3
4234,-2.2
4235,-2
4236,-2
4237,-2.1
4238,-2.2
4239,-2.2
4240,-2.1
4241,-2.1
4242,-2.3
4243,-2.3
4244,-2.3
4245,-2.3
4246,-2.2
4247,-2.1
4248,-2.2
4249,-2.2
4250,-2.4
4251,-2.3
4252,-2.4
4253,-2.7
4254,-2.8
4255,-2.7
4256,-2.6
4257,-2.5
4258,-2.5
4259,-2.4
4260,-2.5
4261,-2.6
4262,-2.5
4263,-2.5
4264,-2.6
4265,-2.8
4266,-2.8
4267,-2.8
4268,-2.9
4269,-2.7
4270,-2.7
4271,-2.7
4272,-2.9
4273,-3
4274,-2.9
4275,-3
4276,-2.9
4277,-2.9
4278,-3
4279,-2.9
4280,-2.7
4281,-2.6
4282,-2.6
4283,-2.8
4284,-3.1
4285,-3.1
4286,-3
4287,-2.9
4288,-2.9
4289,-2.8
4290,-2.8
4291,-3
4292,-3.2
4293,-3.3
4294,-3.2
4295,-3.1
4296,-3.2
4297,-3.3
4298,-3.1
4299,-2.9
4300,-3
4301,-3.2
4302,-3.2
4303,-3.2
4304,-3.2
4305,-3.2
4306,-3.1
4307,-3
4308,-3
4309,-3
4310,-2.9
4311,-3
4312,-3.2
4313,-3.2
4314,-3.2
4315,-3
4316,-3
4317,-3.2
4318,-3
4319,-3
4320,-2.9
4321,-2.9
4322,-3
4323,-3
4324,-3.1
4325,-3.4
4326,-3.2
4327,-3.2
4328,-3.2
4329,-2.9
4330,-2.9
4331,-2.9
4332,-2.9
4333,-2.6
4334,-2.7
4335,-2.8
4336,-2.7
4337,-2.7
4338,-2.5
4339,-2.5
4340,-2.3
4341,-2.2
4342,-2.1
4343,-2.1
4344,-2.4
4345,-2.5
4346,-2.3
4347,-2.2
4348,-2.2
4349,-2.5
4350,-2.8
4351,-2.8
4352,-2.7
4353,-2.4
4354,-2.3
4355,-2.4
4356,-2.5
4357,-2.8
4358,-3
4359,-3
4360,-2.9
4361,-2.9
4362,-3
4363,-3
4364,-3
4365,-3.1
4366,-3.1
4367,-2.9
4368,-3
4369,-3
4370,-3.2
4371,-3.5
4372,-3.5
4373,-3.4
4374,-3.5
4375,-3.4
4376,-3.5
4377,-3.7
4378,-3.6
4379,-3.6
4380,-3.5
4381,-3.6
4382,-3.5
4383,-3.6
4384,-3.6
4385,-3.7
4386,-3.7
4387,-3.7
4388,-3.6
4389,-3.6
4390,-3.5
4391,-3.3
4392,-3.6
4393,-3.8
4394,-3.8
4395,-3.7
4396,-3.5
4397,-3.4
4398,-3.5
4399,-4
4400,-4.1
4401,-3.6
4402,-3
4403,-2
4404,-0.5
4405,1.6
4406,4.5
4407,7.4
4408,9.3
4409,10.4
4410,12.7
4411,16.4
4412,18.1
4413,17.7
4414,16.6
4415,14.9
4416,12.6
4417,8.5
4418,3.8
4419,-1.4
4420,-7.4
4421,-14.6
4422,-20.7
4423,-24.2
4424,-25.6
4425,-26.2
4426,-26.3
4427,-25.2
4428,-23.7
4429,-21.8
4430,-19.8
4431,-17.3
4432,-14.5
4433,-12.1
4434,-10.1
4435,-8.7
4436,-7.6
4437,-6.7
4438,-5.7
4439,-4.9
4440,-4.2
4441,-3.8
4442,-3.9
4443,-3.7
4444,-3.4
4445,-3.5
4446,-3.2
4447,-3.1
4448,-2.6
4449,-2.2
4450,-2.1
4451,-2.2
4452,-2.4
4453,-2.4
4454,-2.3
4455,-2.3
4456,-2.1
4457,-2
4458,-2.1
4459,-2.1
4460,-1.8
4461,-1.8
4462,-2
4463,-2
4464,-2
4465,-1.9
4466,-1.8
4467,-1.7
4468,-1.5
4469,-1.4
4470,-1.4
4471,-1.6
4472,-1.5
4473,-1.2
4474,-1.1
4475,-1.1
4476,-1.2
4477,-1.2
4478,-1.3
4479,-1.1
4480,-0.9
4481,-0.6
4482,-0.5
4483,-0.7
4484,-0.8
4485,-0.8
4486,-0.6
4487,-0.6
4488,-0.3
4489,-0.1
4490,-0.2
4491,-0.1
4492,0
4493,0
4494,-0.1
4495,-0.3
4496,-0.1
4497,0.1
4498,0.2
4499,0.3
4500,0.4
4501,0.5
4502,0.3
4503,0.3
4504,0.6
4505,0.8
4506,0.8
4507,0.8
4508,0.8
4509,1
4510,1.3
4511,1.5
4512,1.4
4513,1.4
4514,1.6
4515,1.4
4516,1.4
4517,1.5
4518,1.7
4519,1.9
4520,2.2
4521,2.4
4522,2.4
4523,2.5
4524,2.4
4525,2.5
4526,2.9
4527,3
4528,3.1
4529,3.4
4530,3.7
4531,3.8
4532,3.9
4533,3.9
4534,4
4535,3.9
4536,3.9
4537,4.2
4538,4.5
4539,4.5
4540,4.7
4541,4.8
4542,4.9
4543,4.9
4544,4.8
4545,4.6
4546,4.4
4547,4.6
4548,4.9
4549,5.1
4550,5.1
4551,4.8
4552,4.9
4553,4.8
4554,4.8
4555,4.9
4556,5
4557,4.9
4558,4.8
4559,4.7
4560,4.7
4561,4.7
4562,4.5
4563,4.4
4564,4.3
4565,4
4566,3.7
4567,3.8
4568,3.8
4569,3.5
4570,3.5
4571,3.5
4572,3.1
4573,2.9
4574,2.5
4575,2.1
4576,1.9
4577,1.8
4578,1.7
4579,1.7
4580,1.7
4581,1.4
4582,1.2
4583,0.9
4584,0.7
4585,0.4
4586,0.2
4587,0
4588,-0.4
4589,-0.6
4590,-0.7
4591,-0.9
4592,-0.9
4593,-1.1
4594,-1.2
4595,-1.5
4596,-1.3
4597,-1.3
4598,-1.5
4599,-1.7
4600,-1.7
4601,-1.7
4602,-1.7
4603,-1.9
4604,-2.1
4605,-2
4606,-2.2
4607,-2.3
4608,-2.2
4609,-2.2
4610,-2.1
4611,-2.2
4612,-2.3
4613,-2
4614,-2.2
4615,-2.5
4616,-2.5
4617,-2.5
4618,-2.4
4619,-2.4
4620,-2.4
4621,-2.1
4622,-2
4623,-2.2
4624,-2.2
4625,-2.1
4626,-2.2
4627,-2.2
4628,-2.4
4629,-2.2
4630,-2.2
4631,-2.1
4632,-2.1
4633,-2.3
4634,-2.2
4635,-2.3
4636,-2.2
4637,-2.1
4638,-2.1
4639,-2.1
4640,-2
4641,-2
4642,-2.2
4643,-2.3
4644,-2.4
4645,-2.3
4646,-2
4647,-2
4648,-2
4649,-1.9
4650,-1.8
4651,-1.8
4652,-2.1
4653,-2.1
4654,-2.1
4655,-2.2
4656,-2.2
4657,-1.9
4658,-1.7
4659,-1.6
4660,-1.6
4661,-1.8
4662,-1.9
4663,-1.9
4664,-1.9
4665,-1.7
4666,-1.6
4667,-1.7
4668,-1.7
4669,-1.7
4670,-1.6
4671,-1.7
4672,-1.8
4673,-1.8
4674,-1.7
4675,-1.7
4676,-1.7
4677,-1.6
4678,-1.6
4679,-1.8
4680,-1.6
4681,-1.5
4682,-1.5
4683,-1.5
4684,-1.7
4685,-1.9
4686,-1.8
4687,-1.7
4688,-1.6
4689,-1.7
4690,-1.6
4691,-1.8
4692,-1.7
4693,-1.9
4694,-1.9
4695,-1.9
4696,-1.9
4697,-2
4698,-2
4699,-2.1
4700,-2
4701,-1.9
4702,-1.9
4703,-2.1
4704,-2.2
4705,-2.1
4706,-2.2
4707,-2.2
4708,-2.2
4709,-2.1
4710,-1.9
4711,-2
4712,-2
4713,-2.3
4714,-2.5
4715,-2.6
4716,-2.6
4717,-2.4
4718,-2.3
4719,-2.2
4720,-2.3
4721,-2.3
4722,-2.3
4723,-2.4
4724,-2.4
4725,-2.6
4726,-2.7
4727,-2.7
4728,-2.5
4729,-2.5
4730,-2.4
4731,-2.4
4732,-2.5
4733,-2.6
4734,-2.7
4735,-2.7
4736,-2.5
4737,-2.4
4738,-2.4
4739,-2.5
4740,-2.5
4741,-2.4
4742,-2.6
4743,-2.6
4744,-2.7
4745,-2.8
4746,-2.8
4747,-2.6
4748,-2.5
4749,-2.7
4750,-2.7
4751,-2.8
4752,-2.8
4753,-2.7
4754,-2.7
4755,-2.7
4756,-2.4
4757,-2.3
4758,-2.2
4759,-2.4
4760,-2.5
4761,-2.6
4762,-2.7
4763,-2.8
4764,-2.8
4765,-2.8
4766,-2.7
4767,-2.9
4768,-2.8
4769,-2.8
4770,-2.7
4771,-2.6
4772,-2.7
4773,-3
4774,-2.8
4775,-2.8
4776,-3
4777,-2.9
4778,-2.8
4779,-2.9
4780,-2.9
4781,-2.7
4782,-2.6
4783,-2.8
4784,-3
4785,-2.9
4786,-2.8
4787,-2.6
4788,-2.6
4789,-2.7
4790,-2.6
4791,-2.6
4792,-2.9
4793,-3
4794,-2.8
4795,-2.7
4796,-2.8
4797,-2.8
4798,-2.5
4799,-2.4
4800,-2.4
4801,-2.3
4802,-2.4
4803,-2.5
4804,-2.4
4805,-2.3
4806,-2.3
4807,-2.1
4808,-2
4809,-1.9
4810,-1.8
4811,-1.9
4812,-1.9
4813,-2.1
4814,-2
4815,-2
4816,-2
4817,-1.8
4818,-1.8
4819,-1.9
4820,-2
4821,-2.1
4822,-2.3
4823,-2.5
4824,-2.4
4825,-2.4
4826,-2.5
4827,-2.6
4828,-2.5
4829,-2.6
4830,-2.7
4831,-2.7
4832,-2.8
4833,-3
4834,-2.9
4835,-3.1
4836,-2.9
4837,-2.9
4838,-3.1
4839,-3.3
4840,-3.5
4841,-3.7
4842,-3.5
4843,-3.5
4844,-3.5
4845,-3.7
4846,-3.7
4847,-3.6
4848,-3.8
4849,-3.8
4850,-3.8
4851,-3.7
4852,-3.6
4853,-3.8
4854,-3.8
4855,-3.8
4856,-3.8
4857,-3.9
4858,-3.8
4859,-3.5
4860,-3.6
4861,-3.8
4862,-3.8
4863,-3.6
4864,-3.6
4865,-3.8
4866,-3.6
4867,-3.7
4868,-3.8
4869,-3.8
4870,-3.9
4871,-3.8
4872,-3.2
4873,-2.3
4874,-1
4875,0.4
4876,2.5
4877,5.7
4878,8.5
4879,9.9
4880,12.1
4881,15.4
4882,18
4883,18.3
4884,17.1
4885,15.2
4886,13.1
4887,8.9
4888,4.3
4889,-0.5
4890,-6.3
4891,-13.9
4892,-20.8
4893,-24.8
4894,-26.6
4895,-27.3
4896,-27.6
4897,-26.8
4898,-25.4
4899,-23.4
4900,-21.3
4901,-19.1
4902,-16
4903,-13.2
4904,-11.1
4905,-9.5
4906,-8.2
4907,-6.9
4908,-6.1
4909,-5.5
4910,-4.4
4911,-3.9
4912,-3.6
4913,-3.6
4914,-3.6
4915,-3.7
4916,-3.4
4917,-3.4
4918,-3.2
4919,-3.1
4920,-2.9
4921,-2.6
4922,-2.6
4923,-2.8
4924,-2.8
4925,-2.8
4926,-2.7
4927,-2.7
4928,-2.5
4929,-2.7
4930,-2.3
4931,-2.2
4932,-2.1
4933,-2.1
4934,-2.3
4935,-2.4
4936,-2.4
4937,-2.4
4938,-2.3
4939,-2
4940,-1.7
4941,-1.7
4942,-1.9
4943,-1.8
4944,-1.8
4945,-1.9
4946,-1.8
4947,-1.7
4948,-1.6
4949,-1.5
4950,-1.4
4951,-1.5
4952,-1.5
4953,-1.6
4954,-1.3
4955,-1.3
4956,-1.1
4957,-1.1
4958,-0.9
4959,-0.9
4960,-0.6
4961,-0.5
4962,-0.6
4963,-0.6
4964,-0.7
4965,-0.7
4966,-0.6
4967,-0.4
4968,-0.4
4969,-0.2
4970,-0.1
4971,0
4972,-0.2
4973,-0.1
4974,0.2
4975,0.3
4976,0.3
4977,0.2
4978,0.3
4979,0.4
4980,0.6
4981,0.7
4982,0.8
4983,1
4984,1.1
4985,1.2
4986,1.3
4987,1.7
4988,1.9
4989,1.8
4990,1.8
4991,1.8
4992,1.8
4993,1.9
4994,2
4995,2.1
4996,2.1
4997,2.3
4998,2.7
4999,2.8
5000,3.1
