TS,Reading,Flag,TS2,Reading2,Flag2
1,-27,5,2000,-31,5
2,-27,5,2001,-31,5
3,-27,5,2002,-31,5
4,-29,5,2003,-32,5
5,-30,5,2004,-34,5
6,-30,5,2005,-33,5
7,-30,5,2006,-32,5
8,-30,5,2007,-31,5
9,-29,5,2008,-32,5
10,-29,5,2009,-32,5
11,-29,5,2010,-32,5
12,-29,5,2011,-31,5
13,-30,5,2012,-31,5
14,-30,5,2013,-32,5
15,-29,5,2014,-33,5
16,-29,5,2015,-32,5
17,-29,5,2016,-31,5
18,-30,5,2017,-31,5
19,-29,5,2018,-31,5
20,-29,5,2019,-32,5
21,-30,5,2020,-32,5
22,-31,5,2021,-30,5
23,-30,5,2022,-30,5
24,-27,5,2023,-30,5
25,-25,5,2024,-31,5
26,-26,5,2025,-30,5
27,-25,5,2026,-30,5
28,-25,5,2027,-29,5
29,-26,5,2028,-29,5
30,-26,5,2029,-29,5
31,-27,5,2030,-28,5
32,-28,5,2031,-28,5
33,-29,5,2032,-28,5
34,-30,5,2033,-30,5
35,-28,5,2034,-30,5
36,-28,5,2035,-29,5
37,-27,5,2036,-28,5
38,-26,5,2037,-30,5
39,-26,5,2038,-32,5
40,-26,5,2039,-33,5
41,-27,5,2040,-33,5
42,-27,5,2041,-33,5
43,-28,5,2042,-32,5
44,-26,5,2043,-31,5
45,-27,5,2044,-30,5
46,-28,5,2045,-28,5
47,-29,5,2046,-29,5
48,-29,5,2047,-29,5
49,-28,5,2048,-31,5
50,-28,5,2049,-32,5
51,-28,5,2050,-32,5
52,-28,5,2051,-31,5
53,-28,5,2052,-31,5
54,-28,5,2053,-30,5
55,-27,5,2054,-30,5
56,-27,5,2055,-30,5
57,-27,5,2056,-31,5
58,-28,5,2057,-32,5
59,-28,5,2058,-32,5
60,-27,5,2059,-31,5
61,-26,5,2060,-30,5
62,-25,5,2061,-30,5
63,-23,5,2062,-31,5
64,-23,5,2063,-32,5
65,-23,5,2064,-32,5
66,-23,5,2065,-31,5
67,-23,5,2066,-31,5
68,-21,5,2067,-31,5
69,-20,5,2068,-31,5
70,-20,5,2069,-32,5
71,-21,5,2070,-31,5
72,-20,5,2071,-30,5
73,-19,5,2072,-30,5
74,-19,5,2073,-29,5
75,-19,5,2074,-30,5
76,-19,5,2075,-30,5
77,-18,5,2076,-28,5
78,-19,5,2077,-27,5
79,-21,5,2078,-28,5
80,-22,5,2079,-29,5
81,-24,5,2080,-28,5
82,-27,5,2081,-29,5
83,-28,5,2082,-30,5
84,-28,5,2083,-30,5
85,-29,5,2084,-30,5
86,-31,5,2085,-30,5
87,-31,5,2086,-29,5
88,-30,5,2087,-29,5
89,-29,5,2088,-30,5
90,-29,5,2089,-29,5
91,-28,5,2090,-29,5
92,-28,5,2091,-29,5
93,-28,5,2092,-29,5
94,-27,5,2093,-29,5
95,-25,5,2094,-28,5
96,-24,5,2095,-27,5
97,-22,5,2096,-27,5
98,-20,5,2097,-26,5
99,-19,5,2098,-26,5
100,-19,5,2099,-27,5
101,-19,5,2100,-26,5
102,-20,5,2101,-24,5
103,-20,5,2102,-23,5
104,-20,5,2103,-22,5
105,-21,5,2104,-22,5
106,-21,5,2105,-22,5
107,-23,5,2106,-21,5
108,-25,5,2107,-21,5
109,-27,5,2108,-22,5
110,-29,5,2109,-22,5
111,-30,5,2110,-23,5
112,-32,5,2111,-24,5
113,-34,5,2112,-24,5
114,-33,5,2113,-24,5
115,-33,5,2114,-24,5
116,-33,5,2115,-25,5
117,-32,5,2116,-26,5
118,-31,5,2117,-26,5
119,-31,5,2118,-27,5
120,-30,5,2119,-27,5
121,-31,5,2120,-27,5
122,-31,5,2121,-27,5
123,-31,5,2122,-28,5
124,-30,5,2123,-28,5
125,-29,5,2124,-29,5
126,-29,5,2125,-28,5
127,-29,5,2126,-25,5
128,-30,5,2127,-23,5
129,-30,5,2128,-22,5
130,-30,5,2129,-21,5
131,-30,5,2130,-21,5
132,-30,5,2131,-22,5
133,-29,5,2132,-22,5
134,-30,5,2133,-22,5
135,-31,5,2134,-23,5
136,-31,5,2135,-25,5
137,-31,5,2136,-26,5
138,-30,5,2137,-28,5
139,-28,5,2138,-28,5
140,-25,5,2139,-29,5
141,-20,5,2140,-31,5
142,-15,5,2141,-32,5
143,-5,5,2142,-33,5
144,17,5,2143,-34,5
145,46,5,2144,-36,5
146,75,5,2145,-36,5
147,104,5,2146,-35,5
148,135,5,2147,-36,5
149,152,5,2148,-36,5
150,152,5,2149,-35,5
151,152,5,2150,-34,5
152,152,5,2151,-34,5
153,152,5,2152,-34,5
154,152,5,2153,-34,5
155,152,5,2154,-34,5
156,152,5,2155,-35,5
157,140,5,2156,-35,5
158,50,5,2157,-35,5
159,-29,5,2158,-36,5
160,-79,5,2159,-36,5
161,-79,5,2160,-36,5
162,-79,5,2161,-35,5
163,-79,5,2162,-35,5
164,-79,5,2163,-35,5
165,-79,5,2164,-35,5
166,-79,5,2165,-33,5
167,-79,5,2166,-32,5
168,-79,5,2167,-31,5
169,-66,5,2168,-31,5
170,-56,5,2169,-31,5
171,-48,5,2170,-29,5
172,-42,5,2171,-27,5
173,-38,5,2172,-22,5
174,-35,5,2173,-16,5
175,-31,5,2174,-5,5
176,-27,5,2175,14,5
177,-26,5,2176,40,5
178,-24,5,2177,64,5
179,-21,5,2178,92,5
180,-18,5,2179,125,5
181,-16,5,2180,152,5
182,-15,5,2181,152,5
183,-15,5,2182,152,5
184,-15,5,2183,152,5
185,-16,5,2184,152,5
186,-14,5,2185,152,5
187,-13,5,2186,152,5
188,-12,5,2187,152,5
189,-12,5,2188,152,5
190,-11,5,2189,116,5
191,-11,5,2190,27,5
192,-11,5,2191,-44,5
193,-12,5,2192,-79,5
194,-12,5,2193,-79,5
195,-12,5,2194,-79,5
196,-11,5,2195,-79,5
197,-11,5,2196,-79,5
198,-11,5,2197,-79,5
199,-11,5,2198,-79,5
200,-9,5,2199,-79,5
201,-9,5,2200,-71,5
202,-8,5,2201,-60,5
203,-7,5,2202,-52,5
204,-7,5,2203,-45,5
205,-7,5,2204,-41,5
206,-6,5,2205,-39,5
207,-6,5,2206,-35,5
208,-5,5,2207,-32,5
209,-4,5,2208,-28,5
210,-4,5,2209,-26,5
211,-3,5,2210,-23,5
212,-3,5,2211,-21,5
213,-3,5,2212,-21,5
214,-3,5,2213,-21,5
215,-3,5,2214,-21,5
216,-3,5,2215,-21,5
217,-2,5,2216,-20,5
218,-1,5,2217,-19,5
219,-1,5,2218,-18,5
220,-1,5,2219,-18,5
221,-2,5,2220,-17,5
222,-3,5,2221,-16,5
223,-3,5,2222,-16,5
224,-2,5,2223,-15,5
225,-2,5,2224,-15,5
226,-1,5,2225,-15,5
227,0,5,2226,-14,5
228,0,5,2227,-13,5
229,1,5,2228,-13,5
230,2,5,2229,-12,5
231,3,5,2230,-11,5
232,4,5,2231,-10,5
233,5,5,2232,-9,5
234,6,5,2233,-9,5
235,7,5,2234,-11,5
236,8,5,2235,-11,5
237,10,5,2236,-11,5
238,11,5,2237,-10,5
239,11,5,2238,-9,5
240,11,5,2239,-9,5
241,13,5,2240,-8,5
242,15,5,2241,-7,5
243,17,5,2242,-7,5
244,18,5,2243,-7,5
245,19,5,2244,-6,5
246,20,5,2245,-5,5
247,21,5,2246,-4,5
248,22,5,2247,-4,5
249,22,5,2248,-5,5
250,25,5,2249,-6,5
251,27,5,2250,-6,5
252,29,5,2251,-6,5
253,31,5,2252,-4,5
254,32,5,2253,-3,5
255,35,5,2254,-3,5
256,37,5,2255,-3,5
257,39,5,2256,-2,5
258,40,5,2257,-1,5
259,42,5,2258,0,5
260,43,5,2259,1,5
261,46,5,2260,0,5
262,48,5,2261,0,5
263,50,5,2262,2,5
264,53,5,2263,4,5
265,55,5,2264,6,5
266,57,5,2265,6,5
267,60,5,2266,6,5
268,63,5,2267,7,5
269,67,5,2268,9,5
270,71,5,2269,10,5
271,75,5,2270,10,5
272,77,5,2271,11,5
273,78,5,2272,12,5
274,80,5,2273,12,5
275,82,5,2274,12,5
276,86,5,2275,13,5
277,89,5,2276,13,5
278,92,5,2277,13,5
279,95,5,2278,14,5
280,97,5,2279,15,5
281,99,5,2280,17,5
282,101,5,2281,19,5
283,103,5,2282,20,5
284,105,5,2283,23,5
285,107,5,2284,25,5
286,109,5,2285,27,5
287,111,5,2286,29,5
288,112,5,2287,31,5
289,113,5,2288,33,5
290,114,5,2289,34,5
291,116,5,2290,35,5
292,116,5,2291,36,5
293,115,5,2292,38,5
294,115,5,2293,40,5
295,114,5,2294,43,5
296,112,5,2295,45,5
297,110,5,2296,47,5
298,107,5,2297,49,5
299,104,5,2298,51,5
300,101,5,2299,53,5
301,99,5,2300,55,5
302,96,5,2301,57,5
303,92,5,2302,60,5
304,87,5,2303,63,5
305,82,5,2304,66,5
306,77,5,2305,68,5
307,74,5,2306,71,5
308,70,5,2307,74,5
309,66,5,2308,76,5
310,62,5,2309,78,5
311,56,5,2310,81,5
312,49,5,2311,84,5
313,44,5,2312,87,5
314,38,5,2313,90,5
315,33,5,2314,93,5
316,27,5,2315,95,5
317,22,5,2316,97,5
318,19,5,2317,100,5
319,16,5,2318,102,5
320,12,5,2319,102,5
321,9,5,2320,104,5
322,5,5,2321,106,5
323,2,5,2322,106,5
324,-1,5,2323,106,5
325,-4,5,2324,106,5
326,-7,5,2325,107,5
327,-9,5,2326,106,5
328,-10,5,2327,104,5
329,-13,5,2328,103,5
330,-15,5,2329,103,5
331,-16,5,2330,103,5
332,-17,5,2331,101,5
333,-18,5,2332,99,5
334,-18,5,2333,96,5
335,-19,5,2334,93,5
336,-18,5,2335,90,5
337,-18,5,2336,85,5
338,-19,5,2337,81,5
339,-21,5,2338,77,5
340,-22,5,2339,72,5
341,-22,5,2340,66,5
342,-21,5,2341,60,5
343,-22,5,2342,55,5
344,-23,5,2343,50,5
345,-24,5,2344,45,5
346,-25,5,2345,40,5
347,-27,5,2346,35,5
348,-28,5,2347,31,5
349,-29,5,2348,28,5
350,-31,5,2349,25,5
351,-31,5,2350,19,5
352,-31,5,2351,14,5
353,-31,5,2352,10,5
354,-30,5,2353,7,5
355,-29,5,2354,4,5
356,-29,5,2355,2,5
357,-30,5,2356,0,5
358,-31,5,2357,-1,5
359,-31,5,2358,-3,5
360,-31,5,2359,-6,5
361,-31,5,2360,-8,5
362,-32,5,2361,-10,5
363,-32,5,2362,-12,5
364,-32,5,2363,-14,5
365,-32,5,2364,-16,5
366,-32,5,2365,-18,5
367,-31,5,2366,-20,5
368,-31,5,2367,-21,5
369,-31,5,2368,-22,5
370,-31,5,2369,-23,5
371,-32,5,2370,-24,5
372,-31,5,2371,-24,5
373,-31,5,2372,-24,5
374,-31,5,2373,-24,5
375,-31,5,2374,-24,5
376,-32,5,2375,-25,5
377,-33,5,2376,-26,5
378,-33,5,2377,-27,5
379,-32,5,2378,-26,5
380,-32,5,2379,-26,5
381,-33,5,2380,-26,5
382,-32,5,2381,-26,5
383,-31,5,2382,-26,5
384,-30,5,2383,-27,5
385,-29,5,2384,-27,5
386,-28,5,2385,-27,5
387,-29,5,2386,-26,5
388,-29,5,2387,-26,5
389,-28,5,2388,-26,5
390,-28,5,2389,-27,5
391,-27,5,2390,-28,5
392,-27,5,2391,-28,5
393,-28,5,2392,-28,5
394,-28,5,2393,-27,5
395,-27,5,2394,-26,5
396,-27,5,2395,-27,5
397,-27,5,2396,-28,5
398,-27,5,2397,-29,5
399,-27,5,2398,-30,5
400,-27,5,2399,-31,5
401,-27,5,2400,-31,5
402,-27,5,2401,-30,5
403,-27,5,2402,-30,5
404,-27,5,2403,-30,5
405,-25,5,2404,-30,5
406,-25,5,2405,-30,5
407,-24,5,2406,-31,5
408,-25,5,2407,-31,5
409,-26,5,2408,-32,5
410,-26,5,2409,-32,5
411,-26,5,2410,-32,5
412,-27,5,2411,-31,5
413,-26,5,2412,-31,5
414,-25,5,2413,-33,5
415,-24,5,2414,-32,5
416,-24,5,2415,-32,5
417,-24,5,2416,-32,5
418,-23,5,2417,-32,5
419,-22,5,2418,-33,5
420,-23,5,2419,-32,5
421,-24,5,2420,-32,5
422,-25,5,2421,-33,5
423,-26,5,2422,-32,5
424,-26,5,2423,-33,5
425,-27,5,2424,-34,5
426,-27,5,2425,-35,5
427,-27,5,2426,-36,5
428,-27,5,2427,-36,5
429,-28,5,2428,-35,5
430,-29,5,2429,-34,5
431,-29,5,2430,-32,5
432,-27,5,2431,-31,5
433,-26,5,2432,-31,5
434,-26,5,2433,-31,5
435,-26,5,2434,-30,5
436,-26,5,2435,-30,5
437,-26,5,2436,-29,5
438,-26,5,2437,-29,5
439,-26,5,2438,-29,5
440,-28,5,2439,-28,5
441,-28,5,2440,-28,5
442,-28,5,2441,-29,5
443,-30,5,2442,-30,5
444,-31,5,2443,-29,5
445,-31,5,2444,-29,5
446,-30,5,2445,-29,5
447,-29,5,2446,-30,5
448,-29,5,2447,-31,5
449,-29,5,2448,-31,5
450,-30,5,2449,-30,5
451,-29,5,2450,-30,5
452,-28,5,2451,-30,5
453,-28,5,2452,-29,5
454,-28,5,2453,-30,5
455,-29,5,2454,-30,5
456,-30,5,2455,-28,5
457,-31,5,2456,-25,5
458,-32,5,2457,-25,5
459,-31,5,2458,-25,5
460,-31,5,2459,-25,5
461,-31,5,2460,-26,5
462,-31,5,2461,-28,5
463,-32,5,2462,-29,5
464,-32,5,2463,-30,5
465,-33,5,2464,-31,5
466,-33,5,2465,-31,5
467,-32,5,2466,-30,5
468,-31,5,2467,-30,5
469,-31,5,2468,-29,5
470,-32,5,2469,-28,5
471,-33,5,2470,-27,5
472,-32,5,2471,-27,5
473,-31,5,2472,-28,5
474,-31,5,2473,-28,5
475,-31,5,2474,-27,5
476,-31,5,2475,-27,5
477,-32,5,2476,-28,5
478,-32,5,2477,-31,5
479,-31,5,2478,-33,5
480,-31,5,2479,-33,5
481,-31,5,2480,-33,5
482,-31,5,2481,-31,5
483,-31,5,2482,-31,5
484,-31,5,2483,-30,5
485,-32,5,2484,-31,5
486,-32,5,2485,-29,5
487,-32,5,2486,-29,5
488,-32,5,2487,-29,5
489,-33,5,2488,-30,5
490,-33,5,2489,-29,5
491,-32,5,2490,-30,5
492,-32,5,2491,-30,5
493,-33,5,2492,-30,5
494,-32,5,2493,-30,5
495,-33,5,2494,-30,5
496,-31,5,2495,-29,5
497,-31,5,2496,-28,5
498,-33,5,2497,-29,5
499,-34,5,2498,-29,5
500,-35,5,2499,-29,5
501,-35,5,2500,-30,5
502,-34,5,2501,-32,5
503,-33,5,2502,-32,5
504,-33,5,2503,-33,5
505,-33,5,2504,-33,5
506,-34,5,2505,-33,5
507,-35,5,2506,-34,5
508,-35,5,2507,-34,5
509,-35,5,2508,-33,5
510,-34,5,2509,-32,5
511,-33,5,2510,-31,5
512,-33,5,2511,-31,5
513,-33,5,2512,-31,5
514,-33,5,2513,-31,5
515,-33,5,2514,-31,5
516,-33,5,2515,-30,5
517,-33,5,2516,-30,5
518,-32,5,2517,-31,5
519,-31,5,2518,-32,5
520,-31,5,2519,-33,5
521,-32,5,2520,-32,5
522,-31,5,2521,-32,5
523,-31,5,2522,-32,5
524,-30,5,2523,-31,5
525,-30,5,2524,-32,5
526,-31,5,2525,-34,5
527,-31,5,2526,-35,5
528,-32,5,2527,-34,5
529,-32,5,2528,-32,5
530,-32,5,2529,-32,5
531,-32,5,2530,-32,5
532,-30,5,2531,-32,5
533,-29,5,2532,-32,5
534,-29,5,2533,-31,5
535,-31,5,2534,-29,5
536,-33,5,2535,-29,5
537,-33,5,2536,-28,5
538,-33,5,2537,-27,5
539,-34,5,2538,-27,5
540,-35,5,2539,-29,5
541,-34,5,2540,-29,5
542,-33,5,2541,-29,5
543,-33,5,2542,-28,5
544,-34,5,2543,-28,5
545,-33,5,2544,-28,5
546,-33,5,2545,-29,5
547,-33,5,2546,-29,5
548,-32,5,2547,-29,5
549,-32,5,2548,-29,5
550,-32,5,2549,-29,5
551,-32,5,2550,-27,5
552,-32,5,2551,-27,5
553,-31,5,2552,-27,5
554,-30,5,2553,-29,5
555,-31,5,2554,-29,5
556,-31,5,2555,-28,5
557,-30,5,2556,-28,5
558,-31,5,2557,-30,5
559,-31,5,2558,-30,5
560,-31,5,2559,-30,5
561,-31,5,2560,-30,5
562,-33,5,2561,-29,5
563,-33,5,2562,-29,5
564,-33,5,2563,-28,5
565,-33,5,2564,-27,5
566,-32,5,2565,-27,5
567,-31,5,2566,-27,5
568,-30,5,2567,-27,5
569,-30,5,2568,-27,5
570,-29,5,2569,-26,5
571,-28,5,2570,-26,5
572,-28,5,2571,-27,5
573,-28,5,2572,-28,5
574,-28,5,2573,-28,5
575,-29,5,2574,-29,5
576,-28,5,2575,-28,5
577,-26,5,2576,-28,5
578,-25,5,2577,-28,5
579,-25,5,2578,-28,5
580,-24,5,2579,-27,5
581,-24,5,2580,-28,5
582,-23,5,2581,-27,5
583,-22,5,2582,-26,5
584,-22,5,2583,-27,5
585,-22,5,2584,-28,5
586,-23,5,2585,-28,5
587,-24,5,2586,-28,5
588,-25,5,2587,-28,5
589,-25,5,2588,-27,5
590,-27,5,2589,-27,5
591,-29,5,2590,-27,5
592,-30,5,2591,-27,5
593,-30,5,2592,-28,5
594,-31,5,2593,-27,5
595,-31,5,2594,-26,5
596,-31,5,2595,-27,5
597,-31,5,2596,-27,5
598,-31,5,2597,-27,5
599,-30,5,2598,-27,5
600,-29,5,2599,-27,5
601,-28,5,2600,-27,5
602,-28,5,2601,-27,5
603,-28,5,2602,-27,5
604,-27,5,2603,-27,5
605,-25,5,2604,-28,5
606,-23,5,2605,-27,5
607,-22,5,2606,-25,5
608,-22,5,2607,-24,5
609,-23,5,2608,-25,5
610,-23,5,2609,-25,5
611,-22,5,2610,-25,5
612,-22,5,2611,-24,5
613,-22,5,2612,-24,5
614,-23,5,2613,-24,5
615,-26,5,2614,-24,5
616,-28,5,2615,-24,5
617,-30,5,2616,-23,5
618,-32,5,2617,-24,5
619,-34,5,2618,-23,5
620,-36,5,2619,-24,5
621,-37,5,2620,-25,5
622,-36,5,2621,-26,5
623,-35,5,2622,-27,5
624,-36,5,2623,-28,5
625,-36,5,2624,-28,5
626,-38,5,2625,-29,5
627,-38,5,2626,-30,5
628,-38,5,2627,-30,5
629,-38,5,2628,-32,5
630,-37,5,2629,-32,5
631,-37,5,2630,-31,5
632,-36,5,2631,-30,5
633,-36,5,2632,-30,5
634,-37,5,2633,-31,5
635,-37,5,2634,-30,5
636,-36,5,2635,-30,5
637,-36,5,2636,-29,5
638,-36,5,2637,-27,5
639,-36,5,2638,-26,5
640,-36,5,2639,-26,5
641,-35,5,2640,-24,5
642,-34,5,2641,-23,5
643,-34,5,2642,-23,5
644,-34,5,2643,-23,5
645,-34,5,2644,-25,5
646,-35,5,2645,-25,5
647,-33,5,2646,-26,5
648,-30,5,2647,-28,5
649,-28,5,2648,-31,5
650,-26,5,2649,-35,5
651,-24,5,2650,-37,5
652,-19,5,2651,-38,5
653,-7,5,2652,-39,5
654,13,5,2653,-39,5
655,36,5,2654,-39,5
656,60,5,2655,-38,5
657,87,5,2656,-38,5
658,120,5,2657,-36,5
659,152,5,2658,-36,5
660,152,5,2659,-36,5
661,152,5,2660,-36,5
662,152,5,2661,-37,5
663,152,5,2662,-38,5
664,152,5,2663,-40,5
665,152,5,2664,-38,5
666,152,5,2665,-37,5
667,152,5,2666,-37,5
668,93,5,2667,-37,5
669,5,5,2668,-37,5
670,-63,5,2669,-38,5
671,-79,5,2670,-38,5
672,-79,5,2671,-38,5
673,-79,5,2672,-39,5
674,-79,5,2673,-40,5
675,-79,5,2674,-39,5
676,-79,5,2675,-39,5
677,-79,5,2676,-39,5
678,-79,5,2677,-38,5
679,-66,5,2678,-36,5
680,-56,5,2679,-33,5
681,-49,5,2680,-30,5
682,-43,5,2681,-27,5
683,-40,5,2682,-22,5
684,-38,5,2683,-12,5
685,-36,5,2684,11,5
686,-33,5,2685,42,5
687,-30,5,2686,72,5
688,-27,5,2687,103,5
689,-25,5,2688,134,5
690,-23,5,2689,152,5
691,-22,5,2690,152,5
692,-22,5,2691,152,5
693,-22,5,2692,152,5
694,-21,5,2693,152,5
695,-20,5,2694,152,5
696,-19,5,2695,152,5
697,-18,5,2696,152,5
698,-17,5,2697,139,5
699,-16,5,2698,49,5
700,-14,5,2699,-29,5
701,-14,5,2700,-79,5
702,-16,5,2701,-79,5
703,-16,5,2702,-79,5
704,-17,5,2703,-79,5
705,-16,5,2704,-79,5
706,-16,5,2705,-79,5
707,-15,5,2706,-79,5
708,-15,5,2707,-79,5
709,-14,5,2708,-79,5
710,-13,5,2709,-76,5
711,-12,5,2710,-64,5
712,-12,5,2711,-55,5
713,-12,5,2712,-49,5
714,-12,5,2713,-44,5
715,-11,5,2714,-41,5
716,-10,5,2715,-38,5
717,-9,5,2716,-36,5
718,-8,5,2717,-34,5
719,-7,5,2718,-31,5
720,-6,5,2719,-28,5
721,-6,5,2720,-25,5
722,-7,5,2721,-22,5
723,-7,5,2722,-21,5
724,-6,5,2723,-22,5
725,-5,5,2724,-22,5
726,-5,5,2725,-22,5
727,-6,5,2726,-22,5
728,-6,5,2727,-22,5
729,-4,5,2728,-21,5
730,-3,5,2729,-21,5
731,-2,5,2730,-21,5
732,-2,5,2731,-20,5
733,-1,5,2732,-20,5
734,0,5,2733,-20,5
735,0,5,2734,-18,5
736,0,5,2735,-16,5
737,1,5,2736,-16,5
738,2,5,2737,-16,5
739,2,5,2738,-16,5
740,3,5,2739,-16,5
741,3,5,2740,-15,5
742,3,5,2741,-14,5
743,4,5,2742,-13,5
744,5,5,2743,-13,5
745,5,5,2744,-13,5
746,5,5,2745,-12,5
747,6,5,2746,-12,5
748,7,5,2747,-12,5
749,8,5,2748,-11,5
750,9,5,2749,-11,5
751,8,5,2750,-10,5
752,9,5,2751,-10,5
753,11,5,2752,-10,5
754,13,5,2753,-10,5
755,13,5,2754,-8,5
756,14,5,2755,-7,5
757,14,5,2756,-5,5
758,15,5,2757,-4,5
759,17,5,2758,-4,5
760,19,5,2759,-6,5
761,20,5,2760,-7,5
762,21,5,2761,-5,5
763,23,5,2762,-4,5
764,24,5,2763,-4,5
765,26,5,2764,-4,5
766,27,5,2765,-4,5
767,28,5,2766,-4,5
768,30,5,2767,-3,5
769,33,5,2768,-1,5
770,36,5,2769,0,5
771,37,5,2770,0,5
772,39,5,2771,0,5
773,41,5,2772,1,5
774,43,5,2773,2,5
775,45,5,2774,4,5
776,46,5,2775,6,5
777,49,5,2776,6,5
778,52,5,2777,5,5
779,54,5,2778,4,5
780,56,5,2779,6,5
781,57,5,2780,8,5
782,60,5,2781,9,5
783,64,5,2782,10,5
784,68,5,2783,12,5
785,70,5,2784,13,5
786,72,5,2785,13,5
787,75,5,2786,16,5
788,77,5,2787,18,5
789,79,5,2788,19,5
790,81,5,2789,19,5
791,82,5,2790,21,5
792,86,5,2791,22,5
793,88,5,2792,24,5
794,91,5,2793,26,5
795,93,5,2794,28,5
796,95,5,2795,30,5
797,96,5,2796,32,5
798,97,5,2797,34,5
799,99,5,2798,36,5
800,100,5,2799,39,5
801,100,5,2800,42,5
802,101,5,2801,44,5
803,101,5,2802,46,5
804,101,5,2803,48,5
805,100,5,2804,51,5
806,100,5,2805,53,5
807,99,5,2806,56,5
808,97,5,2807,59,5
809,94,5,2808,62,5
810,91,5,2809,64,5
811,89,5,2810,65,5
812,87,5,2811,67,5
813,85,5,2812,69,5
814,82,5,2813,72,5
815,78,5,2814,75,5
816,73,5,2815,78,5
817,69,5,2816,81,5
818,65,5,2817,82,5
819,60,5,2818,85,5
820,56,5,2819,88,5
821,52,5,2820,91,5
822,48,5,2821,94,5
823,43,5,2822,96,5
824,39,5,2823,99,5
825,35,5,2824,101,5
826,30,5,2825,103,5
827,26,5,2826,105,5
828,22,5,2827,106,5
829,18,5,2828,106,5
830,13,5,2829,108,5
831,8,5,2830,109,5
832,3,5,2831,108,5
833,0,5,2832,108,5
834,-3,5,2833,107,5
835,-6,5,2834,107,5
836,-8,5,2835,106,5
837,-9,5,2836,106,5
838,-10,5,2837,105,5
839,-11,5,2838,104,5
840,-12,5,2839,102,5
841,-12,5,2840,100,5
842,-16,5,2841,97,5
843,-18,5,2842,95,5
844,-19,5,2843,92,5
845,-21,5,2844,88,5
846,-23,5,2845,84,5
847,-24,5,2846,79,5
848,-24,5,2847,75,5
849,-25,5,2848,68,5
850,-26,5,2849,60,5
851,-27,5,2850,53,5
852,-27,5,2851,46,5
853,-27,5,2852,42,5
854,-26,5,2853,38,5
855,-26,5,2854,35,5
856,-26,5,2855,32,5
857,-27,5,2856,29,5
858,-28,5,2857,24,5
859,-29,5,2858,19,5
860,-29,5,2859,15,5
861,-29,5,2860,10,5
862,-29,5,2861,6,5
863,-28,5,2862,3,5
864,-28,5,2863,0,5
865,-29,5,2864,-2,5
866,-29,5,2865,-4,5
867,-29,5,2866,-7,5
868,-29,5,2867,-11,5
869,-28,5,2868,-14,5
870,-27,5,2869,-16,5
871,-27,5,2870,-16,5
872,-27,5,2871,-18,5
873,-27,5,2872,-20,5
874,-26,5,2873,-21,5
875,-28,5,2874,-23,5
876,-31,5,2875,-24,5
877,-33,5,2876,-25,5
878,-33,5,2877,-25,5
879,-34,5,2878,-26,5
880,-33,5,2879,-26,5
881,-32,5,2880,-28,5
882,-32,5,2881,-28,5
883,-31,5,2882,-29,5
884,-32,5,2883,-30,5
885,-33,5,2884,-31,5
886,-34,5,2885,-31,5
887,-35,5,2886,-31,5
888,-36,5,2887,-30,5
889,-36,5,2888,-29,5
890,-36,5,2889,-29,5
891,-34,5,2890,-29,5
892,-34,5,2891,-30,5
893,-34,5,2892,-32,5
894,-34,5,2893,-32,5
895,-35,5,2894,-32,5
896,-35,5,2895,-32,5
897,-35,5,2896,-33,5
898,-34,5,2897,-33,5
899,-34,5,2898,-32,5
900,-35,5,2899,-32,5
901,-36,5,2900,-33,5
902,-37,5,2901,-34,5
903,-37,5,2902,-35,5
904,-36,5,2903,-35,5
905,-34,5,2904,-35,5
906,-33,5,2905,-35,5
907,-34,5,2906,-35,5
908,-33,5,2907,-34,5
909,-33,5,2908,-34,5
910,-32,5,2909,-34,5
911,-32,5,2910,-33,5
912,-31,5,2911,-34,5
913,-31,5,2912,-34,5
914,-32,5,2913,-35,5
915,-32,5,2914,-36,5
916,-32,5,2915,-36,5
917,-31,5,2916,-37,5
918,-31,5,2917,-36,5
919,-32,5,2918,-36,5
920,-33,5,2919,-36,5
921,-33,5,2920,-35,5
922,-33,5,2921,-34,5
923,-33,5,2922,-34,5
924,-32,5,2923,-33,5
925,-32,5,2924,-33,5
926,-32,5,2925,-32,5
927,-31,5,2926,-32,5
928,-30,5,2927,-32,5
929,-29,5,2928,-32,5
930,-29,5,2929,-33,5
931,-28,5,2930,-33,5
932,-27,5,2931,-33,5
933,-27,5,2932,-32,5
934,-27,5,2933,-33,5
935,-28,5,2934,-33,5
936,-27,5,2935,-31,5
937,-27,5,2936,-29,5
938,-28,5,2937,-28,5
939,-29,5,2938,-27,5
940,-30,5,2939,-27,5
941,-31,5,2940,-28,5
942,-31,5,2941,-28,5
943,-31,5,2942,-27,5
944,-30,5,2943,-27,5
945,-32,5,2944,-29,5
946,-31,5,2945,-28,5
947,-31,5,2946,-28,5
948,-31,5,2947,-27,5
949,-30,5,2948,-26,5
950,-30,5,2949,-24,5
951,-30,5,2950,-22,5
952,-30,5,2951,-21,5
953,-31,5,2952,-21,5
954,-32,5,2953,-23,5
955,-32,5,2954,-26,5
956,-31,5,2955,-27,5
957,-30,5,2956,-25,5
958,-30,5,2957,-25,5
959,-30,5,2958,-26,5
960,-31,5,2959,-27,5
961,-32,5,2960,-27,5
962,-31,5,2961,-27,5
963,-31,5,2962,-27,5
964,-30,5,2963,-26,5
965,-30,5,2964,-26,5
966,-31,5,2965,-25,5
967,-31,5,2966,-25,5
968,-30,5,2967,-26,5
969,-31,5,2968,-27,5
970,-31,5,2969,-26,5
971,-31,5,2970,-25,5
972,-32,5,2971,-25,5
973,-32,5,2972,-25,5
974,-31,5,2973,-26,5
975,-31,5,2974,-26,5
976,-31,5,2975,-27,5
977,-32,5,2976,-26,5
978,-33,5,2977,-25,5
979,-33,5,2978,-26,5
980,-34,5,2979,-27,5
981,-34,5,2980,-27,5
982,-35,5,2981,-27,5
983,-34,5,2982,-28,5
984,-32,5,2983,-28,5
985,-31,5,2984,-28,5
986,-31,5,2985,-28,5
987,-32,5,2986,-28,5
988,-33,5,2987,-29,5
989,-33,5,2988,-29,5
990,-34,5,2989,-29,5
991,-34,5,2990,-28,5
992,-35,5,2991,-27,5
993,-34,5,2992,-26,5
994,-34,5,2993,-26,5
995,-34,5,2994,-27,5
996,-35,5,2995,-28,5
997,-34,5,2996,-29,5
998,-35,5,2997,-30,5
999,-36,5,2998,-31,5
1000,-36,5,2999,-31,5
1001,-35,5,3000,-31,5
1002,-33,5,3001,-32,5
1003,-33,5,3002,-33,5
1004,-33,5,3003,-32,5
1005,-32,5,3004,-32,5
1006,-31,5,3005,-33,5
1007,-31,5,3006,-32,5
1008,-32,5,3007,-32,5
1009,-30,5,3008,-32,5
1010,-29,5,3009,-31,5
1011,-28,5,3010,-31,5
1012,-29,5,3011,-31,5
1013,-29,5,3012,-31,5
1014,-31,5,3013,-31,5
1015,-34,5,3014,-32,5
1016,-34,5,3015,-32,5
1017,-35,5,3016,-31,5
1018,-34,5,3017,-31,5
1019,-34,5,3018,-31,5
1020,-33,5,3019,-31,5
1021,-34,5,3020,-32,5
1022,-34,5,3021,-32,5
1023,-35,5,3022,-32,5
1024,-35,5,3023,-31,5
1025,-35,5,3024,-31,5
1026,-33,5,3025,-31,5
1027,-32,5,3026,-31,5
1028,-32,5,3027,-29,5
1029,-32,5,3028,-28,5
1030,-32,5,3029,-27,5
1031,-32,5,3030,-28,5
1032,-30,5,3031,-29,5
1033,-30,5,3032,-29,5
1034,-30,5,3033,-30,5
1035,-32,5,3034,-29,5
1036,-33,5,3035,-29,5
1037,-33,5,3036,-29,5
1038,-32,5,3037,-30,5
1039,-32,5,3038,-31,5
1040,-33,5,3039,-31,5
1041,-32,5,3040,-31,5
1042,-31,5,3041,-31,5
1043,-31,5,3042,-32,5
1044,-32,5,3043,-32,5
1045,-32,5,3044,-32,5
1046,-33,5,3045,-32,5
1047,-33,5,3046,-33,5
1048,-34,5,3047,-32,5
1049,-34,5,3048,-31,5
1050,-34,5,3049,-31,5
1051,-34,5,3050,-31,5
1052,-32,5,3051,-31,5
1053,-32,5,3052,-30,5
1054,-31,5,3053,-31,5
1055,-32,5,3054,-30,5
1056,-32,5,3055,-31,5
1057,-32,5,3056,-32,5
1058,-32,5,3057,-33,5
1059,-32,5,3058,-31,5
1060,-31,5,3059,-29,5
1061,-29,5,3060,-29,5
1062,-28,5,3061,-29,5
1063,-27,5,3062,-30,5
1064,-27,5,3063,-31,5
1065,-26,5,3064,-30,5
1066,-26,5,3065,-30,5
1067,-28,5,3066,-30,5
1068,-29,5,3067,-30,5
1069,-30,5,3068,-32,5
1070,-30,5,3069,-31,5
1071,-31,5,3070,-31,5
1072,-31,5,3071,-30,5
1073,-31,5,3072,-30,5
1074,-31,5,3073,-29,5
1075,-31,5,3074,-29,5
1076,-31,5,3075,-29,5
1077,-30,5,3076,-29,5
1078,-29,5,3077,-30,5
1079,-28,5,3078,-31,5
1080,-26,5,3079,-31,5
1081,-25,5,3080,-31,5
1082,-23,5,3081,-31,5
1083,-23,5,3082,-31,5
1084,-22,5,3083,-33,5
1085,-22,5,3084,-33,5
1086,-23,5,3085,-33,5
1087,-23,5,3086,-32,5
1088,-23,5,3087,-32,5
1089,-23,5,3088,-31,5
1090,-23,5,3089,-31,5
1091,-23,5,3090,-32,5
1092,-22,5,3091,-32,5
1093,-21,5,3092,-31,5
1094,-20,5,3093,-30,5
1095,-18,5,3094,-30,5
1096,-15,5,3095,-31,5
1097,-14,5,3096,-31,5
1098,-13,5,3097,-32,5
1099,-13,5,3098,-32,5
1100,-14,5,3099,-32,5
1101,-15,5,3100,-32,5
1102,-16,5,3101,-31,5
1103,-16,5,3102,-32,5
1104,-19,5,3103,-33,5
1105,-22,5,3104,-32,5
1106,-25,5,3105,-32,5
1107,-26,5,3106,-32,5
1108,-26,5,3107,-31,5
1109,-26,5,3108,-31,5
1110,-28,5,3109,-30,5
1111,-29,5,3110,-30,5
1112,-29,5,3111,-29,5
1113,-29,5,3112,-29,5
1114,-29,5,3113,-28,5
1115,-30,5,3114,-27,5
1116,-28,5,3115,-25,5
1117,-27,5,3116,-24,5
1118,-27,5,3117,-23,5
1119,-28,5,3118,-23,5
1120,-29,5,3119,-23,5
1121,-29,5,3120,-24,5
1122,-30,5,3121,-24,5
1123,-32,5,3122,-24,5
1124,-32,5,3123,-24,5
1125,-32,5,3124,-24,5
1126,-33,5,3125,-23,5
1127,-33,5,3126,-23,5
1128,-34,5,3127,-23,5
1129,-35,5,3128,-22,5
1130,-35,5,3129,-22,5
1131,-34,5,3130,-23,5
1132,-34,5,3131,-22,5
1133,-33,5,3132,-22,5
1134,-31,5,3133,-23,5
1135,-31,5,3134,-23,5
1136,-32,5,3135,-23,5
1137,-32,5,3136,-23,5
1138,-33,5,3137,-23,5
1139,-33,5,3138,-25,5
1140,-33,5,3139,-27,5
1141,-32,5,3140,-29,5
1142,-31,5,3141,-30,5
1143,-32,5,3142,-29,5
1144,-35,5,3143,-29,5
1145,-36,5,3144,-30,5
1146,-35,5,3145,-31,5
1147,-34,5,3146,-30,5
1148,-34,5,3147,-29,5
1149,-33,5,3148,-28,5
1150,-32,5,3149,-27,5
1151,-32,5,3150,-24,5
1152,-32,5,3151,-23,5
1153,-30,5,3152,-22,5
1154,-26,5,3153,-22,5
1155,-23,5,3154,-22,5
1156,-19,5,3155,-22,5
1157,-16,5,3156,-22,5
1158,-10,5,3157,-24,5
1159,10,5,3158,-25,5
1160,41,5,3159,-27,5
1161,71,5,3160,-28,5
1162,101,5,3161,-31,5
1163,133,5,3162,-33,5
1164,152,5,3163,-35,5
1165,152,5,3164,-35,5
1166,152,5,3165,-36,5
1167,152,5,3166,-34,5
1168,152,5,3167,-33,5
1169,152,5,3168,-33,5
1170,152,5,3169,-34,5
1171,152,5,3170,-34,5
1172,142,5,3171,-35,5
1173,51,5,3172,-37,5
1174,-28,5,3173,-37,5
1175,-79,5,3174,-37,5
1176,-79,5,3175,-38,5
1177,-79,5,3176,-38,5
1178,-79,5,3177,-37,5
1179,-79,5,3178,-37,5
1180,-79,5,3179,-36,5
1181,-79,5,3180,-35,5
1182,-79,5,3181,-34,5
1183,-79,5,3182,-35,5
1184,-66,5,3183,-36,5
1185,-54,5,3184,-36,5
1186,-47,5,3185,-35,5
1187,-42,5,3186,-35,5
1188,-38,5,3187,-35,5
1189,-36,5,3188,-34,5
1190,-32,5,3189,-32,5
1191,-28,5,3190,-31,5
1192,-23,5,3191,-29,5
1193,-20,5,3192,-26,5
1194,-18,5,3193,-23,5
1195,-17,5,3194,-18,5
1196,-16,5,3195,-6,5
1197,-16,5,3196,15,5
1198,-17,5,3197,40,5
1199,-16,5,3198,64,5
1200,-14,5,3199,93,5
1201,-13,5,3200,128,5
1202,-12,5,3201,152,5
1203,-10,5,3202,152,5
1204,-9,5,3203,152,5
1205,-10,5,3204,152,5
1206,-10,5,3205,152,5
1207,-10,5,3206,152,5
1208,-10,5,3207,152,5
1209,-10,5,3208,152,5
1210,-10,5,3209,152,5
1211,-9,5,3210,96,5
1212,-9,5,3211,10,5
1213,-9,5,3212,-58,5
1214,-9,5,3213,-79,5
1215,-8,5,3214,-79,5
1216,-8,5,3215,-79,5
1217,-7,5,3216,-79,5
1218,-7,5,3217,-79,5
1219,-6,5,3218,-79,5
1220,-6,5,3219,-79,5
1221,-7,5,3220,-79,5
1222,-7,5,3221,-67,5
1223,-7,5,3222,-56,5
1224,-6,5,3223,-48,5
1225,-5,5,3224,-45,5
1226,-4,5,3225,-41,5
1227,-3,5,3226,-37,5
1228,-2,5,3227,-35,5
1229,-1,5,3228,-32,5
1230,0,5,3229,-29,5
1231,2,5,3230,-28,5
1232,2,5,3231,-26,5
1233,1,5,3232,-24,5
1234,1,5,3233,-22,5
1235,2,5,3234,-21,5
1236,3,5,3235,-20,5
1237,5,5,3236,-20,5
1238,4,5,3237,-19,5
1239,2,5,3238,-18,5
1240,1,5,3239,-18,5
1241,2,5,3240,-18,5
1242,3,5,3241,-18,5
1243,4,5,3242,-18,5
1244,6,5,3243,-18,5
1245,7,5,3244,-17,5
1246,8,5,3245,-16,5
1247,8,5,3246,-16,5
1248,7,5,3247,-15,5
1249,8,5,3248,-14,5
1250,8,5,3249,-14,5
1251,9,5,3250,-14,5
1252,10,5,3251,-14,5
1253,11,5,3252,-14,5
1254,12,5,3253,-13,5
1255,14,5,3254,-12,5
1256,16,5,3255,-11,5
1257,18,5,3256,-11,5
1258,19,5,3257,-11,5
1259,20,5,3258,-12,5
1260,22,5,3259,-11,5
1261,23,5,3260,-12,5
1262,25,5,3261,-10,5
1263,27,5,3262,-8,5
1264,30,5,3263,-8,5
1265,31,5,3264,-8,5
1266,31,5,3265,-6,5
1267,33,5,3266,-3,5
1268,34,5,3267,-3,5
1269,35,5,3268,-4,5
1270,37,5,3269,-4,5
1271,39,5,3270,-4,5
1272,41,5,3271,-6,5
1273,43,5,3272,-6,5
1274,45,5,3273,-4,5
1275,47,5,3274,-3,5
1276,50,5,3275,-2,5
1277,52,5,3276,-1,5
1278,53,5,3277,0,5
1279,56,5,3278,2,5
1280,59,5,3279,4,5
1281,62,5,3280,5,5
1282,64,5,3281,5,5
1283,67,5,3282,5,5
1284,69,5,3283,4,5
1285,72,5,3284,3,5
1286,75,5,3285,3,5
1287,78,5,3286,3,5
1288,80,5,3287,3,5
1289,82,5,3288,3,5
1290,85,5,3289,3,5
1291,89,5,3290,3,5
1292,91,5,3291,6,5
1293,94,5,3292,9,5
1294,96,5,3293,11,5
1295,98,5,3294,12,5
1296,99,5,3295,13,5
1297,102,5,3296,14,5
1298,104,5,3297,15,5
1299,106,5,3298,16,5
1300,108,5,3299,18,5
1301,110,5,3300,19,5
1302,111,5,3301,18,5
1303,111,5,3302,18,5
1304,113,5,3303,18,5
1305,113,5,3304,20,5
1306,114,5,3305,23,5
1307,115,5,3306,26,5
1308,114,5,3307,27,5
1309,113,5,3308,28,5
1310,111,5,3309,30,5
1311,109,5,3310,32,5
1312,108,5,3311,34,5
1313,107,5,3312,35,5
1314,104,5,3313,38,5
1315,102,5,3314,40,5
1316,99,5,3315,43,5
1317,97,5,3316,45,5
1318,93,5,3317,47,5
1319,89,5,3318,49,5
1320,85,5,3319,51,5
1321,80,5,3320,52,5
1322,76,5,3321,53,5
1323,72,5,3322,56,5
1324,68,5,3323,58,5
1325,62,5,3324,61,5
1326,58,5,3325,63,5
1327,52,5,3326,65,5
1328,45,5,3327,68,5
1329,40,5,3328,71,5
1330,36,5,3329,74,5
1331,31,5,3330,76,5
1332,28,5,3331,78,5
1333,25,5,3332,81,5
1334,20,5,3333,84,5
1335,15,5,3334,88,5
1336,11,5,3335,92,5
1337,8,5,3336,95,5
1338,5,5,3337,97,5
1339,1,5,3338,99,5
1340,0,5,3339,101,5
1341,-2,5,3340,103,5
1342,-5,5,3341,103,5
1343,-7,5,3342,103,5
1344,-10,5,3343,104,5
1345,-12,5,3344,104,5
1346,-13,5,3345,104,5
1347,-15,5,3346,105,5
1348,-17,5,3347,104,5
1349,-18,5,3348,103,5
1350,-19,5,3349,103,5
1351,-20,5,3350,101,5
1352,-21,5,3351,98,5
1353,-21,5,3352,97,5
1354,-22,5,3353,95,5
1355,-23,5,3354,93,5
1356,-24,5,3355,89,5
1357,-24,5,3356,85,5
1358,-24,5,3357,82,5
1359,-24,5,3358,79,5
1360,-23,5,3359,75,5
1361,-24,5,3360,70,5
1362,-25,5,3361,64,5
1363,-26,5,3362,58,5
1364,-26,5,3363,51,5
1365,-26,5,3364,46,5
1366,-27,5,3365,42,5
1367,-28,5,3366,37,5
1368,-29,5,3367,32,5
1369,-30,5,3368,27,5
1370,-29,5,3369,23,5
1371,-29,5,3370,19,5
1372,-30,5,3371,16,5
1373,-30,5,3372,13,5
1374,-30,5,3373,9,5
1375,-32,5,3374,6,5
1376,-33,5,3375,3,5
1377,-31,5,3376,1,5
1378,-30,5,3377,-3,5
1379,-30,5,3378,-6,5
1380,-30,5,3379,-8,5
1381,-30,5,3380,-9,5
1382,-29,5,3381,-11,5
1383,-28,5,3382,-14,5
1384,-27,5,3383,-16,5
1385,-28,5,3384,-17,5
1386,-28,5,3385,-17,5
1387,-31,5,3386,-19,5
1388,-32,5,3387,-21,5
1389,-31,5,3388,-23,5
1390,-29,5,3389,-24,5
1391,-28,5,3390,-25,5
1392,-29,5,3391,-27,5
1393,-29,5,3392,-27,5
1394,-30,5,3393,-27,5
1395,-28,5,3394,-27,5
1396,-28,5,3395,-28,5
1397,-28,5,3396,-29,5
1398,-26,5,3397,-31,5
1399,-25,5,3398,-31,5
1400,-26,5,3399,-30,5
1401,-26,5,3400,-29,5
1402,-26,5,3401,-30,5
1403,-26,5,3402,-30,5
1404,-26,5,3403,-29,5
1405,-26,5,3404,-28,5
1406,-26,5,3405,-28,5
1407,-26,5,3406,-29,5
1408,-25,5,3407,-31,5
1409,-24,5,3408,-31,5
1410,-23,5,3409,-33,5
1411,-22,5,3410,-32,5
1412,-23,5,3411,-32,5
1413,-22,5,3412,-31,5
1414,-22,5,3413,-31,5
1415,-22,5,3414,-31,5
1416,-24,5,3415,-30,5
1417,-24,5,3416,-30,5
1418,-23,5,3417,-30,5
1419,-23,5,3418,-31,5
1420,-22,5,3419,-32,5
1421,-21,5,3420,-32,5
1422,-21,5,3421,-31,5
1423,-20,5,3422,-31,5
1424,-19,5,3423,-31,5
1425,-20,5,3424,-33,5
1426,-19,5,3425,-33,5
1427,-19,5,3426,-34,5
1428,-18,5,3427,-34,5
1429,-17,5,3428,-34,5
1430,-17,5,3429,-34,5
1431,-18,5,3430,-33,5
1432,-19,5,3431,-33,5
1433,-19,5,3432,-34,5
1434,-21,5,3433,-35,5
1435,-22,5,3434,-35,5
1436,-23,5,3435,-36,5
1437,-23,5,3436,-37,5
1438,-23,5,3437,-38,5
1439,-22,5,3438,-37,5
1440,-21,5,3439,-37,5
1441,-21,5,3440,-37,5
1442,-21,5,3441,-36,5
1443,-21,5,3442,-35,5
1444,-20,5,3443,-37,5
1445,-21,5,3444,-38,5
1446,-23,5,3445,-37,5
1447,-24,5,3446,-37,5
1448,-24,5,3447,-38,5
1449,-23,5,3448,-37,5
1450,-24,5,3449,-35,5
1451,-23,5,3450,-35,5
1452,-23,5,3451,-35,5
1453,-23,5,3452,-36,5
1454,-24,5,3453,-37,5
1455,-25,5,3454,-37,5
1456,-25,5,3455,-37,5
1457,-24,5,3456,-37,5
1458,-24,5,3457,-37,5
1459,-25,5,3458,-37,5
1460,-27,5,3459,-36,5
1461,-28,5,3460,-36,5
1462,-28,5,3461,-35,5
1463,-27,5,3462,-34,5
1464,-25,5,3463,-33,5
1465,-24,5,3464,-33,5
1466,-25,5,3465,-32,5
1467,-26,5,3466,-31,5
1468,-27,5,3467,-30,5
1469,-27,5,3468,-31,5
1470,-28,5,3469,-31,5
1471,-28,5,3470,-32,5
1472,-28,5,3471,-33,5
1473,-27,5,3472,-33,5
1474,-27,5,3473,-32,5
1475,-26,5,3474,-32,5
1476,-27,5,3475,-32,5
1477,-27,5,3476,-32,5
1478,-28,5,3477,-31,5
1479,-27,5,3478,-31,5
1480,-26,5,3479,-31,5
1481,-26,5,3480,-30,5
1482,-26,5,3481,-30,5
1483,-26,5,3482,-31,5
1484,-27,5,3483,-33,5
1485,-28,5,3484,-33,5
1486,-29,5,3485,-32,5
1487,-29,5,3486,-31,5
1488,-28,5,3487,-30,5
1489,-28,5,3488,-31,5
1490,-28,5,3489,-32,5
1491,-28,5,3490,-33,5
1492,-30,5,3491,-34,5
1493,-31,5,3492,-34,5
1494,-31,5,3493,-35,5
1495,-31,5,3494,-34,5
1496,-32,5,3495,-33,5
1497,-33,5,3496,-32,5
1498,-34,5,3497,-31,5
1499,-32,5,3498,-31,5
1500,-29,5,3499,-33,5
1501,-29,5,3500,-34,5
1502,-30,5,3501,-34,5
1503,-29,5,3502,-33,5
1504,-29,5,3503,-32,5
1505,-28,5,3504,-32,5
1506,-29,5,3505,-33,5
1507,-30,5,3506,-33,5
1508,-31,5,3507,-34,5
1509,-32,5,3508,-33,5
1510,-32,5,3509,-34,5
1511,-32,5,3510,-34,5
1512,-33,5,3511,-34,5
1513,-33,5,3512,-33,5
1514,-33,5,3513,-33,5
1515,-32,5,3514,-34,5
1516,-32,5,3515,-35,5
1517,-33,5,3516,-34,5
1518,-33,5,3517,-34,5
1519,-32,5,3518,-33,5
1520,-32,5,3519,-33,5
1521,-32,5,3520,-33,5
1522,-32,5,3521,-33,5
1523,-32,5,3522,-34,5
1524,-31,5,3523,-35,5
1525,-30,5,3524,-36,5
1526,-30,5,3525,-36,5
1527,-31,5,3526,-36,5
1528,-31,5,3527,-35,5
1529,-31,5,3528,-35,5
1530,-32,5,3529,-35,5
1531,-32,5,3530,-34,5
1532,-31,5,3531,-32,5
1533,-31,5,3532,-32,5
1534,-33,5,3533,-33,5
1535,-34,5,3534,-33,5
1536,-35,5,3535,-33,5
1537,-34,5,3536,-34,5
1538,-33,5,3537,-34,5
1539,-33,5,3538,-34,5
1540,-33,5,3539,-35,5
1541,-34,5,3540,-35,5
1542,-33,5,3541,-35,5
1543,-31,5,3542,-34,5
1544,-31,5,3543,-34,5
1545,-32,5,3544,-35,5
1546,-34,5,3545,-35,5
1547,-34,5,3546,-34,5
1548,-34,5,3547,-34,5
1549,-36,5,3548,-34,5
1550,-37,5,3549,-34,5
1551,-36,5,3550,-33,5
1552,-36,5,3551,-33,5
1553,-36,5,3552,-34,5
1554,-36,5,3553,-34,5
1555,-35,5,3554,-35,5
1556,-34,5,3555,-34,5
1557,-33,5,3556,-34,5
1558,-34,5,3557,-34,5
1559,-34,5,3558,-35,5
1560,-33,5,3559,-34,5
1561,-33,5,3560,-34,5
1562,-33,5,3561,-36,5
1563,-32,5,3562,-36,5
1564,-32,5,3563,-34,5
1565,-32,5,3564,-34,5
1566,-32,5,3565,-34,5
1567,-32,5,3566,-33,5
1568,-31,5,3567,-33,5
1569,-31,5,3568,-33,5
1570,-30,5,3569,-34,5
1571,-30,5,3570,-35,5
1572,-30,5,3571,-35,5
1573,-30,5,3572,-34,5
1574,-32,5,3573,-34,5
1575,-33,5,3574,-34,5
1576,-32,5,3575,-34,5
1577,-32,5,3576,-34,5
1578,-31,5,3577,-34,5
1579,-30,5,3578,-35,5
1580,-29,5,3579,-36,5
1581,-28,5,3580,-36,5
1582,-28,5,3581,-35,5
1583,-28,5,3582,-35,5
1584,-26,5,3583,-35,5
1585,-25,5,3584,-34,5
1586,-24,5,3585,-34,5
1587,-24,5,3586,-35,5
1588,-24,5,3587,-35,5
1589,-25,5,3588,-34,5
1590,-24,5,3589,-34,5
1591,-24,5,3590,-34,5
1592,-25,5,3591,-34,5
1593,-26,5,3592,-34,5
1594,-28,5,3593,-34,5
1595,-29,5,3594,-34,5
1596,-29,5,3595,-35,5
1597,-28,5,3596,-36,5
1598,-27,5,3597,-36,5
1599,-28,5,3598,-35,5
1600,-29,5,3599,-35,5
1601,-30,5,3600,-35,5
1602,-31,5,3601,-34,5
1603,-32,5,3602,-34,5
1604,-32,5,3603,-34,5
1605,-31,5,3604,-34,5
1606,-30,5,3605,-32,5
1607,-30,5,3606,-32,5
1608,-31,5,3607,-32,5
1609,-30,5,3608,-31,5
1610,-29,5,3609,-31,5
1611,-27,5,3610,-32,5
1612,-26,5,3611,-33,5
1613,-26,5,3612,-34,5
1614,-25,5,3613,-34,5
1615,-24,5,3614,-33,5
1616,-24,5,3615,-33,5
1617,-23,5,3616,-33,5
1618,-23,5,3617,-33,5
1619,-24,5,3618,-32,5
1620,-26,5,3619,-31,5
1621,-27,5,3620,-31,5
1622,-27,5,3621,-32,5
1623,-29,5,3622,-32,5
1624,-31,5,3623,-31,5
1625,-32,5,3624,-31,5
1626,-34,5,3625,-31,5
1627,-35,5,3626,-31,5
1628,-36,5,3627,-30,5
1629,-36,5,3628,-30,5
1630,-35,5,3629,-30,5
1631,-36,5,3630,-30,5
1632,-37,5,3631,-31,5
1633,-38,5,3632,-29,5
1634,-38,5,3633,-26,5
1635,-37,5,3634,-25,5
1636,-36,5,3635,-24,5
1637,-36,5,3636,-24,5
1638,-37,5,3637,-25,5
1639,-36,5,3638,-25,5
1640,-37,5,3639,-25,5
1641,-36,5,3640,-25,5
1642,-36,5,3641,-25,5
1643,-36,5,3642,-25,5
1644,-37,5,3643,-25,5
1645,-37,5,3644,-25,5
1646,-38,5,3645,-24,5
1647,-37,5,3646,-24,5
1648,-36,5,3647,-23,5
1649,-36,5,3648,-25,5
1650,-34,5,3649,-26,5
1651,-33,5,3650,-26,5
1652,-34,5,3651,-26,5
1653,-33,5,3652,-27,5
1654,-31,5,3653,-29,5
1655,-29,5,3654,-31,5
1656,-27,5,3655,-33,5
1657,-22,5,3656,-33,5
1658,-16,5,3657,-31,5
1659,-8,5,3658,-29,5
1660,10,5,3659,-28,5
1661,36,5,3660,-27,5
1662,60,5,3661,-26,5
1663,85,5,3662,-26,5
1664,116,5,3663,-26,5
1665,152,5,3664,-27,5
1666,152,5,3665,-25,5
1667,152,5,3666,-23,5
1668,152,5,3667,-21,5
1669,152,5,3668,-20,5
1670,152,5,3669,-20,5
1671,152,5,3670,-22,5
1672,152,5,3671,-24,5
1673,152,5,3672,-26,5
1674,108,5,3673,-28,5
1675,21,5,3674,-30,5
1676,-47,5,3675,-31,5
1677,-79,5,3676,-32,5
1678,-79,5,3677,-32,5
1679,-79,5,3678,-33,5
1680,-79,5,3679,-33,5
1681,-79,5,3680,-35,5
1682,-79,5,3681,-35,5
1683,-79,5,3682,-35,5
1684,-79,5,3683,-34,5
1685,-72,5,3684,-34,5
1686,-60,5,3685,-34,5
1687,-51,5,3686,-35,5
1688,-43,5,3687,-35,5
1689,-39,5,3688,-36,5
1690,-35,5,3689,-36,5
1691,-33,5,3690,-35,5
1692,-31,5,3691,-33,5
1693,-28,5,3692,-32,5
1694,-24,5,3693,-32,5
1695,-21,5,3694,-32,5
1696,-19,5,3695,-32,5
1697,-18,5,3696,-33,5
1698,-17,5,3697,-33,5
1699,-17,5,3698,-34,5
1700,-17,5,3699,-35,5
1701,-18,5,3700,-34,5
1702,-17,5,3701,-33,5
1703,-15,5,3702,-33,5
1704,-13,5,3703,-34,5
1705,-13,5,3704,-34,5
1706,-12,5,3705,-32,5
1707,-11,5,3706,-30,5
1708,-11,5,3707,-27,5
1709,-12,5,3708,-23,5
1710,-13,5,3709,-20,5
1711,-14,5,3710,-13,5
1712,-14,5,3711,4,5
1713,-13,5,3712,36,5
1714,-13,5,3713,69,5
1715,-12,5,3714,100,5
1716,-12,5,3715,132,5
1717,-12,5,3716,152,5
1718,-10,5,3717,152,5
1719,-8,5,3718,152,5
1720,-7,5,3719,152,5
1721,-7,5,3720,152,5
1722,-7,5,3721,152,5
1723,-7,5,3722,152,5
1724,-6,5,3723,152,5
1725,-7,5,3724,152,5
1726,-5,5,3725,84,5
1727,-5,5,3726,0,5
1728,-5,5,3727,-66,5
1729,-3,5,3728,-79,5
1730,-3,5,3729,-79,5
1731,-3,5,3730,-79,5
1732,-2,5,3731,-79,5
1733,-1,5,3732,-79,5
1734,-1,5,3733,-79,5
1735,-1,5,3734,-79,5
1736,-3,5,3735,-79,5
1737,-3,5,3736,-78,5
1738,-2,5,3737,-65,5
1739,-1,5,3738,-55,5
1740,-2,5,3739,-46,5
1741,-1,5,3740,-40,5
1742,0,5,3741,-36,5
1743,1,5,3742,-33,5
1744,1,5,3743,-32,5
1745,0,5,3744,-28,5
1746,1,5,3745,-24,5
1747,4,5,3746,-21,5
1748,5,5,3747,-18,5
1749,5,5,3748,-16,5
1750,5,5,3749,-15,5
1751,6,5,3750,-15,5
1752,7,5,3751,-16,5
1753,8,5,3752,-17,5
1754,8,5,3753,-16,5
1755,8,5,3754,-15,5
1756,9,5,3755,-13,5
1757,10,5,3756,-13,5
1758,11,5,3757,-13,5
1759,13,5,3758,-14,5
1760,14,5,3759,-15,5
1761,15,5,3760,-14,5
1762,15,5,3761,-13,5
1763,16,5,3762,-13,5
1764,17,5,3763,-12,5
1765,18,5,3764,-12,5
1766,20,5,3765,-12,5
1767,22,5,3766,-11,5
1768,24,5,3767,-10,5
1769,28,5,3768,-9,5
1770,31,5,3769,-8,5
1771,32,5,3770,-7,5
1772,33,5,3771,-7,5
1773,34,5,3772,-7,5
1774,36,5,3773,-7,5
1775,38,5,3774,-7,5
1776,40,5,3775,-4,5
1777,41,5,3776,-3,5
1778,45,5,3777,-2,5
1779,48,5,3778,-2,5
1780,50,5,3779,-2,5
1781,53,5,3780,-2,5
1782,55,5,3781,-3,5
1783,57,5,3782,-4,5
1784,59,5,3783,-4,5
1785,61,5,3784,-3,5
1786,64,5,3785,-1,5
1787,65,5,3786,0,5
1788,67,5,3787,1,5
1789,70,5,3788,2,5
1790,75,5,3789,2,5
1791,79,5,3790,2,5
1792,81,5,3791,1,5
1793,84,5,3792,1,5
1794,88,5,3793,2,5
1795,91,5,3794,3,5
1796,92,5,3795,3,5
1797,93,5,3796,4,5
1798,94,5,3797,5,5
1799,96,5,3798,6,5
1800,99,5,3799,6,5
1801,102,5,3800,7,5
1802,104,5,3801,8,5
1803,105,5,3802,10,5
1804,106,5,3803,10,5
1805,108,5,3804,11,5
1806,108,5,3805,13,5
1807,109,5,3806,15,5
1808,110,5,3807,15,5
1809,110,5,3808,15,5
1810,112,5,3809,16,5
1811,112,5,3810,18,5
1812,109,5,3811,19,5
1813,106,5,3812,20,5
1814,104,5,3813,20,5
1815,101,5,3814,21,5
1816,101,5,3815,23,5
1817,99,5,3816,25,5
1818,96,5,3817,27,5
1819,94,5,3818,29,5
1820,89,5,3819,30,5
1821,83,5,3820,32,5
1822,78,5,3821,34,5
1823,74,5,3822,36,5
1824,70,5,3823,38,5
1825,65,5,3824,40,5
1826,61,5,3825,43,5
1827,55,5,3826,45,5
1828,51,5,3827,46,5
1829,46,5,3828,47,5
1830,41,5,3829,50,5
1831,36,5,3830,53,5
1832,32,5,3831,56,5
1833,26,5,3832,59,5
1834,21,5,3833,61,5
1835,18,5,3834,63,5
1836,15,5,3835,64,5
1837,11,5,3836,65,5
1838,7,5,3837,68,5
1839,3,5,3838,71,5
1840,0,5,3839,74,5
1841,-3,5,3840,76,5
1842,-5,5,3841,80,5
1843,-6,5,3842,84,5
1844,-9,5,3843,87,5
1845,-11,5,3844,90,5
1846,-13,5,3845,92,5
1847,-14,5,3846,94,5
1848,-15,5,3847,95,5
1849,-16,5,3848,97,5
1850,-17,5,3849,100,5
1851,-20,5,3850,102,5
1852,-22,5,3851,104,5
1853,-22,5,3852,106,5
1854,-24,5,3853,108,5
1855,-25,5,3854,111,5
1856,-24,5,3855,113,5
1857,-24,5,3856,114,5
1858,-24,5,3857,115,5
1859,-26,5,3858,116,5
1860,-26,5,3859,116,5
1861,-27,5,3860,115,5
1862,-27,5,3861,114,5
1863,-27,5,3862,113,5
1864,-27,5,3863,112,5
1865,-27,5,3864,111,5
1866,-27,5,3865,110,5
1867,-27,5,3866,108,5
1868,-27,5,3867,107,5
1869,-28,5,3868,105,5
1870,-28,5,3869,103,5
1871,-27,5,3870,100,5
1872,-26,5,3871,97,5
1873,-25,5,3872,92,5
1874,-26,5,3873,86,5
1875,-27,5,3874,81,5
1876,-28,5,3875,75,5
1877,-27,5,3876,70,5
1878,-27,5,3877,65,5
1879,-28,5,3878,59,5
1880,-29,5,3879,54,5
1881,-28,5,3880,49,5
1882,-28,5,3881,45,5
1883,-28,5,3882,40,5
1884,-29,5,3883,36,5
1885,-30,5,3884,32,5
1886,-30,5,3885,26,5
1887,-31,5,3886,20,5
1888,-31,5,3887,16,5
1889,-30,5,3888,13,5
1890,-29,5,3889,9,5
1891,-30,5,3890,5,5
1892,-32,5,3891,3,5
1893,-33,5,3892,1,5
1894,-33,5,3893,-1,5
1895,-33,5,3894,-4,5
1896,-33,5,3895,-7,5
1897,-33,5,3896,-10,5
1898,-33,5,3897,-12,5
1899,-34,5,3898,-14,5
1900,-34,5,3899,-16,5
1901,-33,5,3900,-18,5
1902,-33,5,3901,-20,5
1903,-33,5,3902,-21,5
1904,-33,5,3903,-22,5
1905,-32,5,3904,-21,5
1906,-32,5,3905,-20,5
1907,-33,5,3906,-20,5
1908,-33,5,3907,-20,5
1909,-32,5,3908,-21,5
1910,-32,5,3909,-23,5
1911,-31,5,3910,-23,5
1912,-30,5,3911,-24,5
1913,-30,5,3912,-25,5
1914,-30,5,3913,-26,5
1915,-32,5,3914,-27,5
1916,-32,5,3915,-27,5
1917,-32,5,3916,-28,5
1918,-33,5,3917,-28,5
1919,-33,5,3918,-28,5
1920,-32,5,3919,-27,5
1921,-31,5,3920,-27,5
1922,-30,5,3921,-27,5
1923,-30,5,3922,-27,5
1924,-30,5,3923,-28,5
1925,-29,5,3924,-28,5
1926,-28,5,3925,-28,5
1927,-27,5,3926,-29,5
1928,-27,5,3927,-29,5
1929,-26,5,3928,-30,5
1930,-25,5,3929,-30,5
1931,-25,5,3930,-31,5
1932,-26,5,3931,-32,5
1933,-27,5,3932,-32,5
1934,-29,5,3933,-31,5
1935,-30,5,3934,-31,5
1936,-30,5,3935,-31,5
1937,-29,5,3936,-30,5
1938,-27,5,3937,-31,5
1939,-27,5,3938,-32,5
1940,-27,5,3939,-31,5
1941,-28,5,3940,-29,5
1942,-27,5,3941,-28,5
1943,-26,5,3942,-28,5
1944,-25,5,3943,-29,5
1945,-25,5,3944,-30,5
1946,-25,5,3945,-30,5
1947,-25,5,3946,-30,5
1948,-26,5,3947,-30,5
1949,-25,5,3948,-29,5
1950,-24,5,3949,-28,5
1951,-23,5,3950,-29,5
1952,-23,5,3951,-31,5
1953,-26,5,3952,-31,5
1954,-29,5,3953,-31,5
1955,-30,5,3954,-30,5
1956,-30,5,3955,-28,5
1957,-30,5,3956,-28,5
1958,-29,5,3957,-29,5
1959,-29,5,3958,-27,5
1960,-29,5,3959,-27,5
1961,-30,5,3960,-26,5
1962,-29,5,3961,-26,5
1963,-29,5,3962,-25,5
1964,-29,5,3963,-25,5
1965,-28,5,3964,-25,5
1966,-27,5,3965,-26,5
1967,-27,5,3966,-25,5
1968,-28,5,3967,-24,5
1969,-28,5,3968,-24,5
1970,-28,5,3969,-23,5
1971,-29,5,3970,-23,5
1972,-29,5,3971,-22,5
1973,-30,5,3972,-23,5
1974,-31,5,3973,-23,5
1975,-30,5,3974,-23,5
1976,-29,5,3975,-23,5
1977,-29,5,3976,-22,5
1978,-29,5,3977,-22,5
1979,-28,5,3978,-22,5
1980,-29,5,3979,-22,5
1981,-30,5,3980,-22,5
1982,-30,5,3981,-21,5
1983,-30,5,3982,-20,5
1984,-31,5,3983,-20,5
1985,-30,5,3984,-21,5
1986,-30,5,3985,-22,5
1987,-30,5,3986,-23,5
1988,-30,5,3987,-23,5
1989,-30,5,3988,-23,5
1990,-30,5,3989,-22,5
1991,-31,5,3990,-23,5
1992,-30,5,3991,-24,5
1993,-29,5,3992,-25,5
1994,-29,5,3993,-25,5
1995,-29,5,3994,-25,5
1996,-29,5,3995,-23,5
1997,-29,5,3996,-22,5
1998,-29,5,3997,-22,5
1999,-29,5,3998,-23,5
2000,-30,5,3999,-24,5
2001,-31,5,4000,-24,5
2002,-31,5,4001,-24,5
2003,-31,5,4002,-24,5
2004,-32,5,4003,-24,5
2005,-34,5,4004,-24,5
2006,-33,5,4005,-26,5
2007,-32,5,4006,-27,5
2008,-31,5,4007,-29,5
2009,-32,5,4008,-29,5
2010,-32,5,4009,-28,5
2011,-32,5,4010,-27,5
2012,-31,5,4011,-25,5
2013,-31,5,4012,-25,5
2014,-32,5,4013,-24,5
2015,-33,5,4014,-25,5
2016,-32,5,4015,-27,5
2017,-31,5,4016,-28,5
2018,-31,5,4017,-28,5
2019,-31,5,4018,-28,5
2020,-32,5,4019,-29,5
2021,-32,5,4020,-29,5
2022,-30,5,4021,-30,5
2023,-30,5,4022,-30,5
2024,-30,5,4023,-30,5
2025,-31,5,4024,-30,5
2026,-30,5,4025,-30,5
2027,-30,5,4026,-30,5
2028,-29,5,4027,-30,5
2029,-29,5,4028,-30,5
2030,-29,5,4029,-28,5
2031,-28,5,4030,-28,5
2032,-28,5,4031,-28,5
2033,-28,5,4032,-28,5
2034,-30,5,4033,-28,5
2035,-30,5,4034,-28,5
2036,-29,5,4035,-28,5
2037,-28,5,4036,-30,5
2038,-30,5,4037,-32,5
2039,-32,5,4038,-32,5
2040,-33,5,4039,-32,5
2041,-33,5,4040,-32,5
2042,-33,5,4041,-32,5
2043,-32,5,4042,-32,5
2044,-31,5,4043,-31,5
2045,-30,5,4044,-31,5
2046,-28,5,4045,-30,5
2047,-29,5,4046,-29,5
2048,-29,5,4047,-29,5
2049,-31,5,4048,-30,5
2050,-32,5,4049,-31,5
2051,-32,5,4050,-31,5
2052,-31,5,4051,-30,5
2053,-31,5,4052,-31,5
2054,-30,5,4053,-31,5
2055,-30,5,4054,-30,5
2056,-30,5,4055,-30,5
2057,-31,5,4056,-31,5
2058,-32,5,4057,-31,5
2059,-32,5,4058,-31,5
2060,-31,5,4059,-31,5
2061,-30,5,4060,-31,5
2062,-30,5,4061,-30,5
2063,-31,5,4062,-29,5
2064,-32,5,4063,-30,5
2065,-32,5,4064,-30,5
2066,-31,5,4065,-29,5
2067,-31,5,4066,-29,5
2068,-31,5,4067,-29,5
2069,-31,5,4068,-30,5
2070,-32,5,4069,-31,5
2071,-31,5,4070,-32,5
2072,-30,5,4071,-34,5
2073,-30,5,4072,-35,5
2074,-29,5,4073,-34,5
2075,-30,5,4074,-33,5
2076,-30,5,4075,-32,5
2077,-28,5,4076,-32,5
2078,-27,5,4077,-33,5
2079,-28,5,4078,-33,5
2080,-29,5,4079,-32,5
2081,-28,5,4080,-32,5
2082,-29,5,4081,-31,5
2083,-30,5,4082,-31,5
2084,-30,5,4083,-30,5
2085,-30,5,4084,-30,5
2086,-30,5,4085,-30,5
2087,-29,5,4086,-30,5
2088,-29,5,4087,-30,5
2089,-30,5,4088,-30,5
2090,-29,5,4089,-30,5
2091,-29,5,4090,-31,5
2092,-29,5,4091,-31,5
2093,-29,5,4092,-32,5
2094,-29,5,4093,-31,5
2095,-28,5,4094,-30,5
2096,-27,5,4095,-30,5
2097,-27,5,4096,-30,5
2098,-26,5,4097,-30,5
2099,-26,5,4098,-31,5
2100,-27,5,4099,-31,5
2101,-26,5,4100,-32,5
2102,-24,5,4101,-34,5
2103,-23,5,4102,-35,5
2104,-22,5,4103,-35,5
2105,-22,5,4104,-33,5
2106,-22,5,4105,-33,5
2107,-21,5,4106,-32,5
2108,-21,5,4107,-32,5
2109,-22,5,4108,-31,5
2110,-22,5,4109,-28,5
2111,-23,5,4110,-28,5
2112,-24,5,4111,-31,5
2113,-24,5,4112,-32,5
2114,-24,5,4113,-34,5
2115,-24,5,4114,-34,5
2116,-25,5,4115,-33,5
2117,-26,5,4116,-33,5
2118,-26,5,4117,-33,5
2119,-27,5,4118,-33,5
2120,-27,5,4119,-32,5
2121,-27,5,4120,-32,5
2122,-27,5,4121,-31,5
2123,-28,5,4122,-32,5
2124,-28,5,4123,-32,5
2125,-29,5,4124,-33,5
2126,-28,5,4125,-32,5
2127,-25,5,4126,-32,5
2128,-23,5,4127,-32,5
2129,-22,5,4128,-32,5
2130,-21,5,4129,-32,5
2131,-21,5,4130,-31,5
2132,-22,5,4131,-31,5
2133,-22,5,4132,-30,5
2134,-22,5,4133,-28,5
2135,-23,5,4134,-27,5
2136,-25,5,4135,-27,5
2137,-26,5,4136,-26,5
2138,-28,5,4137,-26,5
2139,-28,5,4138,-27,5
2140,-29,5,4139,-25,5
2141,-31,5,4140,-24,5
2142,-32,5,4141,-24,5
2143,-33,5,4142,-23,5
2144,-34,5,4143,-22,5
2145,-36,5,4144,-22,5
2146,-36,5,4145,-24,5
2147,-35,5,4146,-25,5
2148,-36,5,4147,-27,5
2149,-36,5,4148,-28,5
2150,-35,5,4149,-28,5
2151,-34,5,4150,-28,5
2152,-34,5,4151,-27,5
2153,-34,5,4152,-27,5
2154,-34,5,4153,-27,5
2155,-34,5,4154,-25,5
2156,-35,5,4155,-25,5
2157,-35,5,4156,-26,5
2158,-35,5,4157,-27,5
2159,-36,5,4158,-28,5
2160,-36,5,4159,-30,5
2161,-36,5,4160,-33,5
2162,-35,5,4161,-32,5
2163,-35,5,4162,-31,5
2164,-35,5,4163,-31,5
2165,-35,5,4164,-30,5
2166,-33,5,4165,-29,5
2167,-32,5,4166,-27,5
2168,-31,5,4167,-25,5
2169,-31,5,4168,-25,5
2170,-31,5,4169,-26,5
2171,-29,5,4170,-26,5
2172,-27,5,4171,-24,5
2173,-22,5,4172,-23,5
2174,-16,5,4173,-22,5
2175,-5,5,4174,-22,5
2176,14,5,4175,-23,5
2177,40,5,4176,-25,5
2178,64,5,4177,-28,5
2179,92,5,4178,-31,5
2180,125,5,4179,-32,5
2181,152,5,4180,-33,5
2182,152,5,4181,-34,5
2183,152,5,4182,-34,5
2184,152,5,4183,-36,5
2185,152,5,4184,-36,5
2186,152,5,4185,-36,5
2187,152,5,4186,-36,5
2188,152,5,4187,-36,5
2189,152,5,4188,-36,5
2190,116,5,4189,-37,5
2191,27,5,4190,-36,5
2192,-44,5,4191,-36,5
2193,-79,5,4192,-37,5
2194,-79,5,4193,-36,5
2195,-79,5,4194,-36,5
2196,-79,5,4195,-36,5
2197,-79,5,4196,-36,5
2198,-79,5,4197,-37,5
2199,-79,5,4198,-37,5
2200,-79,5,4199,-37,5
2201,-71,5,4200,-37,5
2202,-60,5,4201,-35,5
2203,-52,5,4202,-35,5
2204,-45,5,4203,-35,5
2205,-41,5,4204,-37,5
2206,-39,5,4205,-39,5
2207,-35,5,4206,-38,5
2208,-32,5,4207,-37,5
2209,-28,5,4208,-36,5
2210,-26,5,4209,-34,5
2211,-23,5,4210,-31,5
2212,-21,5,4211,-29,5
2213,-21,5,4212,-25,5
2214,-21,5,4213,-21,5
2215,-21,5,4214,-13,5
2216,-21,5,4215,1,5
2217,-20,5,4216,24,5
2218,-19,5,4217,50,5
2219,-18,5,4218,75,5
2220,-18,5,4219,102,5
2221,-17,5,4220,134,5
2222,-16,5,4221,152,5
2223,-16,5,4222,152,5
2224,-15,5,4223,152,5
2225,-15,5,4224,152,5
2226,-15,5,4225,152,5
2227,-14,5,4226,152,5
2228,-13,5,4227,152,5
2229,-13,5,4228,152,5
2230,-12,5,4229,152,5
2231,-11,5,4230,61,5
2232,-10,5,4231,-18,5
2233,-9,5,4232,-79,5
2234,-9,5,4233,-79,5
2235,-11,5,4234,-79,5
2236,-11,5,4235,-79,5
2237,-11,5,4236,-79,5
2238,-10,5,4237,-79,5
2239,-9,5,4238,-79,5
2240,-9,5,4239,-79,5
2241,-8,5,4240,-79,5
2242,-7,5,4241,-66,5
2243,-7,5,4242,-53,5
2244,-7,5,4243,-44,5
2245,-6,5,4244,-37,5
2246,-5,5,4245,-34,5
2247,-4,5,4246,-35,5
2248,-4,5,4247,-35,5
2249,-5,5,4248,-32,5
2250,-6,5,4249,-30,5
2251,-6,5,4250,-28,5
2252,-6,5,4251,-26,5
2253,-4,5,4252,-24,5
2254,-3,5,4253,-23,5
2255,-3,5,4254,-22,5
2256,-3,5,4255,-20,5
2257,-2,5,4256,-20,5
2258,-1,5,4257,-21,5
2259,0,5,4258,-20,5
2260,1,5,4259,-18,5
2261,0,5,4260,-18,5
2262,0,5,4261,-19,5
2263,2,5,4262,-19,5
2264,4,5,4263,-19,5
2265,6,5,4264,-17,5
2266,6,5,4265,-17,5
2267,6,5,4266,-16,5
2268,7,5,4267,-15,5
2269,9,5,4268,-15,5
2270,10,5,4269,-15,5
2271,10,5,4270,-14,5
2272,11,5,4271,-13,5
2273,12,5,4272,-11,5
2274,12,5,4273,-11,5
2275,12,5,4274,-11,5
2276,13,5,4275,-12,5
2277,13,5,4276,-11,5
2278,13,5,4277,-11,5
2279,14,5,4278,-11,5
2280,15,5,4279,-10,5
2281,17,5,4280,-9,5
2282,19,5,4281,-10,5
2283,20,5,4282,-9,5
2284,23,5,4283,-7,5
2285,25,5,4284,-7,5
2286,27,5,4285,-6,5
2287,29,5,4286,-6,5
2288,31,5,4287,-7,5
2289,33,5,4288,-7,5
2290,34,5,4289,-7,5
2291,35,5,4290,-8,5
2292,36,5,4291,-8,5
2293,38,5,4292,-7,5
2294,40,5,4293,-6,5
2295,43,5,4294,-4,5
2296,45,5,4295,-4,5
2297,47,5,4296,-2,5
2298,49,5,4297,0,5
2299,51,5,4298,0,5
2300,53,5,4299,0,5
2301,55,5,4300,0,5
2302,57,5,4301,0,5
2303,60,5,4302,1,5
2304,63,5,4303,2,5
2305,66,5,4304,1,5
2306,68,5,4305,2,5
2307,71,5,4306,3,5
2308,74,5,4307,4,5
2309,76,5,4308,4,5
2310,78,5,4309,4,5
2311,81,5,4310,6,5
2312,84,5,4311,7,5
2313,87,5,4312,9,5
2314,90,5,4313,10,5
2315,93,5,4314,12,5
2316,95,5,4315,12,5
2317,97,5,4316,13,5
2318,100,5,4317,14,5
2319,102,5,4318,14,5
2320,102,5,4319,15,5
2321,104,5,4320,18,5
2322,106,5,4321,21,5
2323,106,5,4322,23,5
2324,106,5,4323,25,5
2325,106,5,4324,26,5
2326,107,5,4325,26,5
2327,106,5,4326,29,5
2328,104,5,4327,31,5
2329,103,5,4328,34,5
2330,103,5,4329,36,5
2331,103,5,4330,36,5
2332,101,5,4331,37,5
2333,99,5,4332,38,5
2334,96,5,4333,40,5
2335,93,5,4334,43,5
2336,90,5,4335,45,5
2337,85,5,4336,47,5
2338,81,5,4337,48,5
2339,77,5,4338,52,5
2340,72,5,4339,54,5
2341,66,5,4340,56,5
2342,60,5,4341,59,5
2343,55,5,4342,62,5
2344,50,5,4343,65,5
2345,45,5,4344,67,5
2346,40,5,4345,69,5
2347,35,5,4346,71,5
2348,31,5,4347,73,5
2349,28,5,4348,76,5
2350,25,5,4349,78,5
2351,19,5,4350,81,5
2352,14,5,4351,84,5
2353,10,5,4352,89,5
2354,7,5,4353,91,5
2355,4,5,4354,93,5
2356,2,5,4355,97,5
2357,0,5,4356,100,5
2358,-1,5,4357,103,5
2359,-3,5,4358,104,5
2360,-6,5,4359,106,5
2361,-8,5,4360,107,5
2362,-10,5,4361,108,5
2363,-12,5,4362,109,5
2364,-14,5,4363,111,5
2365,-16,5,4364,111,5
2366,-18,5,4365,111,5
2367,-20,5,4366,111,5
2368,-21,5,4367,110,5
2369,-22,5,4368,108,5
2370,-23,5,4369,106,5
2371,-24,5,4370,103,5
2372,-24,5,4371,100,5
2373,-24,5,4372,98,5
2374,-24,5,4373,96,5
2375,-24,5,4374,94,5
2376,-25,5,4375,91,5
2377,-26,5,4376,86,5
2378,-27,5,4377,81,5
2379,-26,5,4378,76,5
2380,-26,5,4379,71,5
2381,-26,5,4380,65,5
2382,-26,5,4381,60,5
2383,-26,5,4382,56,5
2384,-27,5,4383,51,5
2385,-27,5,4384,47,5
2386,-27,5,4385,42,5
2387,-26,5,4386,37,5
2388,-26,5,4387,34,5
2389,-26,5,4388,30,5
2390,-27,5,4389,25,5
2391,-28,5,4390,19,5
2392,-28,5,4391,13,5
2393,-28,5,4392,9,5
2394,-27,5,4393,5,5
2395,-26,5,4394,2,5
2396,-27,5,4395,-1,5
2397,-28,5,4396,-3,5
2398,-29,5,4397,-5,5
2399,-30,5,4398,-8,5
2400,-31,5,4399,-11,5
2401,-31,5,4400,-13,5
2402,-30,5,4401,-14,5
2403,-30,5,4402,-17,5
2404,-30,5,4403,-19,5
2405,-30,5,4404,-20,5
2406,-30,5,4405,-22,5
2407,-31,5,4406,-23,5
2408,-31,5,4407,-23,5
2409,-32,5,4408,-24,5
2410,-32,5,4409,-25,5
2411,-32,5,4410,-26,5
2412,-31,5,4411,-27,5
2413,-31,5,4412,-29,5
2414,-33,5,4413,-31,5
2415,-32,5,4414,-30,5
2416,-32,5,4415,-29,5
2417,-32,5,4416,-29,5
2418,-32,5,4417,-29,5
2419,-33,5,4418,-28,5
2420,-32,5,4419,-28,5
2421,-32,5,4420,-30,5
2422,-33,5,4421,-31,5
2423,-32,5,4422,-31,5
2424,-33,5,4423,-32,5
2425,-34,5,4424,-31,5
2426,-35,5,4425,-31,5
2427,-36,5,4426,-33,5
2428,-36,5,4427,-34,5
2429,-35,5,4428,-32,5
2430,-34,5,4429,-32,5
2431,-32,5,4430,-32,5
2432,-31,5,4431,-32,5
2433,-31,5,4432,-33,5
2434,-31,5,4433,-32,5
2435,-30,5,4434,-32,5
2436,-30,5,4435,-32,5
2437,-29,5,4436,-32,5
2438,-29,5,4437,-31,5
2439,-29,5,4438,-32,5
2440,-28,5,4439,-34,5
2441,-28,5,4440,-35,5
2442,-29,5,4441,-35,5
2443,-30,5,4442,-35,5
2444,-29,5,4443,-35,5
2445,-29,5,4444,-36,5
2446,-29,5,4445,-35,5
2447,-30,5,4446,-35,5
2448,-31,5,4447,-34,5
2449,-31,5,4448,-33,5
2450,-30,5,4449,-34,5
2451,-30,5,4450,-35,5
2452,-30,5,4451,-35,5
2453,-29,5,4452,-35,5
2454,-30,5,4453,-37,5
2455,-30,5,4454,-38,5
2456,-28,5,4455,-38,5
2457,-25,5,4456,-39,5
2458,-25,5,4457,-39,5
2459,-25,5,4458,-38,5
2460,-25,5,4459,-38,5
2461,-26,5,4460,-38,5
2462,-28,5,4461,-38,5
2463,-29,5,4462,-38,5
2464,-30,5,4463,-38,5
2465,-31,5,4464,-37,5
2466,-31,5,4465,-37,5
2467,-30,5,4466,-37,5
2468,-30,5,4467,-36,5
2469,-29,5,4468,-36,5
2470,-28,5,4469,-38,5
2471,-27,5,4470,-37,5
2472,-27,5,4471,-37,5
2473,-28,5,4472,-36,5
2474,-28,5,4473,-36,5
2475,-27,5,4474,-35,5
2476,-27,5,4475,-36,5
2477,-28,5,4476,-36,5
2478,-31,5,4477,-36,5
2479,-33,5,4478,-35,5
2480,-33,5,4479,-36,5
2481,-33,5,4480,-37,5
2482,-31,5,4481,-38,5
2483,-31,5,4482,-37,5
2484,-30,5,4483,-34,5
2485,-31,5,4484,-34,5
2486,-29,5,4485,-34,5
2487,-29,5,4486,-35,5
2488,-29,5,4487,-35,5
2489,-30,5,4488,-34,5
2490,-29,5,4489,-34,5
2491,-30,5,4490,-34,5
2492,-30,5,4491,-33,5
2493,-30,5,4492,-33,5
2494,-30,5,4493,-33,5
2495,-30,5,4494,-34,5
2496,-29,5,4495,-36,5
2497,-28,5,4496,-36,5
2498,-29,5,4497,-36,5
2499,-29,5,4498,-36,5
2500,-29,5,4499,-37,5
2501,-30,5,4500,-37,5
2502,-32,5,4501,-34,5
2503,-32,5,4502,-33,5
2504,-33,5,4503,-33,5
2505,-33,5,4504,-33,5
2506,-33,5,4505,-33,5
2507,-34,5,4506,-35,5
2508,-34,5,4507,-34,5
2509,-33,5,4508,-33,5
2510,-32,5,4509,-33,5
2511,-31,5,4510,-33,5
2512,-31,5,4511,-32,5
2513,-31,5,4512,-31,5
2514,-31,5,4513,-31,5
2515,-31,5,4514,-32,5
2516,-30,5,4515,-32,5
2517,-30,5,4516,-34,5
2518,-31,5,4517,-35,5
2519,-32,5,4518,-34,5
2520,-33,5,4519,-34,5
2521,-32,5,4520,-34,5
2522,-32,5,4521,-33,5
2523,-32,5,4522,-34,5
2524,-31,5,4523,-37,5
2525,-32,5,4524,-38,5
2526,-34,5,4525,-39,5
2527,-35,5,4526,-39,5
2528,-34,5,4527,-38,5
2529,-32,5,4528,-36,5
2530,-32,5,4529,-35,5
2531,-32,5,4530,-35,5
2532,-32,5,4531,-36,5
2533,-32,5,4532,-35,5
2534,-31,5,4533,-34,5
2535,-29,5,4534,-34,5
2536,-29,5,4535,-36,5
2537,-28,5,4536,-36,5
2538,-27,5,4537,-36,5
2539,-27,5,4538,-38,5
2540,-29,5,4539,-38,5
2541,-29,5,4540,-38,5
2542,-29,5,4541,-38,5
2543,-28,5,4542,-38,5
2544,-28,5,4543,-37,5
2545,-28,5,4544,-37,5
2546,-29,5,4545,-37,5
2547,-29,5,4546,-36,5
2548,-29,5,4547,-34,5
2549,-29,5,4548,-34,5
2550,-29,5,4549,-34,5
2551,-27,5,4550,-35,5
2552,-27,5,4551,-35,5
2553,-27,5,4552,-35,5
2554,-29,5,4553,-35,5
2555,-29,5,4554,-35,5
2556,-28,5,4555,-36,5
2557,-28,5,4556,-37,5
2558,-30,5,4557,-37,5
2559,-30,5,4558,-37,5
2560,-30,5,4559,-38,5
2561,-30,5,4560,-39,5
2562,-29,5,4561,-40,5
2563,-29,5,4562,-41,5
2564,-28,5,4563,-40,5
2565,-27,5,4564,-37,5
2566,-27,5,4565,-36,5
2567,-27,5,4566,-34,5
2568,-27,5,4567,-34,5
2569,-27,5,4568,-34,5
2570,-26,5,4569,-34,5
2571,-26,5,4570,-35,5
2572,-27,5,4571,-36,5
2573,-28,5,4572,-35,5
2574,-28,5,4573,-35,5
2575,-29,5,4574,-35,5
2576,-28,5,4575,-36,5
2577,-28,5,4576,-35,5
2578,-28,5,4577,-35,5
2579,-28,5,4578,-35,5
2580,-27,5,4579,-35,5
2581,-28,5,4580,-36,5
2582,-27,5,4581,-36,5
2583,-26,5,4582,-36,5
2584,-27,5,4583,-37,5
2585,-28,5,4584,-37,5
2586,-28,5,4585,-37,5
2587,-28,5,4586,-36,5
2588,-28,5,4587,-36,5
2589,-27,5,4588,-37,5
2590,-27,5,4589,-38,5
2591,-27,5,4590,-37,5
2592,-27,5,4591,-37,5
2593,-28,5,4592,-37,5
2594,-27,5,4593,-36,5
2595,-26,5,4594,-34,5
2596,-27,5,4595,-33,5
2597,-27,5,4596,-34,5
2598,-27,5,4597,-35,5
2599,-27,5,4598,-36,5
2600,-27,5,4599,-36,5
2601,-27,5,4600,-36,5
2602,-27,5,4601,-37,5
2603,-27,5,4602,-37,5
2604,-27,5,4603,-37,5
2605,-28,5,4604,-38,5
2606,-27,5,4605,-37,5
2607,-25,5,4606,-37,5
2608,-24,5,4607,-37,5
2609,-25,5,4608,-37,5
2610,-25,5,4609,-37,5
2611,-25,5,4610,-37,5
2612,-24,5,4611,-37,5
2613,-24,5,4612,-36,5
2614,-24,5,4613,-36,5
2615,-24,5,4614,-36,5
2616,-24,5,4615,-37,5
2617,-23,5,4616,-37,5
2618,-24,5,4617,-38,5
2619,-23,5,4618,-38,5
2620,-24,5,4619,-37,5
2621,-25,5,4620,-37,5
2622,-26,5,4621,-36,5
2623,-27,5,4622,-35,5
2624,-28,5,4623,-35,5
2625,-28,5,4624,-36,5
2626,-29,5,4625,-35,5
2627,-30,5,4626,-35,5
2628,-30,5,4627,-36,5
2629,-32,5,4628,-36,5
2630,-32,5,4629,-36,5
2631,-31,5,4630,-35,5
2632,-30,5,4631,-36,5
2633,-30,5,4632,-37,5
2634,-31,5,4633,-38,5
2635,-30,5,4634,-38,5
2636,-30,5,4635,-36,5
2637,-29,5,4636,-36,5
2638,-27,5,4637,-36,5
2639,-26,5,4638,-36,5
2640,-26,5,4639,-36,5
2641,-24,5,4640,-36,5
2642,-23,5,4641,-38,5
2643,-23,5,4642,-39,5
2644,-23,5,4643,-38,5
2645,-25,5,4644,-38,5
2646,-25,5,4645,-39,5
2647,-26,5,4646,-38,5
2648,-28,5,4647,-37,5
2649,-31,5,4648,-37,5
2650,-35,5,4649,-35,5
2651,-37,5,4650,-33,5
2652,-38,5,4651,-33,5
2653,-39,5,4652,-35,5
2654,-39,5,4653,-35,5
2655,-39,5,4654,-34,5
2656,-38,5,4655,-33,5
2657,-38,5,4656,-32,5
2658,-36,5,4657,-31,5
2659,-36,5,4658,-31,5
2660,-36,5,4659,-31,5
2661,-36,5,4660,-30,5
2662,-37,5,4661,-29,5
2663,-38,5,4662,-29,5
2664,-40,5,4663,-29,5
2665,-38,5,4664,-29,5
2666,-37,5,4665,-29,5
2667,-37,5,4666,-29,5
2668,-37,5,4667,-31,5
2669,-37,5,4668,-31,5
2670,-38,5,4669,-30,5
2671,-38,5,4670,-30,5
2672,-38,5,4671,-30,5
2673,-39,5,4672,-29,5
2674,-40,5,4673,-29,5
2675,-39,5,4674,-29,5
2676,-39,5,4675,-31,5
2677,-39,5,4676,-33,5
2678,-38,5,4677,-35,5
2679,-36,5,4678,-36,5
2680,-33,5,4679,-37,5
2681,-30,5,4680,-36,5
2682,-27,5,4681,-35,5
2683,-22,5,4682,-35,5
2684,-12,5,4683,-35,5
2685,11,5,4684,-35,5
2686,42,5,4685,-33,5
2687,72,5,4686,-30,5
2688,103,5,4687,-30,5
2689,134,5,4688,-29,5
2690,152,5,4689,-28,5
2691,152,5,4690,-27,5
2692,152,5,4691,-27,5
2693,152,5,4692,-27,5
2694,152,5,4693,-29,5
2695,152,5,4694,-31,5
2696,152,5,4695,-32,5
2697,152,5,4696,-33,5
2698,139,5,4697,-33,5
2699,49,5,4698,-36,5
2700,-29,5,4699,-38,5
2701,-79,5,4700,-41,5
2702,-79,5,4701,-42,5
2703,-79,5,4702,-42,5
2704,-79,5,4703,-41,5
2705,-79,5,4704,-40,5
2706,-79,5,4705,-39,5
2707,-79,5,4706,-39,5
2708,-79,5,4707,-39,5
2709,-79,5,4708,-40,5
2710,-76,5,4709,-42,5
2711,-64,5,4710,-42,5
2712,-55,5,4711,-41,5
2713,-49,5,4712,-40,5
2714,-44,5,4713,-40,5
2715,-41,5,4714,-42,5
2716,-38,5,4715,-41,5
2717,-36,5,4716,-40,5
2718,-34,5,4717,-41,5
2719,-31,5,4718,-40,5
2720,-28,5,4719,-39,5
2721,-25,5,4720,-37,5
2722,-22,5,4721,-37,5
2723,-21,5,4722,-38,5
2724,-22,5,4723,-39,5
2725,-22,5,4724,-39,5
2726,-22,5,4725,-37,5
2727,-22,5,4726,-37,5
2728,-22,5,4727,-36,5
2729,-21,5,4728,-34,5
2730,-21,5,4729,-32,5
2731,-21,5,4730,-28,5
2732,-20,5,4731,-22,5
2733,-20,5,4732,-13,5
2734,-20,5,4733,4,5
2735,-18,5,4734,29,5
2736,-16,5,4735,54,5
2737,-16,5,4736,81,5
2738,-16,5,4737,115,5
2739,-16,5,4738,152,5
2740,-16,5,4739,152,5
2741,-15,5,4740,152,5
2742,-14,5,4741,152,5
2743,-13,5,4742,152,5
2744,-13,5,4743,152,5
2745,-13,5,4744,152,5
2746,-12,5,4745,152,5
2747,-12,5,4746,152,5
2748,-12,5,4747,148,5
2749,-11,5,4748,55,5
2750,-11,5,4749,-23,5
2751,-10,5,4750,-79,5
2752,-10,5,4751,-79,5
2753,-10,5,4752,-79,5
2754,-10,5,4753,-79,5
2755,-8,5,4754,-79,5
2756,-7,5,4755,-79,5
2757,-5,5,4756,-79,5
2758,-4,5,4757,-79,5
2759,-4,5,4758,-75,5
2760,-6,5,4759,-63,5
2761,-7,5,4760,-55,5
2762,-5,5,4761,-48,5
2763,-4,5,4762,-45,5
2764,-4,5,4763,-42,5
2765,-4,5,4764,-40,5
2766,-4,5,4765,-37,5
2767,-4,5,4766,-35,5
2768,-3,5,4767,-32,5
2769,-1,5,4768,-28,5
2770,0,5,4769,-25,5
2771,0,5,4770,-23,5
2772,0,5,4771,-22,5
2773,1,5,4772,-21,5
2774,2,5,4773,-21,5
2775,4,5,4774,-22,5
2776,6,5,4775,-22,5
2777,6,5,4776,-21,5
2778,5,5,4777,-20,5
2779,4,5,4778,-19,5
2780,6,5,4779,-19,5
2781,8,5,4780,-19,5
2782,9,5,4781,-18,5
2783,10,5,4782,-17,5
2784,12,5,4783,-16,5
2785,13,5,4784,-16,5
2786,13,5,4785,-15,5
2787,16,5,4786,-15,5
2788,18,5,4787,-14,5
2789,19,5,4788,-14,5
2790,19,5,4789,-14,5
2791,21,5,4790,-13,5
2792,22,5,4791,-12,5
2793,24,5,4792,-10,5
2794,26,5,4793,-9,5
2795,28,5,4794,-9,5
2796,30,5,4795,-9,5
2797,32,5,4796,-9,5
2798,34,5,4797,-8,5
2799,36,5,4798,-8,5
2800,39,5,4799,-7,5
2801,42,5,4800,-8,5
2802,44,5,4801,-9,5
2803,46,5,4802,-8,5
2804,48,5,4803,-8,5
2805,51,5,4804,-8,5
2806,53,5,4805,-6,5
2807,56,5,4806,-6,5
2808,59,5,4807,-6,5
2809,62,5,4808,-6,5
2810,64,5,4809,-5,5
2811,65,5,4810,-5,5
2812,67,5,4811,-4,5
2813,69,5,4812,-2,5
2814,72,5,4813,-1,5
2815,75,5,4814,-1,5
2816,78,5,4815,-1,5
2817,81,5,4816,-1,5
2818,82,5,4817,-1,5
2819,85,5,4818,0,5
2820,88,5,4819,2,5
2821,91,5,4820,2,5
2822,94,5,4821,2,5
2823,96,5,4822,1,5
2824,99,5,4823,1,5
2825,101,5,4824,2,5
2826,103,5,4825,3,5
2827,105,5,4826,6,5
2828,106,5,4827,8,5
2829,106,5,4828,10,5
2830,108,5,4829,12,5
2831,109,5,4830,13,5
2832,108,5,4831,14,5
2833,108,5,4832,14,5
2834,107,5,4833,14,5
2835,107,5,4834,15,5
2836,106,5,4835,16,5
2837,106,5,4836,17,5
2838,105,5,4837,17,5
2839,104,5,4838,19,5
2840,102,5,4839,21,5
2841,100,5,4840,22,5
2842,97,5,4841,25,5
2843,95,5,4842,27,5
2844,92,5,4843,28,5
2845,88,5,4844,30,5
2846,84,5,4845,31,5
2847,79,5,4846,32,5
2848,75,5,4847,34,5
2849,68,5,4848,35,5
2850,60,5,4849,38,5
2851,53,5,4850,39,5
2852,46,5,4851,41,5
2853,42,5,4852,44,5
2854,38,5,4853,46,5
2855,35,5,4854,48,5
2856,32,5,4855,52,5
2857,29,5,4856,54,5
2858,24,5,4857,56,5
2859,19,5,4858,58,5
2860,15,5,4859,60,5
2861,10,5,4860,62,5
2862,6,5,4861,65,5
2863,3,5,4862,69,5
2864,0,5,4863,72,5
2865,-2,5,4864,74,5
2866,-4,5,4865,76,5
2867,-7,5,4866,79,5
2868,-11,5,4867,81,5
2869,-14,5,4868,83,5
2870,-16,5,4869,85,5
2871,-16,5,4870,87,5
2872,-18,5,4871,90,5
2873,-20,5,4872,93,5
2874,-21,5,4873,95,5
2875,-23,5,4874,97,5
2876,-24,5,4875,100,5
2877,-25,5,4876,103,5
2878,-25,5,4877,104,5
2879,-26,5,4878,104,5
2880,-26,5,4879,106,5
2881,-28,5,4880,108,5
2882,-28,5,4881,110,5
2883,-29,5,4882,112,5
2884,-30,5,4883,110,5
2885,-31,5,4884,110,5
2886,-31,5,4885,109,5
2887,-31,5,4886,109,5
2888,-30,5,4887,107,5
2889,-29,5,4888,106,5
2890,-29,5,4889,104,5
2891,-29,5,4890,102,5
2892,-30,5,4891,99,5
2893,-32,5,4892,94,5
2894,-32,5,4893,89,5
2895,-32,5,4894,86,5
2896,-32,5,4895,84,5
2897,-33,5,4896,80,5
2898,-33,5,4897,76,5
2899,-32,5,4898,70,5
2900,-32,5,4899,65,5
2901,-33,5,4900,60,5
2902,-34,5,4901,56,5
2903,-35,5,4902,51,5
2904,-35,5,4903,46,5
2905,-35,5,4904,41,5
2906,-35,5,4905,36,5
2907,-35,5,4906,30,5
2908,-34,5,4907,26,5
2909,-34,5,4908,22,5
2910,-34,5,4909,20,5
2911,-33,5,4910,15,5
2912,-34,5,4911,11,5
2913,-34,5,4912,8,5
2914,-35,5,4913,6,5
2915,-36,5,4914,2,5
2916,-36,5,4915,-1,5
2917,-37,5,4916,-5,5
2918,-36,5,4917,-8,5
2919,-36,5,4918,-11,5
2920,-36,5,4919,-13,5
2921,-35,5,4920,-14,5
2922,-34,5,4921,-16,5
2923,-34,5,4922,-19,5
2924,-33,5,4923,-21,5
2925,-33,5,4924,-22,5
2926,-32,5,4925,-22,5
2927,-32,5,4926,-23,5
2928,-32,5,4927,-23,5
2929,-32,5,4928,-24,5
2930,-33,5,4929,-26,5
2931,-33,5,4930,-25,5
2932,-33,5,4931,-24,5
2933,-32,5,4932,-24,5
2934,-33,5,4933,-25,5
2935,-33,5,4934,-26,5
2936,-31,5,4935,-26,5
2937,-29,5,4936,-28,5
2938,-28,5,4937,-28,5
2939,-27,5,4938,-28,5
2940,-27,5,4939,-29,5
2941,-28,5,4940,-28,5
2942,-28,5,4941,-27,5
2943,-27,5,4942,-26,5
2944,-27,5,4943,-26,5
2945,-29,5,4944,-25,5
2946,-28,5,4945,-26,5
2947,-28,5,4946,-25,5
2948,-27,5,4947,-25,5
2949,-26,5,4948,-25,5
2950,-24,5,4949,-25,5
2951,-22,5,4950,-26,5
2952,-21,5,4951,-26,5
2953,-21,5,4952,-27,5
2954,-23,5,4953,-28,5
2955,-26,5,4954,-29,5
2956,-27,5,4955,-30,5
2957,-25,5,4956,-31,5
2958,-25,5,4957,-30,5
2959,-26,5,4958,-29,5
2960,-27,5,4959,-29,5
2961,-27,5,4960,-29,5
2962,-27,5,4961,-30,5
2963,-27,5,4962,-30,5
2964,-26,5,4963,-29,5
2965,-26,5,4964,-28,5
2966,-25,5,4965,-28,5
2967,-25,5,4966,-28,5
2968,-26,5,4967,-27,5
2969,-27,5,4968,-28,5
2970,-26,5,4969,-29,5
2971,-25,5,4970,-31,5
2972,-25,5,4971,-32,5
2973,-25,5,4972,-33,5
2974,-26,5,4973,-33,5
2975,-26,5,4974,-33,5
2976,-27,5,4975,-34,5
2977,-26,5,4976,-34,5
2978,-25,5,4977,-34,5
2979,-26,5,4978,-34,5
2980,-27,5,4979,-35,5
2981,-27,5,4980,-35,5
2982,-27,5,4981,-34,5
2983,-28,5,4982,-33,5
2984,-28,5,4983,-34,5
2985,-28,5,4984,-34,5
2986,-28,5,4985,-34,5
2987,-28,5,4986,-34,5
2988,-29,5,4987,-35,5
2989,-29,5,4988,-36,5
2990,-29,5,4989,-35,5
2991,-28,5,4990,-35,5
2992,-27,5,4991,-35,5
2993,-26,5,4992,-34,5
2994,-26,5,4993,-34,5
2995,-27,5,4994,-34,5
2996,-28,5,4995,-33,5
2997,-29,5,4996,-33,5
2998,-30,5,4997,-32,5
2999,-31,5,4998,-31,5
3000,-31,5,4999,-31,5
