TS,Reading,Flag,TS2,Reading2,Flag2
1,-17,5,2000,-14,5
2,-16,5,2001,-14,5
3,-16,5,2002,-12,5
4,-16,5,2003,-14,5
5,-17,5,2004,-15,5
6,-18,5,2005,-15,5
7,-17,5,2006,-14,5
8,-16,5,2007,-14,5
9,-14,5,2008,-15,5
10,-14,5,2009,-17,5
11,-14,5,2010,-15,5
12,-14,5,2011,-13,5
13,-15,5,2012,-14,5
14,-16,5,2013,-14,5
15,-17,5,2014,-14,5
16,-17,5,2015,-14,5
17,-18,5,2016,-13,5
18,-18,5,2017,-13,5
19,-18,5,2018,-13,5
20,-18,5,2019,-14,5
21,-18,5,2020,-14,5
22,-18,5,2021,-13,5
23,-17,5,2022,-13,5
24,-13,5,2023,-14,5
25,-12,5,2024,-14,5
26,-15,5,2025,-13,5
27,-16,5,2026,-12,5
28,-17,5,2027,-11,5
29,-17,5,2028,-11,5
30,-16,5,2029,-9,5
31,-15,5,2030,-8,5
32,-15,5,2031,-10,5
33,-17,5,2032,-14,5
34,-18,5,2033,-17,5
35,-18,5,2034,-18,5
36,-17,5,2035,-17,5
37,-18,5,2036,-15,5
38,-17,5,2037,-14,5
39,-16,5,2038,-14,5
40,-15,5,2039,-14,5
41,-14,5,2040,-13,5
42,-14,5,2041,-14,5
43,-13,5,2042,-15,5
44,-12,5,2043,-14,5
45,-13,5,2044,-13,5
46,-14,5,2045,-13,5
47,-18,5,2046,-13,5
48,-18,5,2047,-14,5
49,-18,5,2048,-16,5
50,-18,5,2049,-16,5
51,-17,5,2050,-16,5
52,-14,5,2051,-15,5
53,-12,5,2052,-15,5
54,-13,5,2053,-15,5
55,-13,5,2054,-16,5
56,-13,5,2055,-17,5
57,-13,5,2056,-18,5
58,-15,5,2057,-18,5
59,-17,5,2058,-17,5
60,-18,5,2059,-16,5
61,-16,5,2060,-13,5
62,-15,5,2061,-14,5
63,-12,5,2062,-15,5
64,-10,5,2063,-16,5
65,-9,5,2064,-15,5
66,-9,5,2065,-16,5
67,-8,5,2066,-14,5
68,-3,5,2067,-14,5
69,-1,5,2068,-15,5
70,-2,5,2069,-15,5
71,-3,5,2070,-13,5
72,-3,5,2071,-12,5
73,-1,5,2072,-13,5
74,2,5,2073,-13,5
75,3,5,2074,-15,5
76,4,5,2075,-15,5
77,4,5,2076,-13,5
78,4,5,2077,-12,5
79,5,5,2078,-12,5
80,8,5,2079,-13,5
81,8,5,2080,-12,5
82,6,5,2081,-13,5
83,5,5,2082,-13,5
84,6,5,2083,-12,5
85,5,5,2084,-13,5
86,4,5,2085,-14,5
87,5,5,2086,-13,5
88,7,5,2087,-13,5
89,10,5,2088,-15,5
90,10,5,2089,-14,5
91,9,5,2090,-15,5
92,9,5,2091,-14,5
93,5,5,2092,-15,5
94,3,5,2093,-14,5
95,3,5,2094,-11,5
96,2,5,2095,-10,5
97,0,5,2096,-8,5
98,-2,5,2097,-6,5
99,-2,5,2098,-6,5
100,-3,5,2099,-6,5
101,-5,5,2100,-5,5
102,-8,5,2101,-4,5
103,-8,5,2102,-4,5
104,-9,5,2103,-4,5
105,-8,5,2104,-4,5
106,-10,5,2105,-3,5
107,-12,5,2106,-1,5
108,-13,5,2107,0,5
109,-15,5,2108,2,5
110,-15,5,2109,3,5
111,-17,5,2110,5,5
112,-18,5,2111,6,5
113,-18,5,2112,6,5
114,-18,5,2113,8,5
115,-18,5,2114,9,5
116,-18,5,2115,9,5
117,-18,5,2116,9,5
118,-18,5,2117,9,5
119,-18,5,2118,10,5
120,-18,5,2119,11,5
121,-18,5,2120,10,5
122,-18,5,2121,9,5
123,-18,5,2122,7,5
124,-18,5,2123,6,5
125,-18,5,2124,3,5
126,-18,5,2125,3,5
127,-18,5,2126,3,5
128,-18,5,2127,3,5
129,-18,5,2128,2,5
130,-18,5,2129,-1,5
131,-18,5,2130,-3,5
132,-18,5,2131,-6,5
133,-18,5,2132,-7,5
134,-18,5,2133,-8,5
135,-18,5,2134,-8,5
136,-18,5,2135,-8,5
137,-18,5,2136,-10,5
138,-18,5,2137,-13,5
139,-18,5,2138,-14,5
140,-18,5,2139,-17,5
141,-18,5,2140,-17,5
142,-18,5,2141,-17,5
143,-17,5,2142,-16,5
144,-8,5,2143,-18,5
145,-1,5,2144,-18,5
146,11,5,2145,-18,5
147,27,5,2146,-18,5
148,44,5,2147,-18,5
149,64,5,2148,-18,5
150,69,5,2149,-18,5
151,69,5,2150,-18,5
152,69,5,2151,-18,5
153,69,5,2152,-18,5
154,69,5,2153,-18,5
155,69,5,2154,-18,5
156,69,5,2155,-18,5
157,69,5,2156,-18,5
158,69,5,2157,-18,5
159,69,5,2158,-18,5
160,41,5,2159,-18,5
161,15,5,2160,-18,5
162,-6,5,2161,-18,5
163,-18,5,2162,-18,5
164,-18,5,2163,-18,5
165,-18,5,2164,-18,5
166,-18,5,2165,-18,5
167,-18,5,2166,-18,5
168,-18,5,2167,-16,5
169,-18,5,2168,-16,5
170,-18,5,2169,-18,5
171,-18,5,2170,-18,5
172,-18,5,2171,-18,5
173,-18,5,2172,-18,5
174,-18,5,2173,-17,5
175,-16,5,2174,-13,5
176,-17,5,2175,-6,5
177,-18,5,2176,2,5
178,-18,5,2177,11,5
179,-18,5,2178,22,5
180,-18,5,2179,37,5
181,-18,5,2180,57,5
182,-18,5,2181,69,5
183,-18,5,2182,69,5
184,-18,5,2183,69,5
185,-18,5,2184,69,5
186,-18,5,2185,69,5
187,-17,5,2186,69,5
188,-17,5,2187,69,5
189,-18,5,2188,69,5
190,-18,5,2189,69,5
191,-17,5,2190,69,5
192,-16,5,2191,61,5
193,-17,5,2192,35,5
194,-17,5,2193,13,5
195,-17,5,2194,0,5
196,-17,5,2195,-8,5
197,-16,5,2196,-13,5
198,-18,5,2197,-17,5
199,-18,5,2198,-18,5
200,-18,5,2199,-18,5
201,-16,5,2200,-18,5
202,-17,5,2201,-18,5
203,-16,5,2202,-17,5
204,-16,5,2203,-15,5
205,-15,5,2204,-14,5
206,-15,5,2205,-13,5
207,-15,5,2206,-11,5
208,-15,5,2207,-10,5
209,-15,5,2208,-9,5
210,-14,5,2209,-10,5
211,-14,5,2210,-9,5
212,-14,5,2211,-8,5
213,-13,5,2212,-9,5
214,-13,5,2213,-10,5
215,-13,5,2214,-11,5
216,-14,5,2215,-12,5
217,-14,5,2216,-11,5
218,-13,5,2217,-11,5
219,-14,5,2218,-12,5
220,-15,5,2219,-11,5
221,-16,5,2220,-10,5
222,-18,5,2221,-9,5
223,-18,5,2222,-9,5
224,-18,5,2223,-9,5
225,-16,5,2224,-10,5
226,-16,5,2225,-10,5
227,-16,5,2226,-8,5
228,-17,5,2227,-8,5
229,-18,5,2228,-9,5
230,-18,5,2229,-10,5
231,-18,5,2230,-10,5
232,-18,5,2231,-9,5
233,-18,5,2232,-8,5
234,-18,5,2233,-8,5
235,-17,5,2234,-7,5
236,-15,5,2235,-6,5
237,-12,5,2236,-7,5
238,-12,5,2237,-8,5
239,-14,5,2238,-7,5
240,-15,5,2239,-9,5
241,-13,5,2240,-8,5
242,-12,5,2241,-6,5
243,-10,5,2242,-7,5
244,-10,5,2243,-9,5
245,-10,5,2244,-9,5
246,-10,5,2245,-7,5
247,-9,5,2246,-4,5
248,-10,5,2247,-3,5
249,-11,5,2248,-6,5
250,-12,5,2249,-8,5
251,-13,5,2250,-10,5
252,-12,5,2251,-12,5
253,-12,5,2252,-10,5
254,-10,5,2253,-9,5
255,-7,5,2254,-9,5
256,-7,5,2255,-9,5
257,-8,5,2256,-7,5
258,-8,5,2257,-6,5
259,-8,5,2258,-6,5
260,-8,5,2259,-7,5
261,-7,5,2260,-9,5
262,-6,5,2261,-12,5
263,-6,5,2262,-12,5
264,-4,5,2263,-9,5
265,-4,5,2264,-6,5
266,-3,5,2265,-5,5
267,-2,5,2266,-5,5
268,0,5,2267,-3,5
269,1,5,2268,-3,5
270,2,5,2269,-4,5
271,3,5,2270,-5,5
272,2,5,2271,-5,5
273,0,5,2272,-5,5
274,-1,5,2273,-5,5
275,0,5,2274,-5,5
276,1,5,2275,-6,5
277,3,5,2276,-7,5
278,4,5,2277,-9,5
279,4,5,2278,-9,5
280,4,5,2279,-6,5
281,4,5,2280,-4,5
282,5,5,2281,-3,5
283,5,5,2282,-2,5
284,5,5,2283,-1,5
285,5,5,2284,-1,5
286,8,5,2285,-3,5
287,9,5,2286,-2,5
288,8,5,2287,0,5
289,10,5,2288,0,5
290,9,5,2289,1,5
291,11,5,2290,0,5
292,11,5,2291,2,5
293,11,5,2292,3,5
294,11,5,2293,3,5
295,14,5,2294,4,5
296,14,5,2295,3,5
297,13,5,2296,3,5
298,10,5,2297,3,5
299,9,5,2298,4,5
300,9,5,2299,5,5
301,10,5,2300,5,5
302,11,5,2301,6,5
303,12,5,2302,5,5
304,11,5,2303,9,5
305,11,5,2304,10,5
306,11,5,2305,8,5
307,13,5,2306,8,5
308,15,5,2307,8,5
309,15,5,2308,8,5
310,16,5,2309,9,5
311,15,5,2310,10,5
312,12,5,2311,11,5
313,9,5,2312,12,5
314,9,5,2313,13,5
315,8,5,2314,14,5
316,7,5,2315,16,5
317,7,5,2316,16,5
318,6,5,2317,17,5
319,5,5,2318,16,5
320,3,5,2319,18,5
321,1,5,2320,19,5
322,-1,5,2321,21,5
323,-2,5,2322,22,5
324,-3,5,2323,21,5
325,-3,5,2324,23,5
326,-4,5,2325,23,5
327,-4,5,2326,23,5
328,-4,5,2327,23,5
329,-5,5,2328,21,5
330,-9,5,2329,23,5
331,-12,5,2330,26,5
332,-13,5,2331,28,5
333,-13,5,2332,28,5
334,-13,5,2333,29,5
335,-11,5,2334,29,5
336,-10,5,2335,29,5
337,-9,5,2336,27,5
338,-11,5,2337,29,5
339,-12,5,2338,29,5
340,-13,5,2339,28,5
341,-13,5,2340,28,5
342,-10,5,2341,25,5
343,-12,5,2342,23,5
344,-13,5,2343,24,5
345,-14,5,2344,22,5
346,-16,5,2345,18,5
347,-18,5,2346,15,5
348,-18,5,2347,13,5
349,-18,5,2348,13,5
350,-18,5,2349,14,5
351,-18,5,2350,13,5
352,-17,5,2351,10,5
353,-16,5,2352,8,5
354,-15,5,2353,7,5
355,-16,5,2354,6,5
356,-18,5,2355,5,5
357,-18,5,2356,5,5
358,-18,5,2357,5,5
359,-18,5,2358,5,5
360,-18,5,2359,4,5
361,-17,5,2360,4,5
362,-16,5,2361,2,5
363,-15,5,2362,1,5
364,-15,5,2363,-2,5
365,-17,5,2364,-5,5
366,-17,5,2365,-9,5
367,-16,5,2366,-10,5
368,-15,5,2367,-11,5
369,-15,5,2368,-11,5
370,-15,5,2369,-9,5
371,-15,5,2370,-7,5
372,-13,5,2371,-6,5
373,-14,5,2372,-8,5
374,-16,5,2373,-8,5
375,-16,5,2374,-9,5
376,-16,5,2375,-11,5
377,-18,5,2376,-13,5
378,-18,5,2377,-12,5
379,-16,5,2378,-11,5
380,-15,5,2379,-10,5
381,-15,5,2380,-9,5
382,-14,5,2381,-10,5
383,-14,5,2382,-11,5
384,-13,5,2383,-12,5
385,-12,5,2384,-14,5
386,-11,5,2385,-16,5
387,-12,5,2386,-14,5
388,-13,5,2387,-11,5
389,-12,5,2388,-11,5
390,-11,5,2389,-12,5
391,-8,5,2390,-12,5
392,-8,5,2391,-12,5
393,-9,5,2392,-14,5
394,-9,5,2393,-14,5
395,-8,5,2394,-13,5
396,-8,5,2395,-13,5
397,-9,5,2396,-11,5
398,-12,5,2397,-10,5
399,-13,5,2398,-11,5
400,-13,5,2399,-11,5
401,-12,5,2400,-14,5
402,-12,5,2401,-13,5
403,-11,5,2402,-14,5
404,-12,5,2403,-16,5
405,-10,5,2404,-15,5
406,-10,5,2405,-15,5
407,-9,5,2406,-14,5
408,-11,5,2407,-12,5
409,-13,5,2408,-11,5
410,-13,5,2409,-10,5
411,-13,5,2410,-10,5
412,-12,5,2411,-11,5
413,-12,5,2412,-13,5
414,-10,5,2413,-14,5
415,-8,5,2414,-13,5
416,-9,5,2415,-10,5
417,-9,5,2416,-9,5
418,-7,5,2417,-7,5
419,-6,5,2418,-4,5
420,-5,5,2419,-3,5
421,-7,5,2420,-5,5
422,-9,5,2421,-6,5
423,-11,5,2422,-9,5
424,-11,5,2423,-10,5
425,-12,5,2424,-11,5
426,-12,5,2425,-12,5
427,-11,5,2426,-11,5
428,-11,5,2427,-9,5
429,-13,5,2428,-7,5
430,-14,5,2429,-7,5
431,-14,5,2430,-8,5
432,-12,5,2431,-11,5
433,-10,5,2432,-12,5
434,-10,5,2433,-12,5
435,-11,5,2434,-11,5
436,-10,5,2435,-10,5
437,-9,5,2436,-6,5
438,-8,5,2437,-6,5
439,-9,5,2438,-6,5
440,-10,5,2439,-5,5
441,-11,5,2440,-6,5
442,-13,5,2441,-9,5
443,-16,5,2442,-9,5
444,-17,5,2443,-8,5
445,-17,5,2444,-8,5
446,-14,5,2445,-9,5
447,-12,5,2446,-9,5
448,-9,5,2447,-10,5
449,-9,5,2448,-9,5
450,-10,5,2449,-7,5
451,-10,5,2450,-7,5
452,-11,5,2451,-7,5
453,-11,5,2452,-8,5
454,-11,5,2453,-9,5
455,-14,5,2454,-10,5
456,-14,5,2455,-9,5
457,-14,5,2456,-7,5
458,-15,5,2457,-6,5
459,-14,5,2458,-5,5
460,-13,5,2459,-5,5
461,-13,5,2460,-8,5
462,-15,5,2461,-12,5
463,-16,5,2462,-15,5
464,-16,5,2463,-15,5
465,-16,5,2464,-16,5
466,-16,5,2465,-16,5
467,-14,5,2466,-13,5
468,-11,5,2467,-11,5
469,-12,5,2468,-7,5
470,-12,5,2469,-7,5
471,-13,5,2470,-5,5
472,-11,5,2471,-7,5
473,-12,5,2472,-8,5
474,-11,5,2473,-10,5
475,-11,5,2474,-12,5
476,-12,5,2475,-14,5
477,-13,5,2476,-15,5
478,-13,5,2477,-16,5
479,-13,5,2478,-16,5
480,-13,5,2479,-14,5
481,-13,5,2480,-13,5
482,-12,5,2481,-13,5
483,-12,5,2482,-13,5
484,-12,5,2483,-13,5
485,-13,5,2484,-13,5
486,-13,5,2485,-12,5
487,-14,5,2486,-12,5
488,-15,5,2487,-11,5
489,-15,5,2488,-12,5
490,-14,5,2489,-11,5
491,-13,5,2490,-12,5
492,-12,5,2491,-11,5
493,-14,5,2492,-11,5
494,-14,5,2493,-12,5
495,-13,5,2494,-13,5
496,-10,5,2495,-13,5
497,-10,5,2496,-11,5
498,-11,5,2497,-13,5
499,-12,5,2498,-13,5
500,-14,5,2499,-13,5
501,-15,5,2500,-13,5
502,-14,5,2501,-16,5
503,-14,5,2502,-17,5
504,-15,5,2503,-17,5
505,-14,5,2504,-18,5
506,-15,5,2505,-16,5
507,-16,5,2506,-17,5
508,-17,5,2507,-17,5
509,-16,5,2508,-15,5
510,-15,5,2509,-13,5
511,-14,5,2510,-12,5
512,-14,5,2511,-12,5
513,-13,5,2512,-13,5
514,-12,5,2513,-14,5
515,-11,5,2514,-14,5
516,-11,5,2515,-13,5
517,-11,5,2516,-13,5
518,-10,5,2517,-15,5
519,-10,5,2518,-15,5
520,-10,5,2519,-15,5
521,-11,5,2520,-13,5
522,-10,5,2521,-13,5
523,-9,5,2522,-12,5
524,-9,5,2523,-11,5
525,-8,5,2524,-11,5
526,-10,5,2525,-15,5
527,-12,5,2526,-15,5
528,-13,5,2527,-15,5
529,-14,5,2528,-15,5
530,-12,5,2529,-16,5
531,-11,5,2530,-16,5
532,-10,5,2531,-15,5
533,-10,5,2532,-14,5
534,-11,5,2533,-15,5
535,-14,5,2534,-12,5
536,-15,5,2535,-13,5
537,-13,5,2536,-13,5
538,-13,5,2537,-12,5
539,-15,5,2538,-10,5
540,-15,5,2539,-12,5
541,-14,5,2540,-12,5
542,-14,5,2541,-14,5
543,-14,5,2542,-14,5
544,-15,5,2543,-15,5
545,-15,5,2544,-16,5
546,-14,5,2545,-16,5
547,-14,5,2546,-16,5
548,-13,5,2547,-14,5
549,-14,5,2548,-12,5
550,-15,5,2549,-10,5
551,-14,5,2550,-8,5
552,-14,5,2551,-7,5
553,-12,5,2552,-10,5
554,-11,5,2553,-13,5
555,-11,5,2554,-13,5
556,-11,5,2555,-11,5
557,-10,5,2556,-11,5
558,-11,5,2557,-12,5
559,-10,5,2558,-11,5
560,-10,5,2559,-10,5
561,-12,5,2560,-10,5
562,-13,5,2561,-11,5
563,-13,5,2562,-12,5
564,-12,5,2563,-12,5
565,-13,5,2564,-12,5
566,-12,5,2565,-12,5
567,-11,5,2566,-13,5
568,-9,5,2567,-12,5
569,-10,5,2568,-10,5
570,-10,5,2569,-9,5
571,-10,5,2570,-7,5
572,-11,5,2571,-8,5
573,-10,5,2572,-8,5
574,-9,5,2573,-7,5
575,-9,5,2574,-10,5
576,-5,5,2575,-10,5
577,-1,5,2576,-10,5
578,0,5,2577,-9,5
579,-2,5,2578,-10,5
580,-2,5,2579,-10,5
581,-4,5,2580,-9,5
582,-4,5,2581,-7,5
583,-2,5,2582,-7,5
584,-1,5,2583,-9,5
585,1,5,2584,-11,5
586,2,5,2585,-10,5
587,5,5,2586,-11,5
588,8,5,2587,-12,5
589,11,5,2588,-11,5
590,10,5,2589,-10,5
591,9,5,2590,-9,5
592,8,5,2591,-8,5
593,8,5,2592,-10,5
594,8,5,2593,-9,5
595,7,5,2594,-10,5
596,8,5,2595,-12,5
597,9,5,2596,-14,5
598,10,5,2597,-13,5
599,11,5,2598,-13,5
600,11,5,2599,-12,5
601,11,5,2600,-12,5
602,9,5,2601,-10,5
603,7,5,2602,-10,5
604,4,5,2603,-11,5
605,5,5,2604,-12,5
606,3,5,2605,-12,5
607,2,5,2606,-9,5
608,0,5,2607,-6,5
609,-1,5,2608,-4,5
610,-2,5,2609,-5,5
611,-3,5,2610,-6,5
612,-3,5,2611,-7,5
613,-3,5,2612,-7,5
614,-6,5,2613,-8,5
615,-10,5,2614,-7,5
616,-12,5,2615,-5,5
617,-12,5,2616,-3,5
618,-14,5,2617,-1,5
619,-15,5,2618,1,5
620,-16,5,2619,2,5
621,-18,5,2620,2,5
622,-18,5,2621,2,5
623,-18,5,2622,1,5
624,-18,5,2623,2,5
625,-18,5,2624,3,5
626,-18,5,2625,4,5
627,-18,5,2626,5,5
628,-18,5,2627,5,5
629,-18,5,2628,4,5
630,-18,5,2629,2,5
631,-18,5,2630,2,5
632,-18,5,2631,3,5
633,-18,5,2632,1,5
634,-18,5,2633,-1,5
635,-18,5,2634,-3,5
636,-18,5,2635,-5,5
637,-18,5,2636,-6,5
638,-18,5,2637,-6,5
639,-18,5,2638,-9,5
640,-17,5,2639,-12,5
641,-18,5,2640,-14,5
642,-18,5,2641,-15,5
643,-18,5,2642,-16,5
644,-18,5,2643,-14,5
645,-18,5,2644,-15,5
646,-18,5,2645,-14,5
647,-17,5,2646,-15,5
648,-17,5,2647,-17,5
649,-17,5,2648,-18,5
650,-18,5,2649,-18,5
651,-18,5,2650,-18,5
652,-18,5,2651,-18,5
653,-14,5,2652,-18,5
654,-7,5,2653,-18,5
655,2,5,2654,-18,5
656,14,5,2655,-18,5
657,28,5,2656,-18,5
658,46,5,2657,-18,5
659,67,5,2658,-18,5
660,69,5,2659,-18,5
661,69,5,2660,-18,5
662,69,5,2661,-18,5
663,69,5,2662,-18,5
664,69,5,2663,-18,5
665,69,5,2664,-18,5
666,69,5,2665,-18,5
667,69,5,2666,-18,5
668,69,5,2667,-18,5
669,69,5,2668,-18,5
670,58,5,2669,-18,5
671,30,5,2670,-18,5
672,8,5,2671,-18,5
673,-5,5,2672,-18,5
674,-11,5,2673,-18,5
675,-15,5,2674,-18,5
676,-15,5,2675,-18,5
677,-16,5,2676,-18,5
678,-18,5,2677,-18,5
679,-16,5,2678,-18,5
680,-17,5,2679,-18,5
681,-17,5,2680,-18,5
682,-14,5,2681,-18,5
683,-11,5,2682,-18,5
684,-10,5,2683,-18,5
685,-10,5,2684,-18,5
686,-11,5,2685,-13,5
687,-13,5,2686,-3,5
688,-12,5,2687,11,5
689,-12,5,2688,27,5
690,-13,5,2689,45,5
691,-13,5,2690,65,5
692,-13,5,2691,69,5
693,-13,5,2692,69,5
694,-13,5,2693,69,5
695,-12,5,2694,69,5
696,-11,5,2695,69,5
697,-10,5,2696,69,5
698,-10,5,2697,69,5
699,-11,5,2698,69,5
700,-10,5,2699,57,5
701,-8,5,2700,28,5
702,-9,5,2701,4,5
703,-11,5,2702,-13,5
704,-11,5,2703,-18,5
705,-12,5,2704,-18,5
706,-12,5,2705,-18,5
707,-12,5,2706,-18,5
708,-11,5,2707,-18,5
709,-11,5,2708,-18,5
710,-12,5,2709,-18,5
711,-11,5,2710,-18,5
712,-10,5,2711,-18,5
713,-11,5,2712,-18,5
714,-11,5,2713,-18,5
715,-10,5,2714,-18,5
716,-8,5,2715,-18,5
717,-9,5,2716,-18,5
718,-7,5,2717,-18,5
719,-7,5,2718,-18,5
720,-7,5,2719,-18,5
721,-9,5,2720,-18,5
722,-9,5,2721,-18,5
723,-8,5,2722,-18,5
724,-8,5,2723,-18,5
725,-6,5,2724,-18,5
726,-6,5,2725,-18,5
727,-8,5,2726,-18,5
728,-10,5,2727,-18,5
729,-10,5,2728,-18,5
730,-10,5,2729,-18,5
731,-10,5,2730,-18,5
732,-10,5,2731,-18,5
733,-11,5,2732,-18,5
734,-9,5,2733,-18,5
735,-8,5,2734,-18,5
736,-7,5,2735,-18,5
737,-8,5,2736,-18,5
738,-7,5,2737,-18,5
739,-5,5,2738,-18,5
740,-5,5,2739,-18,5
741,-4,5,2740,-18,5
742,-4,5,2741,-18,5
743,-6,5,2742,-18,5
744,-4,5,2743,-18,5
745,-4,5,2744,-18,5
746,-4,5,2745,-18,5
747,-4,5,2746,-18,5
748,-4,5,2747,-18,5
749,-6,5,2748,-18,5
750,-6,5,2749,-18,5
751,-9,5,2750,-18,5
752,-9,5,2751,-18,5
753,-7,5,2752,-18,5
754,-6,5,2753,-18,5
755,-6,5,2754,-18,5
756,-6,5,2755,-17,5
757,-6,5,2756,-17,5
758,-6,5,2757,-17,5
759,-4,5,2758,-18,5
760,-4,5,2759,-18,5
761,-4,5,2760,-18,5
762,-4,5,2761,-18,5
763,-3,5,2762,-18,5
764,-2,5,2763,-18,5
765,0,5,2764,-16,5
766,0,5,2765,-16,5
767,0,5,2766,-18,5
768,1,5,2767,-18,5
769,1,5,2768,-18,5
770,3,5,2769,-18,5
771,3,5,2770,-18,5
772,3,5,2771,-18,5
773,3,5,2772,-17,5
774,5,5,2773,-16,5
775,5,5,2774,-14,5
776,5,5,2775,-14,5
777,6,5,2776,-17,5
778,8,5,2777,-18,5
779,10,5,2778,-18,5
780,10,5,2779,-18,5
781,10,5,2780,-16,5
782,10,5,2781,-17,5
783,12,5,2782,-17,5
784,15,5,2783,-17,5
785,14,5,2784,-18,5
786,12,5,2785,-18,5
787,12,5,2786,-17,5
788,13,5,2787,-14,5
789,13,5,2788,-13,5
790,15,5,2789,-14,5
791,15,5,2790,-14,5
792,18,5,2791,-14,5
793,22,5,2792,-15,5
794,24,5,2793,-15,5
795,25,5,2794,-14,5
796,24,5,2795,-13,5
797,24,5,2796,-11,5
798,24,5,2797,-10,5
799,24,5,2798,-8,5
800,23,5,2799,-7,5
801,23,5,2800,-6,5
802,24,5,2801,-6,5
803,23,5,2802,-7,5
804,25,5,2803,-8,5
805,26,5,2804,-7,5
806,27,5,2805,-6,5
807,28,5,2806,-5,5
808,28,5,2807,-4,5
809,27,5,2808,-1,5
810,26,5,2809,-1,5
811,25,5,2810,-1,5
812,26,5,2811,-1,5
813,27,5,2812,-1,5
814,29,5,2813,-2,5
815,30,5,2814,-2,5
816,28,5,2815,-1,5
817,29,5,2816,0,5
818,29,5,2817,0,5
819,28,5,2818,0,5
820,27,5,2819,1,5
821,27,5,2820,1,5
822,26,5,2821,2,5
823,25,5,2822,3,5
824,23,5,2823,5,5
825,23,5,2824,5,5
826,21,5,2825,5,5
827,19,5,2826,6,5
828,19,5,2827,5,5
829,17,5,2828,6,5
830,13,5,2829,8,5
831,8,5,2830,10,5
832,6,5,2831,8,5
833,4,5,2832,8,5
834,2,5,2833,9,5
835,2,5,2834,10,5
836,2,5,2835,11,5
837,2,5,2836,12,5
838,1,5,2837,13,5
839,0,5,2838,13,5
840,0,5,2839,13,5
841,2,5,2840,13,5
842,-2,5,2841,15,5
843,-4,5,2842,17,5
844,-7,5,2843,18,5
845,-8,5,2844,17,5
846,-10,5,2845,17,5
847,-10,5,2846,17,5
848,-9,5,2847,19,5
849,-9,5,2848,16,5
850,-10,5,2849,13,5
851,-8,5,2850,10,5
852,-8,5,2851,9,5
853,-8,5,2852,8,5
854,-7,5,2853,7,5
855,-8,5,2854,6,5
856,-9,5,2855,8,5
857,-9,5,2856,7,5
858,-10,5,2857,6,5
859,-10,5,2858,4,5
860,-10,5,2859,3,5
861,-10,5,2860,2,5
862,-10,5,2861,0,5
863,-10,5,2862,0,5
864,-10,5,2863,-1,5
865,-13,5,2864,-2,5
866,-13,5,2865,0,5
867,-12,5,2866,-1,5
868,-10,5,2867,-4,5
869,-8,5,2868,-8,5
870,-7,5,2869,-8,5
871,-7,5,2870,-7,5
872,-9,5,2871,-10,5
873,-10,5,2872,-11,5
874,-9,5,2873,-11,5
875,-8,5,2874,-13,5
876,-11,5,2875,-15,5
877,-12,5,2876,-14,5
878,-12,5,2877,-13,5
879,-13,5,2878,-13,5
880,-12,5,2879,-14,5
881,-11,5,2880,-15,5
882,-11,5,2881,-13,5
883,-9,5,2882,-12,5
884,-10,5,2883,-14,5
885,-11,5,2884,-14,5
886,-12,5,2885,-16,5
887,-11,5,2886,-18,5
888,-11,5,2887,-17,5
889,-9,5,2888,-16,5
890,-8,5,2889,-15,5
891,-5,5,2890,-15,5
892,-5,5,2891,-16,5
893,-5,5,2892,-16,5
894,-5,5,2893,-18,5
895,-6,5,2894,-17,5
896,-8,5,2895,-18,5
897,-6,5,2896,-18,5
898,-5,5,2897,-18,5
899,-5,5,2898,-18,5
900,-6,5,2899,-16,5
901,-7,5,2900,-17,5
902,-8,5,2901,-18,5
903,-8,5,2902,-18,5
904,-7,5,2903,-18,5
905,-5,5,2904,-18,5
906,-4,5,2905,-18,5
907,-6,5,2906,-18,5
908,-8,5,2907,-17,5
909,-6,5,2908,-16,5
910,-5,5,2909,-17,5
911,-6,5,2910,-15,5
912,-6,5,2911,-14,5
913,-5,5,2912,-13,5
914,-6,5,2913,-12,5
915,-5,5,2914,-13,5
916,-4,5,2915,-15,5
917,-3,5,2916,-15,5
918,-4,5,2917,-17,5
919,-7,5,2918,-16,5
920,-8,5,2919,-17,5
921,-7,5,2920,-15,5
922,-6,5,2921,-13,5
923,-7,5,2922,-12,5
924,-8,5,2923,-12,5
925,-7,5,2924,-10,5
926,-7,5,2925,-9,5
927,-6,5,2926,-10,5
928,-4,5,2927,-11,5
929,-4,5,2928,-12,5
930,-4,5,2929,-12,5
931,-5,5,2930,-14,5
932,-4,5,2931,-12,5
933,-4,5,2932,-11,5
934,-6,5,2933,-12,5
935,-8,5,2934,-13,5
936,-7,5,2935,-12,5
937,-7,5,2936,-10,5
938,-6,5,2937,-8,5
939,-5,5,2938,-7,5
940,-6,5,2939,-6,5
941,-6,5,2940,-7,5
942,-7,5,2941,-9,5
943,-8,5,2942,-9,5
944,-8,5,2943,-9,5
945,-9,5,2944,-11,5
946,-9,5,2945,-9,5
947,-8,5,2946,-9,5
948,-8,5,2947,-8,5
949,-6,5,2948,-7,5
950,-6,5,2949,-5,5
951,-7,5,2950,-2,5
952,-8,5,2951,-1,5
953,-9,5,2952,-2,5
954,-10,5,2953,-5,5
955,-10,5,2954,-9,5
956,-8,5,2955,-10,5
957,-7,5,2956,-9,5
958,-7,5,2957,-8,5
959,-8,5,2958,-10,5
960,-9,5,2959,-12,5
961,-9,5,2960,-13,5
962,-8,5,2961,-12,5
963,-10,5,2962,-10,5
964,-9,5,2963,-8,5
965,-10,5,2964,-7,5
966,-11,5,2965,-8,5
967,-9,5,2966,-8,5
968,-7,5,2967,-10,5
969,-7,5,2968,-11,5
970,-6,5,2969,-11,5
971,-8,5,2970,-11,5
972,-10,5,2971,-9,5
973,-13,5,2972,-7,5
974,-13,5,2973,-6,5
975,-13,5,2974,-6,5
976,-12,5,2975,-9,5
977,-11,5,2976,-8,5
978,-10,5,2977,-6,5
979,-10,5,2978,-7,5
980,-11,5,2979,-10,5
981,-12,5,2980,-11,5
982,-13,5,2981,-11,5
983,-13,5,2982,-11,5
984,-13,5,2983,-11,5
985,-12,5,2984,-11,5
986,-13,5,2985,-11,5
987,-14,5,2986,-11,5
988,-15,5,2987,-10,5
989,-14,5,2988,-10,5
990,-13,5,2989,-10,5
991,-14,5,2990,-10,5
992,-14,5,2991,-7,5
993,-14,5,2992,-5,5
994,-13,5,2993,-5,5
995,-14,5,2994,-6,5
996,-15,5,2995,-8,5
997,-14,5,2996,-10,5
998,-14,5,2997,-11,5
999,-15,5,2998,-13,5
1000,-15,5,2999,-15,5
1001,-14,5,3000,-15,5
1002,-10,5,3001,-17,5
1003,-9,5,3002,-17,5
1004,-9,5,3003,-15,5
1005,-10,5,3004,-13,5
1006,-9,5,3005,-12,5
1007,-12,5,3006,-11,5
1008,-15,5,3007,-11,5
1009,-14,5,3008,-11,5
1010,-12,5,3009,-11,5
1011,-10,5,3010,-10,5
1012,-9,5,3011,-11,5
1013,-8,5,3012,-9,5
1014,-9,5,3013,-10,5
1015,-11,5,3014,-10,5
1016,-12,5,3015,-10,5
1017,-14,5,3016,-11,5
1018,-14,5,3017,-12,5
1019,-13,5,3018,-13,5
1020,-12,5,3019,-14,5
1021,-14,5,3020,-14,5
1022,-15,5,3021,-15,5
1023,-16,5,3022,-13,5
1024,-17,5,3023,-12,5
1025,-16,5,3024,-11,5
1026,-14,5,3025,-10,5
1027,-11,5,3026,-11,5
1028,-11,5,3027,-11,5
1029,-10,5,3028,-7,5
1030,-12,5,3029,-6,5
1031,-15,5,3030,-8,5
1032,-13,5,3031,-9,5
1033,-11,5,3032,-11,5
1034,-11,5,3033,-13,5
1035,-13,5,3034,-13,5
1036,-14,5,3035,-11,5
1037,-15,5,3036,-10,5
1038,-12,5,3037,-11,5
1039,-13,5,3038,-11,5
1040,-14,5,3039,-10,5
1041,-13,5,3040,-11,5
1042,-13,5,3041,-12,5
1043,-14,5,3042,-13,5
1044,-14,5,3043,-14,5
1045,-14,5,3044,-12,5
1046,-14,5,3045,-12,5
1047,-15,5,3046,-13,5
1048,-14,5,3047,-12,5
1049,-14,5,3048,-11,5
1050,-15,5,3049,-10,5
1051,-15,5,3050,-10,5
1052,-15,5,3051,-11,5
1053,-15,5,3052,-10,5
1054,-15,5,3053,-11,5
1055,-15,5,3054,-10,5
1056,-13,5,3055,-10,5
1057,-11,5,3056,-12,5
1058,-10,5,3057,-13,5
1059,-11,5,3058,-10,5
1060,-11,5,3059,-9,5
1061,-11,5,3060,-9,5
1062,-13,5,3061,-8,5
1063,-12,5,3062,-9,5
1064,-12,5,3063,-9,5
1065,-10,5,3064,-11,5
1066,-9,5,3065,-10,5
1067,-10,5,3066,-9,5
1068,-10,5,3067,-12,5
1069,-12,5,3068,-13,5
1070,-13,5,3069,-12,5
1071,-14,5,3070,-9,5
1072,-15,5,3071,-9,5
1073,-12,5,3072,-9,5
1074,-10,5,3073,-7,5
1075,-10,5,3074,-9,5
1076,-8,5,3075,-8,5
1077,-8,5,3076,-8,5
1078,-7,5,3077,-9,5
1079,-6,5,3078,-10,5
1080,-5,5,3079,-11,5
1081,-5,5,3080,-10,5
1082,-3,5,3081,-10,5
1083,0,5,3082,-11,5
1084,2,5,3083,-13,5
1085,3,5,3084,-12,5
1086,1,5,3085,-13,5
1087,-1,5,3086,-12,5
1088,-1,5,3087,-11,5
1089,0,5,3088,-10,5
1090,2,5,3089,-11,5
1091,4,5,3090,-11,5
1092,7,5,3091,-12,5
1093,12,5,3092,-12,5
1094,15,5,3093,-11,5
1095,18,5,3094,-11,5
1096,22,5,3095,-11,5
1097,24,5,3096,-11,5
1098,25,5,3097,-11,5
1099,26,5,3098,-12,5
1100,26,5,3099,-11,5
1101,24,5,3100,-9,5
1102,25,5,3101,-8,5
1103,26,5,3102,-9,5
1104,24,5,3103,-10,5
1105,21,5,3104,-10,5
1106,19,5,3105,-11,5
1107,17,5,3106,-13,5
1108,18,5,3107,-14,5
1109,17,5,3108,-12,5
1110,13,5,3109,-10,5
1111,9,5,3110,-9,5
1112,4,5,3111,-8,5
1113,2,5,3112,-7,5
1114,-1,5,3113,-5,5
1115,-7,5,3114,-4,5
1116,-8,5,3115,-2,5
1117,-10,5,3116,-3,5
1118,-11,5,3117,-2,5
1119,-13,5,3118,-1,5
1120,-14,5,3119,0,5
1121,-14,5,3120,1,5
1122,-15,5,3121,1,5
1123,-17,5,3122,2,5
1124,-16,5,3123,3,5
1125,-15,5,3124,2,5
1126,-17,5,3125,0,5
1127,-17,5,3126,0,5
1128,-17,5,3127,2,5
1129,-18,5,3128,5,5
1130,-17,5,3129,7,5
1131,-18,5,3130,8,5
1132,-18,5,3131,11,5
1133,-18,5,3132,15,5
1134,-17,5,3133,16,5
1135,-18,5,3134,16,5
1136,-18,5,3135,16,5
1137,-18,5,3136,16,5
1138,-18,5,3137,17,5
1139,-18,5,3138,15,5
1140,-18,5,3139,13,5
1141,-18,5,3140,12,5
1142,-18,5,3141,11,5
1143,-18,5,3142,12,5
1144,-18,5,3143,11,5
1145,-18,5,3144,7,5
1146,-18,5,3145,4,5
1147,-18,5,3146,2,5
1148,-18,5,3147,0,5
1149,-18,5,3148,0,5
1150,-18,5,3149,0,5
1151,-18,5,3150,3,5
1152,-18,5,3151,5,5
1153,-18,5,3152,4,5
1154,-18,5,3153,1,5
1155,-18,5,3154,-1,5
1156,-18,5,3155,-3,5
1157,-18,5,3156,-7,5
1158,-16,5,3157,-8,5
1159,-10,5,3158,-8,5
1160,0,5,3159,-8,5
1161,11,5,3160,-8,5
1162,24,5,3161,-11,5
1163,40,5,3162,-14,5
1164,60,5,3163,-15,5
1165,69,5,3164,-15,5
1166,69,5,3165,-17,5
1167,69,5,3166,-16,5
1168,69,5,3167,-15,5
1169,69,5,3168,-15,5
1170,69,5,3169,-16,5
1171,69,5,3170,-17,5
1172,69,5,3171,-18,5
1173,69,5,3172,-18,5
1174,69,5,3173,-18,5
1175,36,5,3174,-18,5
1176,9,5,3175,-18,5
1177,-8,5,3176,-18,5
1178,-17,5,3177,-18,5
1179,-18,5,3178,-18,5
1180,-18,5,3179,-18,5
1181,-18,5,3180,-18,5
1182,-18,5,3181,-17,5
1183,-18,5,3182,-18,5
1184,-18,5,3183,-18,5
1185,-18,5,3184,-17,5
1186,-18,5,3185,-17,5
1187,-18,5,3186,-18,5
1188,-18,5,3187,-18,5
1189,-18,5,3188,-18,5
1190,-18,5,3189,-18,5
1191,-18,5,3190,-18,5
1192,-17,5,3191,-18,5
1193,-15,5,3192,-17,5
1194,-16,5,3193,-17,5
1195,-16,5,3194,-18,5
1196,-15,5,3195,-15,5
1197,-14,5,3196,-5,5
1198,-15,5,3197,4,5
1199,-14,5,3198,14,5
1200,-13,5,3199,28,5
1201,-13,5,3200,45,5
1202,-15,5,3201,64,5
1203,-14,5,3202,69,5
1204,-13,5,3203,69,5
1205,-13,5,3204,69,5
1206,-14,5,3205,69,5
1207,-15,5,3206,69,5
1208,-14,5,3207,69,5
1209,-13,5,3208,69,5
1210,-13,5,3209,69,5
1211,-11,5,3210,69,5
1212,-11,5,3211,69,5
1213,-12,5,3212,57,5
1214,-13,5,3213,33,5
1215,-13,5,3214,13,5
1216,-13,5,3215,1,5
1217,-14,5,3216,-6,5
1218,-13,5,3217,-11,5
1219,-13,5,3218,-14,5
1220,-13,5,3219,-17,5
1221,-14,5,3220,-18,5
1222,-16,5,3221,-18,5
1223,-17,5,3222,-18,5
1224,-17,5,3223,-18,5
1225,-16,5,3224,-17,5
1226,-15,5,3225,-16,5
1227,-11,5,3226,-11,5
1228,-12,5,3227,-11,5
1229,-11,5,3228,-9,5
1230,-9,5,3229,-9,5
1231,-10,5,3230,-10,5
1232,-11,5,3231,-13,5
1233,-14,5,3232,-13,5
1234,-15,5,3233,-11,5
1235,-15,5,3234,-11,5
1236,-13,5,3235,-10,5
1237,-10,5,3236,-10,5
1238,-9,5,3237,-10,5
1239,-12,5,3238,-10,5
1240,-14,5,3239,-9,5
1241,-16,5,3240,-10,5
1242,-17,5,3241,-11,5
1243,-17,5,3242,-11,5
1244,-15,5,3243,-12,5
1245,-14,5,3244,-12,5
1246,-14,5,3245,-12,5
1247,-13,5,3246,-12,5
1248,-13,5,3247,-11,5
1249,-15,5,3248,-11,5
1250,-14,5,3249,-10,5
1251,-14,5,3250,-9,5
1252,-13,5,3251,-9,5
1253,-11,5,3252,-9,5
1254,-10,5,3253,-8,5
1255,-8,5,3254,-6,5
1256,-5,5,3255,-7,5
1257,-7,5,3256,-9,5
1258,-9,5,3257,-10,5
1259,-10,5,3258,-11,5
1260,-9,5,3259,-11,5
1261,-8,5,3260,-11,5
1262,-8,5,3261,-9,5
1263,-7,5,3262,-6,5
1264,-7,5,3263,-5,5
1265,-8,5,3264,-6,5
1266,-8,5,3265,-5,5
1267,-8,5,3266,-5,5
1268,-9,5,3267,-7,5
1269,-9,5,3268,-9,5
1270,-6,5,3269,-9,5
1271,-5,5,3270,-7,5
1272,-6,5,3271,-9,5
1273,-5,5,3272,-9,5
1274,-6,5,3273,-8,5
1275,-6,5,3274,-8,5
1276,-6,5,3275,-9,5
1277,-6,5,3276,-7,5
1278,-6,5,3277,-6,5
1279,-5,5,3278,-5,5
1280,-3,5,3279,-3,5
1281,-2,5,3280,-3,5
1282,-2,5,3281,-4,5
1283,-1,5,3282,-6,5
1284,-1,5,3283,-7,5
1285,0,5,3284,-9,5
1286,0,5,3285,-10,5
1287,1,5,3286,-10,5
1288,2,5,3287,-9,5
1289,2,5,3288,-9,5
1290,4,5,3289,-9,5
1291,6,5,3290,-8,5
1292,6,5,3291,-5,5
1293,6,5,3292,-3,5
1294,7,5,3293,-2,5
1295,8,5,3294,-3,5
1296,8,5,3295,-4,5
1297,9,5,3296,-5,5
1298,9,5,3297,-5,5
1299,8,5,3298,-5,5
1300,8,5,3299,-4,5
1301,7,5,3300,-2,5
1302,6,5,3301,-1,5
1303,6,5,3302,-2,5
1304,9,5,3303,-4,5
1305,11,5,3304,-4,5
1306,12,5,3305,-4,5
1307,13,5,3306,-2,5
1308,12,5,3307,-3,5
1309,12,5,3308,-2,5
1310,10,5,3309,-1,5
1311,10,5,3310,1,5
1312,10,5,3311,3,5
1313,11,5,3312,3,5
1314,12,5,3313,4,5
1315,12,5,3314,3,5
1316,15,5,3315,4,5
1317,17,5,3316,3,5
1318,17,5,3317,4,5
1319,15,5,3318,5,5
1320,15,5,3319,7,5
1321,16,5,3320,7,5
1322,17,5,3321,5,5
1323,17,5,3322,6,5
1324,17,5,3323,6,5
1325,16,5,3324,7,5
1326,16,5,3325,8,5
1327,16,5,3326,8,5
1328,16,5,3327,8,5
1329,16,5,3328,11,5
1330,15,5,3329,12,5
1331,14,5,3330,12,5
1332,14,5,3331,14,5
1333,13,5,3332,14,5
1334,11,5,3333,15,5
1335,8,5,3334,18,5
1336,6,5,3335,21,5
1337,4,5,3336,23,5
1338,3,5,3337,24,5
1339,1,5,3338,25,5
1340,0,5,3339,26,5
1341,1,5,3340,26,5
1342,-1,5,3341,26,5
1343,-3,5,3342,25,5
1344,-4,5,3343,26,5
1345,-5,5,3344,25,5
1346,-5,5,3345,26,5
1347,-6,5,3346,28,5
1348,-8,5,3347,29,5
1349,-8,5,3348,29,5
1350,-9,5,3349,29,5
1351,-10,5,3350,29,5
1352,-8,5,3351,28,5
1353,-7,5,3352,30,5
1354,-8,5,3353,31,5
1355,-10,5,3354,32,5
1356,-11,5,3355,32,5
1357,-12,5,3356,33,5
1358,-10,5,3357,34,5
1359,-9,5,3358,35,5
1360,-7,5,3359,34,5
1361,-7,5,3360,33,5
1362,-8,5,3361,30,5
1363,-9,5,3362,26,5
1364,-9,5,3363,23,5
1365,-12,5,3364,20,5
1366,-14,5,3365,21,5
1367,-16,5,3366,21,5
1368,-16,5,3367,20,5
1369,-18,5,3368,17,5
1370,-16,5,3369,13,5
1371,-14,5,3370,13,5
1372,-13,5,3371,13,5
1373,-12,5,3372,11,5
1374,-10,5,3373,10,5
1375,-13,5,3374,10,5
1376,-13,5,3375,9,5
1377,-12,5,3376,7,5
1378,-11,5,3377,2,5
1379,-12,5,3378,0,5
1380,-13,5,3379,1,5
1381,-11,5,3380,1,5
1382,-10,5,3381,1,5
1383,-7,5,3382,-1,5
1384,-3,5,3383,-4,5
1385,-4,5,3384,-5,5
1386,-5,5,3385,-4,5
1387,-8,5,3386,-5,5
1388,-11,5,3387,-7,5
1389,-9,5,3388,-8,5
1390,-7,5,3389,-10,5
1391,-7,5,3390,-10,5
1392,-6,5,3391,-10,5
1393,-6,5,3392,-10,5
1394,-7,5,3393,-10,5
1395,-6,5,3394,-11,5
1396,-5,5,3395,-11,5
1397,-7,5,3396,-11,5
1398,-7,5,3397,-12,5
1399,-6,5,3398,-12,5
1400,-6,5,3399,-12,5
1401,-8,5,3400,-10,5
1402,-9,5,3401,-10,5
1403,-9,5,3402,-10,5
1404,-8,5,3403,-10,5
1405,-6,5,3404,-10,5
1406,-7,5,3405,-10,5
1407,-8,5,3406,-12,5
1408,-7,5,3407,-13,5
1409,-5,5,3408,-13,5
1410,-4,5,3409,-14,5
1411,-5,5,3410,-13,5
1412,-4,5,3411,-13,5
1413,-3,5,3412,-14,5
1414,-1,5,3413,-14,5
1415,0,5,3414,-15,5
1416,-3,5,3415,-11,5
1417,-5,5,3416,-11,5
1418,-3,5,3417,-11,5
1419,-4,5,3418,-12,5
1420,-5,5,3419,-13,5
1421,-3,5,3420,-12,5
1422,-3,5,3421,-12,5
1423,-3,5,3422,-13,5
1424,-1,5,3423,-13,5
1425,0,5,3424,-15,5
1426,0,5,3425,-12,5
1427,0,5,3426,-11,5
1428,0,5,3427,-10,5
1429,1,5,3428,-9,5
1430,-1,5,3429,-8,5
1431,-3,5,3430,-7,5
1432,-3,5,3431,-7,5
1433,-2,5,3432,-9,5
1434,-3,5,3433,-10,5
1435,-5,5,3434,-10,5
1436,-5,5,3435,-10,5
1437,-4,5,3436,-11,5
1438,-4,5,3437,-11,5
1439,-4,5,3438,-10,5
1440,-4,5,3439,-10,5
1441,-3,5,3440,-10,5
1442,-5,5,3441,-8,5
1443,-4,5,3442,-7,5
1444,-4,5,3443,-7,5
1445,-6,5,3444,-8,5
1446,-7,5,3445,-6,5
1447,-8,5,3446,-4,5
1448,-7,5,3447,-5,5
1449,-5,5,3448,-4,5
1450,-4,5,3449,-3,5
1451,-2,5,3450,-3,5
1452,-2,5,3451,-5,5
1453,-3,5,3452,-9,5
1454,-4,5,3453,-9,5
1455,-6,5,3454,-7,5
1456,-6,5,3455,-7,5
1457,-4,5,3456,-5,5
1458,-4,5,3457,-5,5
1459,-3,5,3458,-5,5
1460,-6,5,3459,-5,5
1461,-7,5,3460,-6,5
1462,-8,5,3461,-6,5
1463,-8,5,3462,-5,5
1464,-7,5,3463,-4,5
1465,-6,5,3464,-4,5
1466,-6,5,3465,-4,5
1467,-8,5,3466,-3,5
1468,-8,5,3467,-3,5
1469,-9,5,3468,-4,5
1470,-10,5,3469,-5,5
1471,-11,5,3470,-6,5
1472,-9,5,3471,-7,5
1473,-7,5,3472,-5,5
1474,-5,5,3473,-2,5
1475,-3,5,3474,0,5
1476,-3,5,3475,-1,5
1477,-3,5,3476,-3,5
1478,-6,5,3477,-4,5
1479,-7,5,3478,-6,5
1480,-7,5,3479,-5,5
1481,-7,5,3480,-4,5
1482,-7,5,3481,-2,5
1483,-8,5,3482,-4,5
1484,-7,5,3483,-5,5
1485,-9,5,3484,-6,5
1486,-7,5,3485,-5,5
1487,-8,5,3486,-6,5
1488,-8,5,3487,-6,5
1489,-8,5,3488,-9,5
1490,-9,5,3489,-9,5
1491,-10,5,3490,-11,5
1492,-12,5,3491,-10,5
1493,-12,5,3492,-11,5
1494,-12,5,3493,-11,5
1495,-11,5,3494,-7,5
1496,-12,5,3495,-5,5
1497,-13,5,3496,-3,5
1498,-12,5,3497,-1,5
1499,-10,5,3498,-2,5
1500,-8,5,3499,-7,5
1501,-9,5,3500,-10,5
1502,-11,5,3501,-12,5
1503,-10,5,3502,-12,5
1504,-8,5,3503,-13,5
1505,-6,5,3504,-11,5
1506,-8,5,3505,-10,5
1507,-9,5,3506,-9,5
1508,-11,5,3507,-9,5
1509,-14,5,3508,-8,5
1510,-16,5,3509,-8,5
1511,-16,5,3510,-11,5
1512,-17,5,3511,-11,5
1513,-16,5,3512,-11,5
1514,-14,5,3513,-12,5
1515,-14,5,3514,-13,5
1516,-14,5,3515,-12,5
1517,-14,5,3516,-11,5
1518,-14,5,3517,-11,5
1519,-13,5,3518,-10,5
1520,-12,5,3519,-11,5
1521,-14,5,3520,-11,5
1522,-15,5,3521,-10,5
1523,-16,5,3522,-12,5
1524,-15,5,3523,-13,5
1525,-14,5,3524,-13,5
1526,-14,5,3525,-13,5
1527,-15,5,3526,-13,5
1528,-15,5,3527,-12,5
1529,-16,5,3528,-13,5
1530,-15,5,3529,-14,5
1531,-15,5,3530,-14,5
1532,-13,5,3531,-12,5
1533,-13,5,3532,-10,5
1534,-14,5,3533,-10,5
1535,-18,5,3534,-10,5
1536,-18,5,3535,-10,5
1537,-18,5,3536,-11,5
1538,-16,5,3537,-13,5
1539,-16,5,3538,-14,5
1540,-15,5,3539,-15,5
1541,-17,5,3540,-16,5
1542,-16,5,3541,-16,5
1543,-15,5,3542,-16,5
1544,-14,5,3543,-16,5
1545,-16,5,3544,-17,5
1546,-18,5,3545,-16,5
1547,-18,5,3546,-15,5
1548,-18,5,3547,-13,5
1549,-18,5,3548,-13,5
1550,-18,5,3549,-11,5
1551,-18,5,3550,-10,5
1552,-17,5,3551,-10,5
1553,-18,5,3552,-12,5
1554,-18,5,3553,-13,5
1555,-18,5,3554,-15,5
1556,-18,5,3555,-14,5
1557,-18,5,3556,-13,5
1558,-18,5,3557,-12,5
1559,-18,5,3558,-12,5
1560,-18,5,3559,-11,5
1561,-18,5,3560,-12,5
1562,-18,5,3561,-14,5
1563,-17,5,3562,-16,5
1564,-15,5,3563,-14,5
1565,-15,5,3564,-15,5
1566,-16,5,3565,-15,5
1567,-17,5,3566,-13,5
1568,-16,5,3567,-12,5
1569,-14,5,3568,-11,5
1570,-13,5,3569,-11,5
1571,-12,5,3570,-13,5
1572,-11,5,3571,-13,5
1573,-12,5,3572,-14,5
1574,-13,5,3573,-15,5
1575,-13,5,3574,-15,5
1576,-13,5,3575,-15,5
1577,-15,5,3576,-13,5
1578,-16,5,3577,-12,5
1579,-16,5,3578,-13,5
1580,-15,5,3579,-14,5
1581,-12,5,3580,-15,5
1582,-10,5,3581,-15,5
1583,-7,5,3582,-15,5
1584,-3,5,3583,-15,5
1585,-1,5,3584,-14,5
1586,0,5,3585,-14,5
1587,-1,5,3586,-13,5
1588,-4,5,3587,-13,5
1589,-6,5,3588,-12,5
1590,-6,5,3589,-12,5
1591,-5,5,3590,-12,5
1592,-1,5,3591,-10,5
1593,2,5,3592,-10,5
1594,4,5,3593,-12,5
1595,6,5,3594,-12,5
1596,8,5,3595,-12,5
1597,11,5,3596,-13,5
1598,11,5,3597,-14,5
1599,8,5,3598,-13,5
1600,6,5,3599,-12,5
1601,5,5,3600,-13,5
1602,6,5,3601,-12,5
1603,6,5,3602,-13,5
1604,6,5,3603,-14,5
1605,9,5,3604,-15,5
1606,12,5,3605,-13,5
1607,12,5,3606,-12,5
1608,11,5,3607,-12,5
1609,8,5,3608,-12,5
1610,6,5,3609,-11,5
1611,5,5,3610,-12,5
1612,4,5,3611,-14,5
1613,1,5,3612,-16,5
1614,0,5,3613,-16,5
1615,0,5,3614,-16,5
1616,-3,5,3615,-14,5
1617,-3,5,3616,-12,5
1618,-7,5,3617,-10,5
1619,-10,5,3618,-8,5
1620,-12,5,3619,-7,5
1621,-13,5,3620,-10,5
1622,-13,5,3621,-14,5
1623,-14,5,3622,-16,5
1624,-16,5,3623,-15,5
1625,-15,5,3624,-13,5
1626,-14,5,3625,-12,5
1627,-14,5,3626,-9,5
1628,-15,5,3627,-9,5
1629,-15,5,3628,-7,5
1630,-15,5,3629,-6,5
1631,-17,5,3630,-7,5
1632,-18,5,3631,-10,5
1633,-18,5,3632,-10,5
1634,-18,5,3633,-8,5
1635,-18,5,3634,-4,5
1636,-17,5,3635,0,5
1637,-17,5,3636,1,5
1638,-18,5,3637,1,5
1639,-18,5,3638,1,5
1640,-18,5,3639,0,5
1641,-18,5,3640,-1,5
1642,-18,5,3641,-2,5
1643,-18,5,3642,-1,5
1644,-18,5,3643,0,5
1645,-18,5,3644,4,5
1646,-18,5,3645,6,5
1647,-18,5,3646,10,5
1648,-18,5,3647,11,5
1649,-18,5,3648,10,5
1650,-18,5,3649,8,5
1651,-17,5,3650,7,5
1652,-18,5,3651,7,5
1653,-17,5,3652,8,5
1654,-17,5,3653,9,5
1655,-18,5,3654,9,5
1656,-18,5,3655,9,5
1657,-18,5,3656,8,5
1658,-18,5,3657,10,5
1659,-16,5,3658,11,5
1660,-12,5,3659,11,5
1661,-2,5,3660,11,5
1662,8,5,3661,9,5
1663,22,5,3662,8,5
1664,37,5,3663,5,5
1665,59,5,3664,2,5
1666,69,5,3665,-1,5
1667,69,5,3666,-2,5
1668,69,5,3667,-3,5
1669,69,5,3668,-3,5
1670,69,5,3669,-3,5
1671,69,5,3670,-5,5
1672,69,5,3671,-8,5
1673,69,5,3672,-10,5
1674,69,5,3673,-11,5
1675,69,5,3674,-12,5
1676,58,5,3675,-14,5
1677,31,5,3676,-14,5
1678,8,5,3677,-15,5
1679,-7,5,3678,-16,5
1680,-14,5,3679,-18,5
1681,-18,5,3680,-18,5
1682,-18,5,3681,-18,5
1683,-18,5,3682,-18,5
1684,-18,5,3683,-18,5
1685,-18,5,3684,-18,5
1686,-18,5,3685,-18,5
1687,-18,5,3686,-18,5
1688,-18,5,3687,-18,5
1689,-18,5,3688,-18,5
1690,-15,5,3689,-18,5
1691,-12,5,3690,-18,5
1692,-12,5,3691,-18,5
1693,-13,5,3692,-18,5
1694,-10,5,3693,-18,5
1695,-10,5,3694,-18,5
1696,-12,5,3695,-18,5
1697,-13,5,3696,-18,5
1698,-14,5,3697,-18,5
1699,-14,5,3698,-18,5
1700,-13,5,3699,-18,5
1701,-13,5,3700,-18,5
1702,-11,5,3701,-18,5
1703,-10,5,3702,-18,5
1704,-6,5,3703,-18,5
1705,-7,5,3704,-18,5
1706,-9,5,3705,-18,5
1707,-10,5,3706,-18,5
1708,-11,5,3707,-18,5
1709,-12,5,3708,-18,5
1710,-13,5,3709,-18,5
1711,-13,5,3710,-18,5
1712,-13,5,3711,-15,5
1713,-12,5,3712,-4,5
1714,-11,5,3713,10,5
1715,-10,5,3714,24,5
1716,-11,5,3715,40,5
1717,-13,5,3716,55,5
1718,-15,5,3717,69,5
1719,-13,5,3718,69,5
1720,-12,5,3719,69,5
1721,-11,5,3720,69,5
1722,-10,5,3721,69,5
1723,-9,5,3722,69,5
1724,-8,5,3723,69,5
1725,-9,5,3724,69,5
1726,-8,5,3725,69,5
1727,-6,5,3726,69,5
1728,-8,5,3727,46,5
1729,-8,5,3728,20,5
1730,-8,5,3729,1,5
1731,-8,5,3730,-11,5
1732,-7,5,3731,-16,5
1733,-6,5,3732,-18,5
1734,-7,5,3733,-18,5
1735,-10,5,3734,-18,5
1736,-11,5,3735,-18,5
1737,-12,5,3736,-18,5
1738,-10,5,3737,-18,5
1739,-10,5,3738,-18,5
1740,-11,5,3739,-18,5
1741,-11,5,3740,-18,5
1742,-9,5,3741,-17,5
1743,-6,5,3742,-15,5
1744,-8,5,3743,-14,5
1745,-11,5,3744,-14,5
1746,-10,5,3745,-13,5
1747,-9,5,3746,-13,5
1748,-8,5,3747,-12,5
1749,-11,5,3748,-11,5
1750,-10,5,3749,-9,5
1751,-9,5,3750,-11,5
1752,-8,5,3751,-13,5
1753,-7,5,3752,-15,5
1754,-8,5,3753,-15,5
1755,-10,5,3754,-15,5
1756,-10,5,3755,-13,5
1757,-11,5,3756,-11,5
1758,-10,5,3757,-11,5
1759,-9,5,3758,-12,5
1760,-9,5,3759,-14,5
1761,-8,5,3760,-13,5
1762,-9,5,3761,-12,5
1763,-9,5,3762,-12,5
1764,-9,5,3763,-12,5
1765,-7,5,3764,-12,5
1766,-6,5,3765,-14,5
1767,-5,5,3766,-15,5
1768,-3,5,3767,-15,5
1769,-2,5,3768,-14,5
1770,0,5,3769,-12,5
1771,0,5,3770,-10,5
1772,-3,5,3771,-9,5
1773,-4,5,3772,-9,5
1774,-3,5,3773,-11,5
1775,-2,5,3774,-13,5
1776,-3,5,3775,-12,5
1777,-3,5,3776,-11,5
1778,-1,5,3777,-10,5
1779,0,5,3778,-11,5
1780,0,5,3779,-11,5
1781,0,5,3780,-11,5
1782,0,5,3781,-12,5
1783,1,5,3782,-14,5
1784,2,5,3783,-15,5
1785,3,5,3784,-16,5
1786,4,5,3785,-14,5
1787,3,5,3786,-14,5
1788,3,5,3787,-13,5
1789,4,5,3788,-13,5
1790,5,5,3789,-12,5
1791,8,5,3790,-12,5
1792,8,5,3791,-12,5
1793,9,5,3792,-12,5
1794,13,5,3793,-12,5
1795,13,5,3794,-11,5
1796,11,5,3795,-12,5
1797,10,5,3796,-13,5
1798,8,5,3797,-13,5
1799,9,5,3798,-13,5
1800,11,5,3799,-13,5
1801,14,5,3800,-12,5
1802,17,5,3801,-11,5
1803,19,5,3802,-10,5
1804,19,5,3803,-10,5
1805,20,5,3804,-9,5
1806,19,5,3805,-7,5
1807,19,5,3806,-9,5
1808,19,5,3807,-12,5
1809,21,5,3808,-14,5
1810,24,5,3809,-13,5
1811,28,5,3810,-12,5
1812,26,5,3811,-13,5
1813,24,5,3812,-13,5
1814,23,5,3813,-15,5
1815,23,5,3814,-16,5
1816,24,5,3815,-13,5
1817,24,5,3816,-12,5
1818,24,5,3817,-12,5
1819,27,5,3818,-12,5
1820,26,5,3819,-10,5
1821,24,5,3820,-8,5
1822,23,5,3821,-7,5
1823,23,5,3822,-5,5
1824,24,5,3823,-5,5
1825,23,5,3824,-5,5
1826,23,5,3825,-5,5
1827,22,5,3826,-2,5
1828,22,5,3827,-3,5
1829,20,5,3828,-6,5
1830,19,5,3829,-6,5
1831,19,5,3830,-7,5
1832,17,5,3831,-7,5
1833,13,5,3832,-5,5
1834,11,5,3833,-3,5
1835,12,5,3834,-4,5
1836,11,5,3835,-5,5
1837,10,5,3836,-4,5
1838,8,5,3837,-3,5
1839,6,5,3838,-2,5
1840,4,5,3839,0,5
1841,1,5,3840,2,5
1842,1,5,3841,2,5
1843,2,5,3842,3,5
1844,1,5,3843,2,5
1845,-2,5,3844,2,5
1846,-4,5,3845,3,5
1847,-5,5,3846,2,5
1848,-5,5,3847,2,5
1849,-6,5,3848,2,5
1850,-7,5,3849,2,5
1851,-9,5,3850,2,5
1852,-11,5,3851,2,5
1853,-11,5,3852,2,5
1854,-11,5,3853,3,5
1855,-12,5,3854,5,5
1856,-10,5,3855,7,5
1857,-8,5,3856,9,5
1858,-8,5,3857,8,5
1859,-9,5,3858,10,5
1860,-10,5,3859,11,5
1861,-10,5,3860,9,5
1862,-10,5,3861,8,5
1863,-10,5,3862,7,5
1864,-11,5,3863,7,5
1865,-12,5,3864,8,5
1866,-12,5,3865,10,5
1867,-11,5,3866,11,5
1868,-11,5,3867,11,5
1869,-11,5,3868,13,5
1870,-12,5,3869,14,5
1871,-14,5,3870,14,5
1872,-14,5,3871,15,5
1873,-12,5,3872,13,5
1874,-13,5,3873,13,5
1875,-13,5,3874,13,5
1876,-12,5,3875,12,5
1877,-11,5,3876,12,5
1878,-10,5,3877,12,5
1879,-11,5,3878,12,5
1880,-14,5,3879,12,5
1881,-15,5,3880,13,5
1882,-14,5,3881,13,5
1883,-14,5,3882,13,5
1884,-14,5,3883,11,5
1885,-14,5,3884,10,5
1886,-13,5,3885,8,5
1887,-10,5,3886,4,5
1888,-8,5,3887,2,5
1889,-7,5,3888,1,5
1890,-7,5,3889,-1,5
1891,-11,5,3890,-2,5
1892,-12,5,3891,-1,5
1893,-14,5,3892,0,5
1894,-14,5,3893,0,5
1895,-12,5,3894,-3,5
1896,-9,5,3895,-6,5
1897,-8,5,3896,-9,5
1898,-8,5,3897,-10,5
1899,-9,5,3898,-10,5
1900,-11,5,3899,-10,5
1901,-11,5,3900,-11,5
1902,-12,5,3901,-13,5
1903,-14,5,3902,-13,5
1904,-13,5,3903,-12,5
1905,-10,5,3904,-12,5
1906,-7,5,3905,-10,5
1907,-6,5,3906,-9,5
1908,-5,5,3907,-8,5
1909,-4,5,3908,-11,5
1910,-4,5,3909,-13,5
1911,-4,5,3910,-14,5
1912,-5,5,3911,-15,5
1913,-6,5,3912,-15,5
1914,-6,5,3913,-17,5
1915,-8,5,3914,-18,5
1916,-8,5,3915,-16,5
1917,-8,5,3916,-15,5
1918,-7,5,3917,-14,5
1919,-7,5,3918,-14,5
1920,-7,5,3919,-13,5
1921,-6,5,3920,-14,5
1922,-7,5,3921,-13,5
1923,-7,5,3922,-14,5
1924,-8,5,3923,-15,5
1925,-7,5,3924,-16,5
1926,-6,5,3925,-15,5
1927,-6,5,3926,-15,5
1928,-5,5,3927,-15,5
1929,-7,5,3928,-15,5
1930,-6,5,3929,-15,5
1931,-6,5,3930,-16,5
1932,-6,5,3931,-16,5
1933,-7,5,3932,-17,5
1934,-9,5,3933,-17,5
1935,-10,5,3934,-16,5
1936,-11,5,3935,-14,5
1937,-10,5,3936,-12,5
1938,-8,5,3937,-12,5
1939,-8,5,3938,-15,5
1940,-9,5,3939,-15,5
1941,-9,5,3940,-14,5
1942,-7,5,3941,-11,5
1943,-4,5,3942,-9,5
1944,-2,5,3943,-10,5
1945,-1,5,3944,-11,5
1946,-3,5,3945,-12,5
1947,-5,5,3946,-12,5
1948,-8,5,3947,-14,5
1949,-8,5,3948,-13,5
1950,-7,5,3949,-13,5
1951,-4,5,3950,-15,5
1952,-4,5,3951,-16,5
1953,-9,5,3952,-14,5
1954,-12,5,3953,-14,5
1955,-13,5,3954,-11,5
1956,-15,5,3955,-7,5
1957,-15,5,3956,-7,5
1958,-14,5,3957,-9,5
1959,-13,5,3958,-9,5
1960,-12,5,3959,-9,5
1961,-12,5,3960,-11,5
1962,-10,5,3961,-12,5
1963,-10,5,3962,-9,5
1964,-11,5,3963,-6,5
1965,-11,5,3964,-6,5
1966,-10,5,3965,-7,5
1967,-10,5,3966,-6,5
1968,-10,5,3967,-5,5
1969,-11,5,3968,-7,5
1970,-11,5,3969,-7,5
1971,-10,5,3970,-7,5
1972,-10,5,3971,-7,5
1973,-11,5,3972,-9,5
1974,-13,5,3973,-9,5
1975,-14,5,3974,-9,5
1976,-14,5,3975,-8,5
1977,-13,5,3976,-7,5
1978,-13,5,3977,-7,5
1979,-12,5,3978,-7,5
1980,-13,5,3979,-6,5
1981,-11,5,3980,-6,5
1982,-11,5,3981,-5,5
1983,-11,5,3982,-4,5
1984,-12,5,3983,-4,5
1985,-12,5,3984,-6,5
1986,-13,5,3985,-6,5
1987,-13,5,3986,-8,5
1988,-14,5,3987,-7,5
1989,-13,5,3988,-6,5
1990,-13,5,3989,-4,5
1991,-12,5,3990,-3,5
1992,-10,5,3991,-6,5
1993,-9,5,3992,-9,5
1994,-9,5,3993,-11,5
1995,-12,5,3994,-12,5
1996,-11,5,3995,-11,5
1997,-14,5,3996,-9,5
1998,-13,5,3997,-7,5
1999,-14,5,3998,-7,5
2000,-14,5,3999,-8,5
2001,-14,5,4000,-8,5
2002,-14,5,4001,-8,5
2003,-12,5,4002,-9,5
2004,-14,5,4003,-11,5
2005,-15,5,4004,-11,5
2006,-15,5,4005,-13,5
2007,-14,5,4006,-13,5
2008,-14,5,4007,-14,5
2009,-15,5,4008,-13,5
2010,-17,5,4009,-11,5
2011,-15,5,4010,-9,5
2012,-13,5,4011,-7,5
2013,-14,5,4012,-6,5
2014,-14,5,4013,-5,5
2015,-14,5,4014,-6,5
2016,-14,5,4015,-8,5
2017,-13,5,4016,-9,5
2018,-13,5,4017,-9,5
2019,-13,5,4018,-9,5
2020,-14,5,4019,-10,5
2021,-14,5,4020,-10,5
2022,-13,5,4021,-11,5
2023,-13,5,4022,-11,5
2024,-14,5,4023,-10,5
2025,-14,5,4024,-12,5
2026,-13,5,4025,-12,5
2027,-12,5,4026,-12,5
2028,-11,5,4027,-13,5
2029,-11,5,4028,-14,5
2030,-9,5,4029,-11,5
2031,-8,5,4030,-9,5
2032,-10,5,4031,-8,5
2033,-14,5,4032,-9,5
2034,-17,5,4033,-9,5
2035,-18,5,4034,-10,5
2036,-17,5,4035,-11,5
2037,-15,5,4036,-13,5
2038,-14,5,4037,-14,5
2039,-14,5,4038,-14,5
2040,-14,5,4039,-15,5
2041,-13,5,4040,-14,5
2042,-14,5,4041,-12,5
2043,-15,5,4042,-12,5
2044,-14,5,4043,-12,5
2045,-13,5,4044,-12,5
2046,-13,5,4045,-10,5
2047,-13,5,4046,-10,5
2048,-14,5,4047,-12,5
2049,-16,5,4048,-14,5
2050,-16,5,4049,-13,5
2051,-16,5,4050,-12,5
2052,-15,5,4051,-12,5
2053,-15,5,4052,-12,5
2054,-15,5,4053,-11,5
2055,-16,5,4054,-10,5
2056,-17,5,4055,-12,5
2057,-18,5,4056,-13,5
2058,-18,5,4057,-13,5
2059,-17,5,4058,-13,5
2060,-16,5,4059,-12,5
2061,-13,5,4060,-11,5
2062,-14,5,4061,-11,5
2063,-15,5,4062,-9,5
2064,-16,5,4063,-9,5
2065,-15,5,4064,-10,5
2066,-16,5,4065,-10,5
2067,-14,5,4066,-7,5
2068,-14,5,4067,-7,5
2069,-15,5,4068,-7,5
2070,-15,5,4069,-9,5
2071,-13,5,4070,-11,5
2072,-12,5,4071,-15,5
2073,-13,5,4072,-17,5
2074,-13,5,4073,-16,5
2075,-15,5,4074,-16,5
2076,-15,5,4075,-15,5
2077,-13,5,4076,-14,5
2078,-12,5,4077,-14,5
2079,-12,5,4078,-15,5
2080,-13,5,4079,-14,5
2081,-12,5,4080,-13,5
2082,-13,5,4081,-12,5
2083,-13,5,4082,-10,5
2084,-12,5,4083,-11,5
2085,-13,5,4084,-10,5
2086,-14,5,4085,-10,5
2087,-13,5,4086,-13,5
2088,-13,5,4087,-13,5
2089,-15,5,4088,-13,5
2090,-14,5,4089,-14,5
2091,-15,5,4090,-13,5
2092,-14,5,4091,-13,5
2093,-15,5,4092,-13,5
2094,-14,5,4093,-11,5
2095,-11,5,4094,-9,5
2096,-10,5,4095,-10,5
2097,-8,5,4096,-11,5
2098,-6,5,4097,-12,5
2099,-6,5,4098,-14,5
2100,-6,5,4099,-15,5
2101,-5,5,4100,-15,5
2102,-4,5,4101,-16,5
2103,-4,5,4102,-17,5
2104,-4,5,4103,-16,5
2105,-4,5,4104,-13,5
2106,-3,5,4105,-12,5
2107,-1,5,4106,-11,5
2108,0,5,4107,-11,5
2109,2,5,4108,-9,5
2110,3,5,4109,-6,5
2111,5,5,4110,-6,5
2112,6,5,4111,-11,5
2113,6,5,4112,-14,5
2114,8,5,4113,-16,5
2115,9,5,4114,-17,5
2116,9,5,4115,-15,5
2117,9,5,4116,-14,5
2118,9,5,4117,-13,5
2119,10,5,4118,-14,5
2120,11,5,4119,-12,5
2121,10,5,4120,-12,5
2122,9,5,4121,-11,5
2123,7,5,4122,-11,5
2124,6,5,4123,-10,5
2125,3,5,4124,-10,5
2126,3,5,4125,-11,5
2127,3,5,4126,-10,5
2128,3,5,4127,-11,5
2129,2,5,4128,-12,5
2130,-1,5,4129,-14,5
2131,-3,5,4130,-13,5
2132,-6,5,4131,-13,5
2133,-7,5,4132,-12,5
2134,-8,5,4133,-9,5
2135,-8,5,4134,-6,5
2136,-8,5,4135,-5,5
2137,-10,5,4136,-5,5
2138,-13,5,4137,-4,5
2139,-14,5,4138,-6,5
2140,-17,5,4139,-3,5
2141,-17,5,4140,-2,5
2142,-17,5,4141,-2,5
2143,-16,5,4142,-2,5
2144,-18,5,4143,0,5
2145,-18,5,4144,1,5
2146,-18,5,4145,1,5
2147,-18,5,4146,0,5
2148,-18,5,4147,-1,5
2149,-18,5,4148,1,5
2150,-18,5,4149,4,5
2151,-18,5,4150,6,5
2152,-18,5,4151,8,5
2153,-18,5,4152,9,5
2154,-18,5,4153,10,5
2155,-18,5,4154,12,5
2156,-18,5,4155,14,5
2157,-18,5,4156,14,5
2158,-18,5,4157,14,5
2159,-18,5,4158,16,5
2160,-18,5,4159,15,5
2161,-18,5,4160,10,5
2162,-18,5,4161,10,5
2163,-18,5,4162,11,5
2164,-18,5,4163,10,5
2165,-18,5,4164,9,5
2166,-18,5,4165,9,5
2167,-18,5,4166,10,5
2168,-16,5,4167,10,5
2169,-16,5,4168,8,5
2170,-18,5,4169,5,5
2171,-18,5,4170,2,5
2172,-18,5,4171,1,5
2173,-18,5,4172,-1,5
2174,-17,5,4173,-1,5
2175,-13,5,4174,-2,5
2176,-6,5,4175,-2,5
2177,2,5,4176,-5,5
2178,11,5,4177,-8,5
2179,22,5,4178,-10,5
2180,37,5,4179,-12,5
2181,57,5,4180,-14,5
2182,69,5,4181,-15,5
2183,69,5,4182,-15,5
2184,69,5,4183,-17,5
2185,69,5,4184,-17,5
2186,69,5,4185,-17,5
2187,69,5,4186,-17,5
2188,69,5,4187,-16,5
2189,69,5,4188,-14,5
2190,69,5,4189,-14,5
2191,69,5,4190,-15,5
2192,61,5,4191,-18,5
2193,35,5,4192,-18,5
2194,13,5,4193,-18,5
2195,0,5,4194,-18,5
2196,-8,5,4195,-18,5
2197,-13,5,4196,-18,5
2198,-17,5,4197,-18,5
2199,-18,5,4198,-18,5
2200,-18,5,4199,-18,5
2201,-18,5,4200,-18,5
2202,-18,5,4201,-17,5
2203,-17,5,4202,-15,5
2204,-15,5,4203,-16,5
2205,-14,5,4204,-18,5
2206,-13,5,4205,-18,5
2207,-11,5,4206,-18,5
2208,-10,5,4207,-18,5
2209,-9,5,4208,-17,5
2210,-10,5,4209,-17,5
2211,-9,5,4210,-16,5
2212,-8,5,4211,-18,5
2213,-9,5,4212,-18,5
2214,-10,5,4213,-18,5
2215,-11,5,4214,-16,5
2216,-12,5,4215,-11,5
2217,-11,5,4216,-2,5
2218,-11,5,4217,8,5
2219,-12,5,4218,21,5
2220,-11,5,4219,36,5
2221,-10,5,4220,52,5
2222,-9,5,4221,69,5
2223,-9,5,4222,69,5
2224,-9,5,4223,69,5
2225,-10,5,4224,69,5
2226,-10,5,4225,69,5
2227,-8,5,4226,69,5
2228,-8,5,4227,69,5
2229,-9,5,4228,69,5
2230,-10,5,4229,69,5
2231,-10,5,4230,69,5
2232,-9,5,4231,69,5
2233,-8,5,4232,42,5
2234,-8,5,4233,17,5
2235,-7,5,4234,0,5
2236,-6,5,4235,-11,5
2237,-7,5,4236,-16,5
2238,-8,5,4237,-18,5
2239,-7,5,4238,-18,5
2240,-9,5,4239,-18,5
2241,-8,5,4240,-18,5
2242,-6,5,4241,-16,5
2243,-7,5,4242,-13,5
2244,-9,5,4243,-12,5
2245,-9,5,4244,-10,5
2246,-7,5,4245,-10,5
2247,-4,5,4246,-14,5
2248,-3,5,4247,-14,5
2249,-6,5,4248,-13,5
2250,-8,5,4249,-13,5
2251,-10,5,4250,-13,5
2252,-12,5,4251,-10,5
2253,-10,5,4252,-11,5
2254,-9,5,4253,-11,5
2255,-9,5,4254,-11,5
2256,-9,5,4255,-10,5
2257,-7,5,4256,-9,5
2258,-6,5,4257,-11,5
2259,-6,5,4258,-10,5
2260,-7,5,4259,-7,5
2261,-9,5,4260,-6,5
2262,-12,5,4261,-7,5
2263,-12,5,4262,-10,5
2264,-9,5,4263,-12,5
2265,-6,5,4264,-11,5
2266,-5,5,4265,-12,5
2267,-5,5,4266,-11,5
2268,-3,5,4267,-8,5
2269,-3,5,4268,-6,5
2270,-4,5,4269,-6,5
2271,-5,5,4270,-6,5
2272,-5,5,4271,-7,5
2273,-5,5,4272,-7,5
2274,-5,5,4273,-8,5
2275,-5,5,4274,-9,5
2276,-6,5,4275,-11,5
2277,-7,5,4276,-10,5
2278,-9,5,4277,-9,5
2279,-9,5,4278,-8,5
2280,-6,5,4279,-7,5
2281,-4,5,4280,-6,5
2282,-3,5,4281,-7,5
2283,-2,5,4282,-7,5
2284,-1,5,4283,-4,5
2285,-1,5,4284,-5,5
2286,-3,5,4285,-6,5
2287,-2,5,4286,-7,5
2288,0,5,4287,-7,5
2289,0,5,4288,-7,5
2290,1,5,4289,-6,5
2291,0,5,4290,-7,5
2292,2,5,4291,-8,5
2293,3,5,4292,-7,5
2294,3,5,4293,-8,5
2295,4,5,4294,-9,5
2296,3,5,4295,-8,5
2297,3,5,4296,-7,5
2298,3,5,4297,-7,5
2299,4,5,4298,-7,5
2300,5,5,4299,-9,5
2301,5,5,4300,-10,5
2302,6,5,4301,-9,5
2303,5,5,4302,-8,5
2304,9,5,4303,-7,5
2305,10,5,4304,-8,5
2306,8,5,4305,-8,5
2307,8,5,4306,-9,5
2308,8,5,4307,-7,5
2309,8,5,4308,-7,5
2310,9,5,4309,-9,5
2311,10,5,4310,-8,5
2312,11,5,4311,-8,5
2313,12,5,4312,-7,5
2314,13,5,4313,-6,5
2315,14,5,4314,-6,5
2316,16,5,4315,-6,5
2317,16,5,4316,-8,5
2318,17,5,4317,-8,5
2319,16,5,4318,-7,5
2320,18,5,4319,-6,5
2321,19,5,4320,-4,5
2322,21,5,4321,-1,5
2323,22,5,4322,1,5
2324,21,5,4323,1,5
2325,23,5,4324,-1,5
2326,23,5,4325,-5,5
2327,23,5,4326,-6,5
2328,23,5,4327,-3,5
2329,21,5,4328,-1,5
2330,23,5,4329,2,5
2331,26,5,4330,3,5
2332,28,5,4331,3,5
2333,28,5,4332,2,5
2334,29,5,4333,0,5
2335,29,5,4334,1,5
2336,29,5,4335,0,5
2337,27,5,4336,-1,5
2338,29,5,4337,-1,5
2339,29,5,4338,2,5
2340,28,5,4339,4,5
2341,28,5,4340,7,5
2342,25,5,4341,8,5
2343,23,5,4342,9,5
2344,24,5,4343,10,5
2345,22,5,4344,9,5
2346,18,5,4345,8,5
2347,15,5,4346,8,5
2348,13,5,4347,9,5
2349,13,5,4348,10,5
2350,14,5,4349,12,5
2351,13,5,4350,11,5
2352,10,5,4351,13,5
2353,8,5,4352,15,5
2354,7,5,4353,15,5
2355,6,5,4354,14,5
2356,5,5,4355,16,5
2357,5,5,4356,17,5
2358,5,5,4357,19,5
2359,5,5,4358,19,5
2360,4,5,4359,21,5
2361,4,5,4360,23,5
2362,2,5,4361,23,5
2363,1,5,4362,22,5
2364,-2,5,4363,23,5
2365,-5,5,4364,22,5
2366,-9,5,4365,22,5
2367,-10,5,4366,23,5
2368,-11,5,4367,25,5
2369,-11,5,4368,26,5
2370,-9,5,4369,28,5
2371,-7,5,4370,29,5
2372,-6,5,4371,28,5
2373,-8,5,4372,28,5
2374,-8,5,4373,30,5
2375,-9,5,4374,29,5
2376,-11,5,4375,30,5
2377,-13,5,4376,29,5
2378,-12,5,4377,28,5
2379,-11,5,4378,28,5
2380,-10,5,4379,27,5
2381,-9,5,4380,26,5
2382,-10,5,4381,26,5
2383,-11,5,4382,26,5
2384,-12,5,4383,25,5
2385,-14,5,4384,24,5
2386,-16,5,4385,21,5
2387,-14,5,4386,19,5
2388,-11,5,4387,18,5
2389,-11,5,4388,17,5
2390,-12,5,4389,16,5
2391,-12,5,4390,11,5
2392,-12,5,4391,8,5
2393,-14,5,4392,7,5
2394,-14,5,4393,5,5
2395,-13,5,4394,3,5
2396,-13,5,4395,1,5
2397,-11,5,4396,-1,5
2398,-10,5,4397,0,5
2399,-11,5,4398,0,5
2400,-11,5,4399,-1,5
2401,-14,5,4400,-2,5
2402,-13,5,4401,-1,5
2403,-14,5,4402,-2,5
2404,-16,5,4403,-3,5
2405,-15,5,4404,-5,5
2406,-15,5,4405,-9,5
2407,-14,5,4406,-10,5
2408,-12,5,4407,-8,5
2409,-11,5,4408,-10,5
2410,-10,5,4409,-10,5
2411,-10,5,4410,-10,5
2412,-11,5,4411,-10,5
2413,-13,5,4412,-12,5
2414,-14,5,4413,-14,5
2415,-13,5,4414,-14,5
2416,-10,5,4415,-13,5
2417,-9,5,4416,-12,5
2418,-7,5,4417,-12,5
2419,-4,5,4418,-12,5
2420,-3,5,4419,-11,5
2421,-5,5,4420,-12,5
2422,-6,5,4421,-13,5
2423,-9,5,4422,-14,5
2424,-10,5,4423,-13,5
2425,-11,5,4424,-13,5
2426,-12,5,4425,-13,5
2427,-11,5,4426,-17,5
2428,-9,5,4427,-18,5
2429,-7,5,4428,-18,5
2430,-7,5,4429,-16,5
2431,-8,5,4430,-15,5
2432,-11,5,4431,-15,5
2433,-12,5,4432,-15,5
2434,-12,5,4433,-16,5
2435,-11,5,4434,-17,5
2436,-10,5,4435,-18,5
2437,-6,5,4436,-18,5
2438,-6,5,4437,-17,5
2439,-6,5,4438,-18,5
2440,-5,5,4439,-18,5
2441,-6,5,4440,-18,5
2442,-9,5,4441,-18,5
2443,-9,5,4442,-17,5
2444,-8,5,4443,-16,5
2445,-8,5,4444,-18,5
2446,-9,5,4445,-17,5
2447,-9,5,4446,-18,5
2448,-10,5,4447,-16,5
2449,-9,5,4448,-16,5
2450,-7,5,4449,-18,5
2451,-7,5,4450,-18,5
2452,-7,5,4451,-17,5
2453,-8,5,4452,-16,5
2454,-9,5,4453,-16,5
2455,-10,5,4454,-15,5
2456,-9,5,4455,-15,5
2457,-7,5,4456,-16,5
2458,-6,5,4457,-17,5
2459,-5,5,4458,-17,5
2460,-5,5,4459,-16,5
2461,-8,5,4460,-15,5
2462,-12,5,4461,-14,5
2463,-15,5,4462,-13,5
2464,-15,5,4463,-12,5
2465,-16,5,4464,-11,5
2466,-16,5,4465,-11,5
2467,-13,5,4466,-12,5
2468,-11,5,4467,-12,5
2469,-7,5,4468,-13,5
2470,-7,5,4469,-15,5
2471,-5,5,4470,-14,5
2472,-7,5,4471,-14,5
2473,-8,5,4472,-13,5
2474,-10,5,4473,-13,5
2475,-12,5,4474,-11,5
2476,-14,5,4475,-9,5
2477,-15,5,4476,-10,5
2478,-16,5,4477,-10,5
2479,-16,5,4478,-10,5
2480,-14,5,4479,-11,5
2481,-13,5,4480,-13,5
2482,-13,5,4481,-15,5
2483,-13,5,4482,-14,5
2484,-13,5,4483,-11,5
2485,-13,5,4484,-9,5
2486,-12,5,4485,-8,5
2487,-12,5,4486,-9,5
2488,-11,5,4487,-10,5
2489,-12,5,4488,-9,5
2490,-11,5,4489,-10,5
2491,-12,5,4490,-11,5
2492,-11,5,4491,-12,5
2493,-11,5,4492,-12,5
2494,-12,5,4493,-13,5
2495,-13,5,4494,-14,5
2496,-13,5,4495,-14,5
2497,-11,5,4496,-14,5
2498,-13,5,4497,-14,5
2499,-13,5,4498,-15,5
2500,-13,5,4499,-18,5
2501,-13,5,4500,-18,5
2502,-16,5,4501,-16,5
2503,-17,5,4502,-13,5
2504,-17,5,4503,-12,5
2505,-18,5,4504,-13,5
2506,-16,5,4505,-13,5
2507,-17,5,4506,-13,5
2508,-17,5,4507,-12,5
2509,-15,5,4508,-11,5
2510,-13,5,4509,-11,5
2511,-12,5,4510,-13,5
2512,-12,5,4511,-13,5
2513,-13,5,4512,-13,5
2514,-14,5,4513,-14,5
2515,-14,5,4514,-14,5
2516,-13,5,4515,-14,5
2517,-13,5,4516,-16,5
2518,-15,5,4517,-18,5
2519,-15,5,4518,-18,5
2520,-15,5,4519,-18,5
2521,-13,5,4520,-16,5
2522,-13,5,4521,-15,5
2523,-12,5,4522,-17,5
2524,-11,5,4523,-18,5
2525,-11,5,4524,-18,5
2526,-15,5,4525,-18,5
2527,-15,5,4526,-18,5
2528,-15,5,4527,-18,5
2529,-15,5,4528,-15,5
2530,-16,5,4529,-12,5
2531,-16,5,4530,-13,5
2532,-15,5,4531,-14,5
2533,-14,5,4532,-14,5
2534,-15,5,4533,-15,5
2535,-12,5,4534,-17,5
2536,-13,5,4535,-18,5
2537,-13,5,4536,-18,5
2538,-12,5,4537,-18,5
2539,-10,5,4538,-18,5
2540,-12,5,4539,-18,5
2541,-12,5,4540,-18,5
2542,-14,5,4541,-18,5
2543,-14,5,4542,-17,5
2544,-15,5,4543,-17,5
2545,-16,5,4544,-18,5
2546,-16,5,4545,-18,5
2547,-16,5,4546,-18,5
2548,-14,5,4547,-18,5
2549,-12,5,4548,-17,5
2550,-10,5,4549,-15,5
2551,-8,5,4550,-14,5
2552,-7,5,4551,-15,5
2553,-10,5,4552,-15,5
2554,-13,5,4553,-15,5
2555,-13,5,4554,-16,5
2556,-11,5,4555,-18,5
2557,-11,5,4556,-18,5
2558,-12,5,4557,-18,5
2559,-11,5,4558,-18,5
2560,-10,5,4559,-18,5
2561,-10,5,4560,-18,5
2562,-11,5,4561,-18,5
2563,-12,5,4562,-18,5
2564,-12,5,4563,-18,5
2565,-12,5,4564,-18,5
2566,-12,5,4565,-18,5
2567,-13,5,4566,-18,5
2568,-12,5,4567,-18,5
2569,-10,5,4568,-18,5
2570,-9,5,4569,-18,5
2571,-7,5,4570,-18,5
2572,-8,5,4571,-18,5
2573,-8,5,4572,-18,5
2574,-7,5,4573,-18,5
2575,-10,5,4574,-18,5
2576,-10,5,4575,-18,5
2577,-10,5,4576,-18,5
2578,-9,5,4577,-18,5
2579,-10,5,4578,-18,5
2580,-10,5,4579,-18,5
2581,-9,5,4580,-18,5
2582,-7,5,4581,-17,5
2583,-7,5,4582,-18,5
2584,-9,5,4583,-18,5
2585,-11,5,4584,-18,5
2586,-10,5,4585,-18,5
2587,-11,5,4586,-18,5
2588,-12,5,4587,-18,5
2589,-11,5,4588,-18,5
2590,-10,5,4589,-18,5
2591,-9,5,4590,-18,5
2592,-8,5,4591,-18,5
2593,-10,5,4592,-18,5
2594,-9,5,4593,-17,5
2595,-10,5,4594,-15,5
2596,-12,5,4595,-14,5
2597,-14,5,4596,-17,5
2598,-13,5,4597,-18,5
2599,-13,5,4598,-18,5
2600,-12,5,4599,-18,5
2601,-12,5,4600,-18,5
2602,-10,5,4601,-18,5
2603,-10,5,4602,-18,5
2604,-11,5,4603,-18,5
2605,-12,5,4604,-18,5
2606,-12,5,4605,-18,5
2607,-9,5,4606,-18,5
2608,-6,5,4607,-18,5
2609,-4,5,4608,-18,5
2610,-5,5,4609,-18,5
2611,-6,5,4610,-18,5
2612,-7,5,4611,-18,5
2613,-7,5,4612,-18,5
2614,-8,5,4613,-18,5
2615,-7,5,4614,-18,5
2616,-5,5,4615,-18,5
2617,-3,5,4616,-18,5
2618,-1,5,4617,-18,5
2619,1,5,4618,-18,5
2620,2,5,4619,-18,5
2621,2,5,4620,-18,5
2622,2,5,4621,-16,5
2623,1,5,4622,-15,5
2624,2,5,4623,-14,5
2625,3,5,4624,-13,5
2626,4,5,4625,-13,5
2627,5,5,4626,-14,5
2628,5,5,4627,-16,5
2629,4,5,4628,-18,5
2630,2,5,4629,-17,5
2631,2,5,4630,-17,5
2632,3,5,4631,-17,5
2633,1,5,4632,-18,5
2634,-1,5,4633,-18,5
2635,-3,5,4634,-18,5
2636,-5,5,4635,-15,5
2637,-6,5,4636,-14,5
2638,-6,5,4637,-14,5
2639,-9,5,4638,-16,5
2640,-12,5,4639,-18,5
2641,-14,5,4640,-18,5
2642,-15,5,4641,-18,5
2643,-16,5,4642,-18,5
2644,-14,5,4643,-18,5
2645,-15,5,4644,-18,5
2646,-14,5,4645,-18,5
2647,-15,5,4646,-17,5
2648,-17,5,4647,-16,5
2649,-18,5,4648,-16,5
2650,-18,5,4649,-16,5
2651,-18,5,4650,-13,5
2652,-18,5,4651,-15,5
2653,-18,5,4652,-16,5
2654,-18,5,4653,-15,5
2655,-18,5,4654,-12,5
2656,-18,5,4655,-9,5
2657,-18,5,4656,-8,5
2658,-18,5,4657,-6,5
2659,-18,5,4658,-8,5
2660,-18,5,4659,-10,5
2661,-18,5,4660,-9,5
2662,-18,5,4661,-8,5
2663,-18,5,4662,-7,5
2664,-18,5,4663,-7,5
2665,-18,5,4664,-4,5
2666,-18,5,4665,-1,5
2667,-18,5,4666,0,5
2668,-18,5,4667,1,5
2669,-18,5,4668,3,5
2670,-18,5,4669,4,5
2671,-18,5,4670,5,5
2672,-18,5,4671,5,5
2673,-18,5,4672,7,5
2674,-18,5,4673,7,5
2675,-18,5,4674,6,5
2676,-18,5,4675,5,5
2677,-18,5,4676,4,5
2678,-18,5,4677,2,5
2679,-18,5,4678,3,5
2680,-18,5,4679,2,5
2681,-18,5,4680,2,5
2682,-18,5,4681,2,5
2683,-18,5,4682,1,5
2684,-18,5,4683,-1,5
2685,-18,5,4684,-4,5
2686,-13,5,4685,-5,5
2687,-3,5,4686,-6,5
2688,11,5,4687,-9,5
2689,27,5,4688,-10,5
2690,45,5,4689,-11,5
2691,65,5,4690,-11,5
2692,69,5,4691,-10,5
2693,69,5,4692,-11,5
2694,69,5,4693,-11,5
2695,69,5,4694,-12,5
2696,69,5,4695,-12,5
2697,69,5,4696,-14,5
2698,69,5,4697,-15,5
2699,69,5,4698,-17,5
2700,57,5,4699,-18,5
2701,28,5,4700,-18,5
2702,4,5,4701,-18,5
2703,-13,5,4702,-18,5
2704,-18,5,4703,-18,5
2705,-18,5,4704,-18,5
2706,-18,5,4705,-18,5
2707,-18,5,4706,-18,5
2708,-18,5,4707,-18,5
2709,-18,5,4708,-18,5
2710,-18,5,4709,-18,5
2711,-18,5,4710,-18,5
2712,-18,5,4711,-18,5
2713,-18,5,4712,-18,5
2714,-18,5,4713,-18,5
2715,-18,5,4714,-18,5
2716,-18,5,4715,-18,5
2717,-18,5,4716,-18,5
2718,-18,5,4717,-18,5
2719,-18,5,4718,-18,5
2720,-18,5,4719,-18,5
2721,-18,5,4720,-18,5
2722,-18,5,4721,-18,5
2723,-18,5,4722,-18,5
2724,-18,5,4723,-18,5
2725,-18,5,4724,-18,5
2726,-18,5,4725,-18,5
2727,-18,5,4726,-18,5
2728,-18,5,4727,-18,5
2729,-18,5,4728,-18,5
2730,-18,5,4729,-18,5
2731,-18,5,4730,-18,5
2732,-18,5,4731,-18,5
2733,-18,5,4732,-18,5
2734,-18,5,4733,-13,5
2735,-18,5,4734,-6,5
2736,-18,5,4735,3,5
2737,-18,5,4736,13,5
2738,-18,5,4737,27,5
2739,-18,5,4738,44,5
2740,-18,5,4739,66,5
2741,-18,5,4740,69,5
2742,-18,5,4741,69,5
2743,-18,5,4742,69,5
2744,-18,5,4743,69,5
2745,-18,5,4744,69,5
2746,-18,5,4745,69,5
2747,-18,5,4746,69,5
2748,-18,5,4747,69,5
2749,-18,5,4748,69,5
2750,-18,5,4749,60,5
2751,-18,5,4750,35,5
2752,-18,5,4751,14,5
2753,-18,5,4752,1,5
2754,-18,5,4753,-7,5
2755,-18,5,4754,-12,5
2756,-17,5,4755,-17,5
2757,-17,5,4756,-18,5
2758,-17,5,4757,-18,5
2759,-18,5,4758,-18,5
2760,-18,5,4759,-18,5
2761,-18,5,4760,-18,5
2762,-18,5,4761,-18,5
2763,-18,5,4762,-18,5
2764,-18,5,4763,-18,5
2765,-16,5,4764,-18,5
2766,-16,5,4765,-18,5
2767,-18,5,4766,-18,5
2768,-18,5,4767,-18,5
2769,-18,5,4768,-17,5
2770,-18,5,4769,-16,5
2771,-18,5,4770,-16,5
2772,-18,5,4771,-15,5
2773,-17,5,4772,-14,5
2774,-16,5,4773,-14,5
2775,-14,5,4774,-15,5
2776,-14,5,4775,-15,5
2777,-17,5,4776,-14,5
2778,-18,5,4777,-15,5
2779,-18,5,4778,-16,5
2780,-18,5,4779,-18,5
2781,-16,5,4780,-18,5
2782,-17,5,4781,-18,5
2783,-17,5,4782,-17,5
2784,-17,5,4783,-16,5
2785,-18,5,4784,-16,5
2786,-18,5,4785,-13,5
2787,-17,5,4786,-13,5
2788,-14,5,4787,-12,5
2789,-13,5,4788,-11,5
2790,-14,5,4789,-13,5
2791,-14,5,4790,-13,5
2792,-14,5,4791,-12,5
2793,-15,5,4792,-11,5
2794,-15,5,4793,-10,5
2795,-14,5,4794,-11,5
2796,-13,5,4795,-11,5
2797,-11,5,4796,-11,5
2798,-10,5,4797,-12,5
2799,-8,5,4798,-13,5
2800,-7,5,4799,-14,5
2801,-6,5,4800,-15,5
2802,-6,5,4801,-15,5
2803,-7,5,4802,-16,5
2804,-8,5,4803,-16,5
2805,-7,5,4804,-15,5
2806,-6,5,4805,-12,5
2807,-5,5,4806,-11,5
2808,-4,5,4807,-11,5
2809,-1,5,4808,-11,5
2810,-1,5,4809,-11,5
2811,-1,5,4810,-12,5
2812,-1,5,4811,-11,5
2813,-1,5,4812,-10,5
2814,-2,5,4813,-8,5
2815,-2,5,4814,-9,5
2816,-1,5,4815,-10,5
2817,0,5,4816,-13,5
2818,0,5,4817,-14,5
2819,0,5,4818,-15,5
2820,1,5,4819,-14,5
2821,1,5,4820,-15,5
2822,2,5,4821,-16,5
2823,3,5,4822,-16,5
2824,5,5,4823,-17,5
2825,5,5,4824,-17,5
2826,5,5,4825,-14,5
2827,6,5,4826,-11,5
2828,5,5,4827,-10,5
2829,6,5,4828,-8,5
2830,8,5,4829,-9,5
2831,10,5,4830,-9,5
2832,8,5,4831,-10,5
2833,8,5,4832,-10,5
2834,9,5,4833,-10,5
2835,10,5,4834,-11,5
2836,11,5,4835,-9,5
2837,12,5,4836,-8,5
2838,13,5,4837,-9,5
2839,13,5,4838,-9,5
2840,13,5,4839,-8,5
2841,13,5,4840,-8,5
2842,15,5,4841,-8,5
2843,17,5,4842,-7,5
2844,18,5,4843,-7,5
2845,17,5,4844,-7,5
2846,17,5,4845,-7,5
2847,17,5,4846,-6,5
2848,19,5,4847,-5,5
2849,16,5,4848,-6,5
2850,13,5,4849,-6,5
2851,10,5,4850,-5,5
2852,9,5,4851,-5,5
2853,8,5,4852,-4,5
2854,7,5,4853,-3,5
2855,6,5,4854,0,5
2856,8,5,4855,3,5
2857,7,5,4856,5,5
2858,6,5,4857,4,5
2859,4,5,4858,4,5
2860,3,5,4859,4,5
2861,2,5,4860,3,5
2862,0,5,4861,3,5
2863,0,5,4862,3,5
2864,-1,5,4863,4,5
2865,-2,5,4864,5,5
2866,0,5,4865,7,5
2867,-1,5,4866,8,5
2868,-4,5,4867,8,5
2869,-8,5,4868,8,5
2870,-8,5,4869,6,5
2871,-7,5,4870,5,5
2872,-10,5,4871,5,5
2873,-11,5,4872,7,5
2874,-11,5,4873,9,5
2875,-13,5,4874,11,5
2876,-15,5,4875,12,5
2877,-14,5,4876,13,5
2878,-13,5,4877,14,5
2879,-13,5,4878,13,5
2880,-14,5,4879,13,5
2881,-15,5,4880,14,5
2882,-13,5,4881,16,5
2883,-12,5,4882,17,5
2884,-14,5,4883,17,5
2885,-14,5,4884,18,5
2886,-16,5,4885,19,5
2887,-18,5,4886,19,5
2888,-17,5,4887,20,5
2889,-16,5,4888,20,5
2890,-15,5,4889,19,5
2891,-15,5,4890,20,5
2892,-16,5,4891,19,5
2893,-16,5,4892,18,5
2894,-18,5,4893,18,5
2895,-17,5,4894,22,5
2896,-18,5,4895,25,5
2897,-18,5,4896,25,5
2898,-18,5,4897,23,5
2899,-18,5,4898,23,5
2900,-16,5,4899,21,5
2901,-17,5,4900,19,5
2902,-18,5,4901,19,5
2903,-18,5,4902,18,5
2904,-18,5,4903,17,5
2905,-18,5,4904,16,5
2906,-18,5,4905,15,5
2907,-18,5,4906,13,5
2908,-17,5,4907,11,5
2909,-16,5,4908,12,5
2910,-17,5,4909,12,5
2911,-15,5,4910,10,5
2912,-14,5,4911,7,5
2913,-13,5,4912,6,5
2914,-12,5,4913,4,5
2915,-13,5,4914,3,5
2916,-15,5,4915,0,5
2917,-15,5,4916,-2,5
2918,-17,5,4917,-5,5
2919,-16,5,4918,-9,5
2920,-17,5,4919,-10,5
2921,-15,5,4920,-10,5
2922,-13,5,4921,-11,5
2923,-12,5,4922,-12,5
2924,-12,5,4923,-13,5
2925,-10,5,4924,-12,5
2926,-9,5,4925,-10,5
2927,-10,5,4926,-9,5
2928,-11,5,4927,-9,5
2929,-12,5,4928,-10,5
2930,-12,5,4929,-13,5
2931,-14,5,4930,-13,5
2932,-12,5,4931,-12,5
2933,-11,5,4932,-13,5
2934,-12,5,4933,-14,5
2935,-13,5,4934,-15,5
2936,-12,5,4935,-13,5
2937,-10,5,4936,-12,5
2938,-8,5,4937,-11,5
2939,-7,5,4938,-11,5
2940,-6,5,4939,-11,5
2941,-7,5,4940,-12,5
2942,-9,5,4941,-14,5
2943,-9,5,4942,-15,5
2944,-9,5,4943,-14,5
2945,-11,5,4944,-14,5
2946,-9,5,4945,-15,5
2947,-9,5,4946,-15,5
2948,-8,5,4947,-15,5
2949,-7,5,4948,-15,5
2950,-5,5,4949,-14,5
2951,-2,5,4950,-13,5
2952,-1,5,4951,-12,5
2953,-2,5,4952,-14,5
2954,-5,5,4953,-14,5
2955,-9,5,4954,-14,5
2956,-10,5,4955,-14,5
2957,-9,5,4956,-13,5
2958,-8,5,4957,-13,5
2959,-10,5,4958,-12,5
2960,-12,5,4959,-12,5
2961,-13,5,4960,-13,5
2962,-12,5,4961,-14,5
2963,-10,5,4962,-15,5
2964,-8,5,4963,-13,5
2965,-7,5,4964,-12,5
2966,-8,5,4965,-9,5
2967,-8,5,4966,-8,5
2968,-10,5,4967,-7,5
2969,-11,5,4968,-8,5
2970,-11,5,4969,-10,5
2971,-11,5,4970,-12,5
2972,-9,5,4971,-13,5
2973,-7,5,4972,-14,5
2974,-6,5,4973,-12,5
2975,-6,5,4974,-11,5
2976,-9,5,4975,-10,5
2977,-8,5,4976,-10,5
2978,-6,5,4977,-9,5
2979,-7,5,4978,-10,5
2980,-10,5,4979,-12,5
2981,-11,5,4980,-12,5
2982,-11,5,4981,-10,5
2983,-11,5,4982,-8,5
2984,-11,5,4983,-8,5
2985,-11,5,4984,-7,5
2986,-11,5,4985,-7,5
2987,-11,5,4986,-8,5
2988,-10,5,4987,-9,5
2989,-10,5,4988,-11,5
2990,-10,5,4989,-12,5
2991,-10,5,4990,-11,5
2992,-7,5,4991,-10,5
2993,-5,5,4992,-8,5
2994,-5,5,4993,-9,5
2995,-6,5,4994,-9,5
2996,-8,5,4995,-9,5
2997,-10,5,4996,-9,5
2998,-11,5,4997,-6,5
2999,-13,5,4998,-6,5
3000,-15,5,4999,-6,5
