TS,Reading
1,2
2,1.5
3,1.3
4,1.2
5,1.5
6,1.3
7,1.3
8,1.3
9,1.2
10,1.5
11,1.8
12,2.1
13,2
14,1.4
15,1.1
16,1.3
17,1.7
18,1.9
19,1.6
20,1.3
21,1.5
22,1.5
23,1.6
24,1.9
25,1.8
26,1.7
27,1.5
28,1
29,0.8
30,1
31,1.1
32,1.5
33,1.9
34,1.7
35,1.3
36,1.1
37,1.4
38,1.6
39,1.5
40,1.8
41,2.4
42,2.6
43,2.8
44,2.2
45,2
46,2
47,1.6
48,1
49,0.8
50,0.9
51,1.2
52,1.2
53,1
54,1.4
55,1.6
56,1.5
57,1.5
58,1.1
59,0.6
60,0.7
61,0.5
62,0.1
63,0
64,0.4
65,0.4
66,0.4
67,0.2
68,-0.2
69,-0.4
70,-0.4
71,0
72,0.3
73,0.1
74,0.1
75,0.4
76,0.8
77,0.5
78,0.3
79,0.4
80,0.6
81,0.8
82,1.1
83,1.5
84,1.4
85,1.4
86,1.1
87,1.1
88,1.1
89,1.3
90,1.5
91,1.6
92,1.6
93,1.5
94,1.9
95,2.1
96,1.8
97,1.9
98,1.8
99,1.9
100,2.3
101,2.1
102,1.9
103,2.1
104,2.2
105,2.2
106,2.2
107,2.3
108,2
109,1.8
110,1.7
111,1.8
112,2
113,2.2
114,2
115,1.8
116,1.8
117,2
118,2.3
119,2.8
120,2.9
121,2.5
122,2.1
123,2
124,1.5
125,0.6
126,-0.7
127,-0.7
128,-1.2
129,-2.9
130,-4.4
131,-6.6
132,-9
133,-10.7
134,-12.2
135,-13.6
136,-14.3
137,-14.4
138,-14.4
139,-13.8
140,-11.7
141,-9.5
142,-7.8
143,-6.7
144,-5.8
145,-4.5
146,-3
147,-2.1
148,-1.7
149,-1.6
150,-1.2
151,-0.7
152,-0.2
153,-0.1
154,0.3
155,1.1
156,1.1
157,1.3
158,1.4
159,1.4
160,1.4
161,1.2
162,1.6
163,1.9
164,1.9
165,1.4
166,1.7
167,1.9
168,1.8
169,1.5
170,1.6
171,1.8
172,2.3
173,2.7
174,2.5
175,2
176,1.5
177,1.8
178,2.1
179,2.4
180,2.4
181,2.2
182,2.1
183,2.2
184,2
185,1.9
186,2.2
187,2.4
188,2.1
189,2
190,1.9
191,1.7
192,1.4
193,1.4
194,1.4
195,1.6
196,1.9
197,2.3
198,2
199,1.8
200,1.9
201,1.8
202,2.2
203,2.3
204,1.9
205,1.7
206,1.8
207,1.6
208,1.3
209,1.4
210,1.7
211,1.6
212,1.5
213,1.5
214,2
215,1.8
216,1.2
217,1.1
218,1.1
219,1.1
220,1.1
221,1.1
222,1.2
223,1.4
224,1.4
225,1.2
226,1.1
227,1.3
228,0.9
229,0.7
230,0.5
231,0.5
232,0.6
233,0.6
234,0.9
235,1.2
236,0.5
237,0
238,0.2
239,0.7
240,0.8
241,0.5
242,0.4
243,0.1
244,-0.1
245,-0.1
246,0
247,0
248,-0.4
249,-1.2
250,-1.5
251,-1.6
252,-1.1
253,-1.2
254,-1.4
255,-1.5
256,-1.6
257,-1.7
258,-1.6
259,-1.4
260,-1.3
261,-1.2
262,-1.4
263,-2
264,-1.9
265,-1.7
266,-2.2
267,-2.4
268,-2.4
269,-2.3
270,-2.2
271,-2.2
272,-2.1
273,-2.3
274,-2.3
275,-2.5
276,-2.5
277,-2.7
278,-2.5
279,-2.3
280,-2.5
281,-2.8
282,-2.8
283,-2.5
284,-2.4
285,-2.4
286,-2.3
287,-1.6
288,-1.5
289,-1.7
290,-1.8
291,-1.7
292,-1.5
293,-1.4
294,-1.3
295,-1.4
296,-1.4
297,-1
298,-0.5
299,-0.4
300,-0.7
301,-0.9
302,-0.7
303,-0.7
304,-0.8
305,-0.4
306,0.1
307,0.1
308,0.1
309,0.2
310,0
311,-0.1
312,0.2
313,0.6
314,0.7
315,1
316,0.9
317,0.5
318,0.8
319,1.3
320,1.4
321,1.1
322,1.3
323,1.2
324,1.2
325,0.8
326,-0.2
327,-0.3
328,0.3
329,1.1
330,1.1
331,1.2
332,1.1
333,1.1
334,1.2
335,1.2
336,0.8
337,0.6
338,0.7
339,0.5
340,0.4
341,0.5
342,0.8
343,0.9
344,1.1
345,1.1
346,1.1
347,0.8
348,1
349,1.3
350,1.2
351,1.3
352,1.2
353,1.1
354,0.7
355,0.6
356,0.7
357,0.6
358,0.4
359,0.7
360,1
361,1.1
362,1.5
363,1.4
364,1.5
365,1.4
366,1.3
367,1.1
368,0.7
369,0.9
370,1
371,1.1
372,0.9
373,0.8
374,1.1
375,1.4
376,1.4
377,1.1
378,0.7
379,0.7
380,0.5
381,0.5
382,0.4
383,0.6
384,0.6
385,0.7
386,0.7
387,0.7
388,0.8
389,0.9
390,0.6
391,0.5
392,0.5
393,0.6
394,0.4
395,0.2
396,0.6
397,1
398,1.1
399,1
400,0.7
401,0.7
402,1.1
403,1.2
404,1.5
405,1.3
406,0.6
407,0.7
408,1.1
409,1
410,0.9
411,1
412,1.1
413,1.2
414,1.3
415,1.6
416,1.8
417,1.3
418,1.1
419,1
420,0.5
421,0.3
422,0.4
423,0.6
424,1
425,1.2
426,1
427,1
428,1.3
429,1.4
430,1.7
431,1.3
432,1.3
433,1.4
434,1.5
435,1.2
436,1.4
437,1.5
438,1.1
439,1.2
440,1.4
441,1.6
442,1.8
443,1.8
444,1.8
445,1.6
446,1.1
447,1
448,1.1
449,1.5
450,1.8
451,2.1
452,1.8
453,1.4
454,1.3
455,1.3
456,1.1
457,1.1
458,1.8
459,2.4
460,2.7
461,2.7
462,2.4
463,2
464,2
465,1.7
466,1.3
467,1.2
468,1.3
469,1.5
470,1.5
471,1.2
472,1.1
473,1.5
474,1.8
475,1.8
476,1.3
477,1.5
478,1.8
479,2
480,1.9
481,1.8
482,1.8
483,1.8
484,1.6
485,1.6
486,1.6
487,1.7
488,1.4
489,1.4
490,1.4
491,1.7
492,1.5
493,1.1
494,1.3
495,1.6
496,1.6
497,1.7
498,1.8
499,1.6
500,1.9
501,2.1
502,2.1
503,2
504,1.6
505,1.3
506,1.6
507,1.8
508,1.6
509,1.6
510,1.7
511,1.7
512,1.5
513,1.7
514,1.9
515,2.1
516,2.1
517,2.2
518,1.9
519,2.2
520,2.3
521,2.1
522,2.2
523,2.2
524,1.9
525,1.6
526,1.6
527,1.6
528,1.4
529,1.6
530,1.7
531,1.4
532,1.1
533,1.2
534,1.2
535,1.1
536,1
537,1.1
538,1
539,1
540,0.8
541,0.7
542,1.1
543,1.4
544,1.7
545,1.3
546,0.6
547,0.3
548,0.1
549,0.3
550,0.4
551,0.3
552,1
553,1.6
554,0.7
555,-0.4
556,-0.5
557,-0.1
558,0
559,0.4
560,0.8
561,0.9
562,1.2
563,1.4
564,1
565,0.6
566,0.5
567,0.3
568,0.3
569,0.7
570,1.3
571,2.1
572,2.3
573,2.3
574,2.2
575,2
576,1.3
577,1
578,1.1
579,1.5
580,2.3
581,2.4
582,2.4
583,2.2
584,1.9
585,1.5
586,1.9
587,2.1
588,1.8
589,1.8
590,1.8
591,2.2
592,2.5
593,2.7
594,2.5
595,2.1
596,2
597,1.9
598,2.3
599,2.5
600,2.1
601,1.7
602,1.9
603,2.4
604,2.4
605,2.3
606,2.1
607,2.1
608,1.7
609,1.2
610,0.2
611,-0.5
612,-1.5
613,-3.1
614,-5.2
615,-7.6
616,-9.6
617,-11.5
618,-12.7
619,-13.8
620,-14.3
621,-14.5
622,-14.2
623,-13.4
624,-11.6
625,-9.4
626,-8.1
627,-7.2
628,-6.3
629,-5.1
630,-4
631,-3.3
632,-3
633,-2.1
634,-1.6
635,-0.9
636,-0.3
637,-0.1
638,-0.1
639,0.2
640,0.6
641,0.8
642,1.1
643,1.4
644,1.6
645,1.5
646,1.6
647,1.7
648,1.8
649,1.7
650,1.8
651,2
652,1.9
653,2.2
654,2.5
655,2.2
656,1.9
657,1.8
658,1.6
659,1.5
660,1.5
661,1.4
662,1.7
663,1.9
664,2.1
665,2.4
666,2.2
667,2.2
668,2.2
669,2
670,1.7
671,2
672,2.2
673,1.8
674,1.4
675,1.7
676,1.9
677,2.4
678,2.3
679,1.8
680,1.1
681,1
682,1.1
683,1.1
684,1.4
685,1.8
686,1.7
687,1.9
688,2.2
689,1.9
690,1.7
691,1.7
692,1.4
693,1.6
694,1.6
695,1.9
696,1.6
697,1.2
698,1
699,1.3
700,1.5
701,1.5
702,1.2
703,0.7
704,0.8
705,0.7
706,0.8
707,1.1
708,1.1
709,1
710,0.7
711,0.6
712,0.8
713,1
714,0.8
715,0.6
716,0.7
717,0.7
718,0.5
719,0.4
720,0.3
721,0.4
722,0.5
723,0.4
724,0.2
725,0.5
726,0.6
727,0
728,-0.4
729,-0.7
730,-1
731,-1.2
732,-1.6
733,-1.5
734,-1.3
735,-1.1
736,-1
737,-1.1
738,-1
739,-0.8
740,-0.6
741,-0.7
742,-0.9
743,-1.3
744,-1.6
745,-1.7
746,-1.5
747,-1.3
748,-1.8
749,-2.4
750,-2.8
751,-2.8
752,-2.7
753,-2.5
754,-2.2
755,-2.2
756,-2.6
757,-2.9
758,-2.9
759,-2.9
760,-2.5
761,-2.3
762,-2.5
763,-2.8
764,-2.9
765,-2.8
766,-2.6
767,-2.1
768,-2
769,-2.5
770,-3
771,-2.9
772,-2.7
773,-2.4
774,-1.9
775,-1.7
776,-1.6
777,-1.4
778,-1.3
779,-1.1
780,-0.7
781,-0.4
782,-0.7
783,-0.7
784,-0.9
785,-0.4
786,-0.1
787,-0.2
788,-0.3
789,-0.3
790,-0.2
791,-0.2
792,0.1
793,0
794,-0.1
795,0.1
796,0
797,0.1
798,0.7
799,1.1
800,1
801,0.9
802,0.5
803,0.1
804,-0.1
805,0
806,0.6
807,1
808,1.2
809,1.2
810,0.8
811,0.8
812,1.2
813,1.4
814,0.9
815,0.4
816,0.8
817,1.2
818,0.9
819,0.8
820,1
821,1.1
822,1.1
823,1.1
824,0.8
825,0.8
826,1.1
827,1
828,0.9
829,0.8
830,0.9
831,0.9
832,0.9
833,1.1
834,1
835,0.8
836,0.5
837,0.5
838,0.6
839,0.7
840,1
841,1.1
842,1.1
843,1.1
844,1.3
845,1.1
846,0.8
847,0.6
848,0.7
849,1
850,1.2
851,1.1
852,0.9
853,0.8
854,1.1
855,1.2
856,1
857,1.1
858,1.2
859,1.1
860,0.8
861,0.3
862,0.5
863,0.6
864,0.8
865,1.3
866,1.3
867,1
868,1.1
869,0.9
870,0.9
871,0.8
872,0.7
873,0.5
874,0.5
875,0.6
876,0.7
877,0.7
878,1.1
879,0.9
880,0.8
881,0.8
882,0.4
883,0.7
884,0.9
885,1
886,0.8
887,0.8
888,0.9
889,1.3
890,1.4
891,0.8
892,1
893,1.1
894,1
895,1
896,1
897,0.9
898,1
899,0.7
900,0.4
901,0.8
902,0.8
903,0.9
904,1.1
905,1.1
906,1
907,1
908,1
909,1.1
910,1.4
911,1.6
912,1.8
913,1.2
914,0.8
915,1.5
916,1.5
917,1.2
918,1.2
919,1.1
920,0.9
921,1.1
922,1.2
923,1.1
924,1.3
925,1.2
926,0.7
927,0.9
928,1.3
929,1.5
930,1.5
931,1
932,0.7
933,0.9
934,1.5
935,1.5
936,1.3
937,0.7
938,0.9
939,1
940,1.2
941,1.5
942,1.3
943,1.3
944,1.4
945,1.1
946,0.8
947,0.9
948,1.2
949,1.7
950,1.9
951,1.6
952,1.3
953,1.5
954,1.6
955,1.5
956,1.3
957,1.3
958,1.3
959,1
960,1.3
961,2
962,1.9
963,2
964,1.5
965,1.3
966,1.3
967,1.6
968,1.9
969,2
970,1.8
971,1.8
972,1.9
973,1.7
974,1.5
975,1.8
976,1.9
977,1.9
978,1.3
979,0.9
980,0.8
981,1.1
982,1.4
983,1.5
984,1.6
985,1.6
986,1.7
987,1.8
988,1.6
989,1.5
990,1.6
991,1.6
992,1.4
993,1.7
994,1.9
995,1.9
996,2
997,1.8
998,1.7
999,1.8
1000,1.6
1001,1.4
1002,1.2
1003,1.1
1004,1
1005,1
1006,1.3
1007,1.2
1008,1.3
1009,1.2
1010,1.6
1011,1.7
1012,1.6
1013,1.6
1014,2
1015,1.7
1016,1.2
1017,1.4
1018,1.5
1019,1.5
1020,1.6
1021,1.5
1022,1.1
1023,1.4
1024,1.7
1025,1.6
1026,1.5
1027,1.2
1028,1
1029,0.9
1030,0.8
1031,0.6
1032,0.8
1033,1.3
1034,2.1
1035,1.6
1036,1
1037,0.8
1038,0.5
1039,0.4
1040,0.3
1041,0.3
1042,0.5
1043,0.6
1044,0.3
1045,0.3
1046,0.1
1047,-0.2
1048,0
1049,0.4
1050,0.8
1051,0.6
1052,1.1
1053,1.1
1054,0.6
1055,0.2
1056,0
1057,0.2
1058,0.4
1059,0.5
1060,0.7
1061,1.2
1062,1.1
1063,1
1064,1
1065,1.3
1066,1.9
1067,1.8
1068,1.5
1069,1.6
1070,1.7
1071,1.7
1072,2
1073,2.1
1074,2.2
1075,2.3
1076,2.1
1077,2.2
1078,2.4
1079,2.3
1080,2.4
1081,2.2
1082,2.5
1083,2.5
1084,2.1
1085,2
1086,2.2
1087,2.2
1088,2.3
1089,1.8
1090,1.4
1091,1.7
1092,1.6
1093,1.8
1094,2.2
1095,2.4
1096,2.7
1097,2.9
1098,2.6
1099,1.9
1100,0.9
1101,-0.2
1102,-0.5
1103,-1.6
1104,-3.1
1105,-4.9
1106,-7.3
1107,-9
1108,-10.3
1109,-12.1
1110,-13.2
1111,-13.6
1112,-14.4
1113,-14.8
1114,-13.7
1115,-11.1
1116,-8.7
1117,-7.8
1118,-7
1119,-5.5
1120,-4.3
1121,-3
1122,-2.3
1123,-2.6
1124,-2.6
1125,-2
1126,-1.1
1127,-0.4
1128,0.2
1129,0.9
1130,1.3
1131,1.6
1132,2
1133,2
1134,1.7
1135,1.5
1136,1.5
1137,1.2
1138,1.5
1139,1.9
1140,1.7
1141,1.4
1142,1.8
1143,2.1
1144,2.2
1145,2.3
1146,2.1
1147,2.1
1148,2
1149,2.1
1150,2.3
1151,2.7
1152,3.1
1153,3
1154,2.7
1155,2.2
1156,1.9
1157,1.8
1158,1.8
1159,1.6
1160,1.8
1161,2
1162,2.2
1163,2.1
1164,1.8
1165,1.8
1166,1.9
1167,2.1
1168,2.1
1169,1.9
1170,1.7
1171,2.3
1172,2.4
1173,2.2
1174,1.9
1175,1.9
1176,1.6
1177,2.3
1178,2.6
1179,2.2
1180,1.9
1181,1.5
1182,1.3
1183,1.8
1184,2.2
1185,2.1
1186,1.9
1187,1.9
1188,1.8
1189,1.6
1190,1.4
1191,1.3
1192,1.3
1193,1.2
1194,1.7
1195,1.7
1196,1.6
1197,1.7
1198,1.3
1199,1.3
1200,1.3
1201,0.8
1202,1
1203,1.1
1204,0.9
1205,0.7
1206,0.8
1207,0.7
1208,0.7
1209,0.8
1210,1
1211,1
1212,1
1213,0.9
1214,0.6
1215,0.2
1216,-0.1
1217,-0.6
1218,-0.8
1219,-0.7
1220,-0.5
1221,-0.1
1222,-0.1
1223,-0.2
1224,-0.3
1225,-0.1
1226,-0.5
1227,-1.1
1228,-1.3
1229,-1.3
1230,-1.1
1231,-1.2
1232,-1.1
1233,-1.1
1234,-1
1235,-1.3
1236,-2
1237,-2.5
1238,-2.4
1239,-2.4
1240,-2.1
1241,-2.3
1242,-2.6
1243,-2.9
1244,-3.1
1245,-2.7
1246,-2.3
1247,-2.1
1248,-2
1249,-2.1
1250,-2.1
1251,-2.3
1252,-2.5
1253,-2.8
1254,-2.7
1255,-2.4
1256,-2.6
1257,-2.2
1258,-1.7
1259,-1.8
1260,-2.2
1261,-2.3
1262,-1.8
1263,-1.9
1264,-2
1265,-1.7
1266,-1.6
1267,-1.5
1268,-1.8
1269,-1.6
1270,-0.9
1271,-0.6
1272,-0.5
1273,-0.6
1274,-0.9
1275,-0.8
1276,-0.1
1277,-0.1
1278,-0.1
1279,0
1280,-0.2
1281,0
1282,0.3
1283,0.3
1284,0.6
1285,0.7
1286,0.5
1287,0.5
1288,0.5
1289,0.8
1290,1
1291,0.9
1292,1.1
1293,1.5
1294,1
1295,0.6
1296,0.8
1297,0.7
1298,0.8
1299,1.2
1300,1.4
1301,1.6
1302,1.8
1303,1.6
1304,1.5
1305,1.6
1306,1.3
1307,1.2
1308,1.3
1309,1.1
1310,1.1
1311,1
1312,0.3
1313,0.9
1314,1.3
1315,1.2
1316,1.3
1317,1.9
1318,1.6
1319,1
1320,1
1321,1.5
1322,1.4
1323,1.7
1324,1.8
1325,1.8
1326,1.7
1327,1.4
1328,1.4
1329,1.7
1330,1.9
1331,1.8
1332,2
1333,1.5
1334,1.3
1335,1.2
1336,1.2
1337,1.3
1338,1.2
1339,1.4
1340,1.6
1341,1.4
1342,1.3
1343,1.2
1344,1.4
1345,1.3
1346,1.5
1347,1.5
1348,1.3
1349,1.1
1350,1.4
1351,1.5
1352,1.5
1353,2
1354,2
1355,1.8
1356,1.8
1357,1.4
1358,0.9
1359,0.9
1360,1.3
1361,1.5
1362,1.6
1363,1.7
1364,1.8
1365,1.5
1366,1.4
1367,1.4
1368,1.3
1369,1.2
1370,1.6
1371,1.5
1372,1.3
1373,0.8
1374,0.4
1375,0.9
1376,1.8
1377,1.9
1378,1.5
1379,1.5
1380,1
1381,0.7
1382,0.9
1383,1.4
1384,1.3
1385,1.4
1386,1.5
1387,1.6
1388,1.4
1389,1.6
1390,1.7
1391,1.6
1392,1.4
1393,1.2
1394,1.8
1395,1.4
1396,0.8
1397,1
1398,1.5
1399,1.9
1400,1.5
1401,1.3
1402,1.6
1403,2
1404,1.7
1405,1.5
1406,1.7
1407,1.6
1408,1.6
1409,1.8
1410,1.9
1411,2
1412,1.8
1413,1.7
1414,1.4
1415,1.4
1416,1.3
1417,1.5
1418,1.6
1419,1.8
1420,1.8
1421,1.8
1422,1.8
1423,1.6
1424,1.4
1425,1.3
1426,1.4
1427,1.1
1428,1.3
1429,1.7
1430,1.8
1431,1.8
1432,1.8
1433,1.9
1434,2.3
1435,2
1436,1.3
1437,1.2
1438,1.4
1439,1.8
1440,2.1
1441,2.1
1442,1.9
1443,1.9
1444,1.6
1445,1.7
1446,1.6
1447,2
1448,2.3
1449,2.3
1450,2.3
1451,2.2
1452,2.1
1453,2.3
1454,2.2
1455,1.8
1456,1.4
1457,1.1
1458,1.5
1459,1.8
1460,1.5
1461,1.6
1462,1.7
1463,1.5
1464,1.5
1465,1.7
1466,1.8
1467,2
1468,2.1
1469,2.1
1470,1.9
1471,2.3
1472,2.3
1473,2.1
1474,2.1
1475,1.9
1476,2.1
1477,1.8
1478,1.4
1479,1.5
1480,1.8
1481,1.9
1482,1.6
1483,1.5
1484,1.5
1485,1.5
1486,1.1
1487,1.2
1488,2
1489,2.1
1490,1.9
1491,1.9
1492,1.4
1493,0.9
1494,0.8
1495,1
1496,1.1
1497,1.3
1498,1.5
1499,2
1500,2.1
1501,1.8
1502,1.5
1503,1.3
1504,0.7
1505,0.5
1506,0.8
1507,0.8
1508,0.8
1509,0.8
1510,1
1511,0.6
1512,0.4
1513,0
1514,0
1515,0.1
1516,0.3
1517,0.1
1518,0.2
1519,0
1520,0.1
1521,0.9
1522,1.5
1523,1.3
1524,1.3
1525,1.4
1526,1.4
1527,0.8
1528,0.5
1529,0.8
1530,1.2
1531,1.2
1532,1.3
1533,1.5
1534,1.9
1535,1.7
1536,1.7
1537,1.8
1538,2.2
1539,2.5
1540,2.3
1541,2.2
1542,2.2
1543,2.3
1544,2.3
1545,2.1
1546,2.2
1547,2.5
1548,2.4
1549,2.8
1550,3.2
1551,2.8
1552,2.5
1553,2
1554,2.2
1555,2.2
1556,2.4
1557,2.5
1558,2.2
1559,2.1
1560,1.8
1561,1.9
1562,2.5
1563,2.5
1564,2.2
1565,2.3
1566,2.4
1567,2.5
1568,2.3
1569,1.6
1570,1
1571,0.5
1572,0
1573,-0.6
1574,-1.8
1575,-3.9
1576,-6.8
1577,-8.6
1578,-9.6
1579,-11.4
1580,-13.5
1581,-13.9
1582,-13.6
1583,-13.6
1584,-13.3
1585,-11.6
1586,-9.3
1587,-7.8
1588,-6.5
1589,-5.4
1590,-3.9
1591,-1.8
1592,-0.6
1593,-0.4
1594,-0.5
1595,-0.2
1596,0.2
1597,0.2
1598,0.4
1599,0.4
1600,0.6
1601,1
1602,1.4
1603,1.4
1604,1
1605,1
1606,1.2
1607,1.3
1608,1.7
1609,2.1
1610,2.2
1611,2.1
1612,1.9
1613,1.8
1614,1.8
1615,1.6
1616,1.4
1617,1.6
1618,1.8
1619,1.8
1620,1.8
1621,2.1
1622,2
1623,1.5
1624,1.8
1625,2
1626,1.6
1627,1.5
1628,1.5
1629,1.7
1630,2
1631,1.9
1632,1.9
1633,2.2
1634,1.9
1635,1.4
1636,1.2
1637,1.4
1638,1.9
1639,2.1
1640,1.9
1641,1.9
1642,1.7
1643,1.2
1644,1
1645,1.3
1646,1.4
1647,1.6
1648,1.8
1649,1.8
1650,1.5
1651,1.4
1652,1.3
1653,1.1
1654,1.4
1655,1.4
1656,1.3
1657,1.1
1658,1.4
1659,1.4
1660,0.9
1661,1
1662,1.5
1663,1.8
1664,1.5
1665,0.9
1666,0.7
1667,0.6
1668,0.3
1669,0
1670,0.5
1671,0.7
1672,0.9
1673,0.8
1674,0.7
1675,0.6
1676,0.6
1677,0.5
1678,0.5
1679,0.8
1680,0.4
1681,0.1
1682,0.3
1683,0
1684,-0.1
1685,-0.5
1686,-0.4
1687,0.2
1688,0.5
1689,0.3
1690,0.2
1691,0
1692,-0.3
1693,-0.5
1694,-0.7
1695,-0.8
1696,-0.9
1697,-0.8
1698,-0.9
1699,-1.2
1700,-1.4
1701,-1.4
1702,-1.6
1703,-1.8
1704,-1.8
1705,-1.7
1706,-2
1707,-2.2
1708,-2.1
1709,-2.2
1710,-2.2
1711,-2.4
1712,-2.7
1713,-2.8
1714,-2.6
1715,-2.3
1716,-2.5
1717,-2.6
1718,-2.4
1719,-2.7
1720,-3
1721,-2.8
1722,-2.8
1723,-2.6
1724,-2.4
1725,-2.6
1726,-2.8
1727,-3.1
1728,-3.4
1729,-3.3
1730,-2.8
1731,-2.3
1732,-2.4
1733,-2.5
1734,-2.2
1735,-2.1
1736,-2.1
1737,-1.8
1738,-1.4
1739,-1.1
1740,-1.1
1741,-0.7
1742,-0.4
1743,-0.1
1744,-0.3
1745,-0.3
1746,-0.3
1747,-0.6
1748,-1.1
1749,-1
1750,-0.7
1751,-0.5
1752,-0.6
1753,-0.4
1754,0
1755,0.1
1756,0.5
1757,0.8
1758,0.6
1759,0.2
1760,0.3
1761,0.2
1762,0.1
1763,0
1764,0.4
1765,0.4
1766,0.3
1767,0.4
1768,0.7
1769,0.7
1770,0.5
1771,0.9
1772,0.6
1773,0.6
1774,0.7
1775,0.9
1776,0.9
1777,0.6
1778,0.7
1779,0.5
1780,0.4
1781,0.5
1782,0.2
1783,0.2
1784,0.2
1785,0.6
1786,0.8
1787,0.9
1788,1
1789,0.6
1790,0.5
1791,0.7
1792,0.8
1793,0.8
1794,0.5
1795,1
1796,1.2
1797,0.9
1798,0.5
1799,0.3
1800,0.6
1801,0.9
1802,0.9
1803,0.6
1804,0.4
1805,0.7
1806,1.2
1807,1.1
1808,0.6
1809,0.3
1810,0.5
1811,0.8
1812,0.9
1813,1
1814,1.1
1815,1.2
1816,0.8
1817,0.5
1818,0.4
1819,0
1820,0.1
1821,0.5
1822,1
1823,0.9
1824,0.3
1825,0.3
1826,0.4
1827,0.5
1828,0.2
1829,0.3
1830,0.1
1831,0.1
1832,0.6
1833,0.7
1834,0.7
1835,0.5
1836,0.6
1837,0.5
1838,0.6
1839,0.7
1840,0.8
1841,0.8
1842,0.9
1843,1
1844,1.2
1845,1.2
1846,0.6
1847,0
1848,0.1
1849,0.2
1850,0.8
1851,0.9
1852,0.6
1853,0.5
1854,0.6
1855,0.7
1856,0.4
1857,0.5
1858,0.6
1859,0.2
1860,0
1861,0
1862,0
1863,0.1
1864,0.3
1865,0.5
1866,0.6
1867,0.7
1868,0.8
1869,0.8
1870,1.1
1871,1.3
1872,1
1873,0.2
1874,0.4
1875,0.6
1876,0.6
1877,0.8
1878,0.9
1879,0.9
1880,0.9
1881,0.9
1882,1.4
1883,1.5
1884,1.2
1885,0.9
1886,1.1
1887,1
1888,0.8
1889,1.1
1890,1.2
1891,1
1892,0.8
1893,1.2
1894,1.7
1895,1.3
1896,1.1
1897,1.3
1898,1.2
1899,1
1900,1.2
1901,1.1
1902,1.2
1903,1.5
1904,2.1
1905,2.2
1906,1.5
1907,0.9
1908,0.6
1909,0.7
1910,0.6
1911,0.7
1912,1.1
1913,1.4
1914,1.4
1915,1.2
1916,1
1917,1.1
1918,1.7
1919,1.6
1920,1.2
1921,0.9
1922,0.6
1923,0.9
1924,1.1
1925,1.3
1926,1.3
1927,1.2
1928,1.1
1929,1.4
1930,1.6
1931,1.7
1932,1.7
1933,1.7
1934,1.8
1935,2
1936,1.7
1937,1.5
1938,1.3
1939,1.7
1940,1.7
1941,1.1
1942,1.1
1943,1.1
1944,1.3
1945,1.6
1946,2
1947,1.9
1948,1.1
1949,0.7
1950,0.9
1951,1.3
1952,1.7
1953,1.6
1954,1.6
1955,1.6
1956,1.5
1957,1.5
1958,1.5
1959,0.8
1960,0.5
1961,1.3
1962,1.5
1963,1.6
1964,1.1
1965,0.3
1966,0.2
1967,0.6
1968,0.8
1969,0.8
1970,0.7
1971,0.7
1972,0.8
1973,0.2
1974,-0.4
1975,0
1976,0.2
1977,0
1978,0
1979,0.1
1980,0
1981,0.3
1982,0.7
1983,0.8
1984,0.5
1985,0.1
1986,0
1987,0
1988,0
1989,0.1
1990,0.2
1991,0.2
1992,0.3
1993,0.8
1994,1.2
1995,1.2
1996,0.9
1997,0.7
1998,0.9
1999,1.1
2000,1.5
2001,1.8
2002,2
2003,2.2
2004,2.5
2005,2.9
2006,2.5
2007,2.4
2008,1.9
2009,1.7
2010,1.6
2011,1.6
2012,1.4
2013,1.5
2014,1.7
2015,1.6
2016,1.5
2017,1.7
2018,1.7
2019,1.5
2020,1.4
2021,1.5
2022,1.6
2023,1.9
2024,2.3
2025,2.5
2026,2.5
2027,2.1
2028,2.2
2029,2.2
2030,2.1
2031,2.2
2032,2.4
2033,2.3
2034,2.4
2035,2
2036,1.6
2037,0.7
2038,-0.1
2039,-0.6
2040,-1.4
2041,-2.6
2042,-4.4
2043,-6.5
2044,-8.4
2045,-10
2046,-11.8
2047,-13.2
2048,-13.6
2049,-14.2
2050,-14.6
2051,-14.2
2052,-12.4
2053,-9.9
2054,-8.3
2055,-7.3
2056,-6.1
2057,-4.6
2058,-2.6
2059,-1.4
2060,-1
2061,-0.8
2062,-0.5
2063,-0.3
2064,-0.2
2065,0.2
2066,0.2
2067,0.4
2068,0.7
2069,1.3
2070,1.2
2071,1
2072,1.3
2073,1.8
2074,1.5
2075,1
2076,0.8
2077,1
2078,1.5
2079,2.1
2080,2.1
2081,1.9
2082,1.9
2083,2.2
2084,2.5
2085,2.3
2086,1.8
2087,2.1
2088,2.3
2089,2.6
2090,2.7
2091,2.6
2092,2.7
2093,2.7
2094,2.3
2095,2
2096,1.9
2097,2.1
2098,2.3
2099,2.3
2100,2.3
2101,2.5
2102,2.5
2103,1.9
2104,1.4
2105,1.3
2106,1.4
2107,1.3
2108,1.6
2109,1.9
2110,2.1
2111,2.3
2112,2.4
2113,2.3
2114,2.4
2115,2.5
2116,2.2
2117,2.1
2118,1.9
2119,1.9
2120,1.9
2121,1.9
2122,1.8
2123,1.6
2124,1.5
2125,1.8
2126,1.8
2127,1.7
2128,1.7
2129,1.5
2130,1.6
2131,1.5
2132,1.3
2133,1.2
2134,1.1
2135,1.1
2136,1.4
2137,1.8
2138,1.3
2139,1.2
2140,1.3
2141,1.4
2142,1.5
2143,1.5
2144,1.5
2145,1
2146,1
2147,1.2
2148,1.5
2149,1.3
2150,1.2
2151,1.3
2152,1
2153,0.9
2154,0.6
2155,0.2
2156,0
2157,-0.3
2158,-0.5
2159,-0.6
2160,-0.6
2161,-0.1
2162,0.3
2163,0.2
2164,0.1
2165,-0.1
2166,-0.3
2167,-0.6
2168,-0.8
2169,-1.1
2170,-1.2
2171,-1.2
2172,-1.3
2173,-1.5
2174,-1.5
2175,-1.7
2176,-1.8
2177,-1.7
2178,-1.7
2179,-1.5
2180,-1.6
2181,-1.5
2182,-1.6
2183,-1.7
2184,-1.7
2185,-1.9
2186,-1.8
2187,-1.8
2188,-2.1
2189,-1.9
2190,-1.5
2191,-1.8
2192,-1.6
2193,-1.6
2194,-1.9
2195,-1.8
2196,-1.7
2197,-1.5
2198,-1.3
2199,-1.5
2200,-1.7
2201,-1.8
2202,-1.7
2203,-1.3
2204,-1.2
2205,-1.5
2206,-1.4
2207,-1.1
2208,-0.9
2209,-0.5
2210,-0.1
2211,0.1
2212,0
2213,0
2214,0.3
2215,0.5
2216,0.3
2217,0.2
2218,0.6
2219,0.6
2220,0.8
2221,0.9
2222,1
2223,1.1
2224,1.4
2225,1.5
2226,1.1
2227,0.8
2228,1
2229,1.2
2230,1.4
2231,1.4
2232,1.2
2233,1.1
2234,1
2235,0.9
2236,1.3
2237,1.8
2238,1.9
2239,2.2
2240,2.2
2241,1.9
2242,1.7
2243,1.3
2244,1.1
2245,1.3
2246,1.5
2247,1.4
2248,1.3
2249,1.3
2250,1.1
2251,1.1
2252,1.4
2253,1.6
2254,1.5
2255,1.2
2256,1.3
2257,1.3
2258,1.4
2259,1.5
2260,1.4
2261,1.7
2262,1.9
2263,2
2264,1.5
2265,1.6
2266,1.8
2267,1.6
2268,1.4
2269,1
2270,0.9
2271,1.2
2272,1.7
2273,1.6
2274,1.5
2275,1.4
2276,1.4
2277,1.6
2278,1.8
2279,2
2280,1.8
2281,1.4
2282,1.5
2283,1.8
2284,1.8
2285,1.4
2286,1.1
2287,1.1
2288,0.9
2289,0.9
2290,1.2
2291,1.6
2292,1.6
2293,1.4
2294,1.3
2295,1.7
2296,2
2297,1.4
2298,0.7
2299,0.7
2300,1.1
2301,1.3
2302,1.8
2303,1.7
2304,1.3
2305,0.8
2306,0.6
2307,0.7
2308,1
2309,1.3
2310,1.5
2311,1.6
2312,1.4
2313,1.3
2314,1
2315,1.3
2316,1.4
2317,1.4
2318,1.1
2319,1.2
2320,1.5
2321,1.5
2322,1.3
2323,1.3
2324,1.7
2325,1.8
2326,1.2
2327,1.2
2328,1.3
2329,1.1
2330,1.3
2331,1.7
2332,1.9
2333,2
2334,1.8
2335,1.2
2336,1.2
2337,1.4
2338,1.5
2339,1.6
2340,2
2341,2.1
2342,1.3
2343,0.8
2344,1.1
2345,1.1
2346,1.2
2347,1.6
2348,1.4
2349,1.3
2350,1.4
2351,1.5
2352,1.7
2353,1.7
2354,1.7
2355,1.6
2356,1.8
2357,1.7
2358,1.9
2359,1.5
2360,1.3
2361,1.5
2362,1.7
2363,1.7
2364,1.6
2365,1.5
2366,1.7
2367,1.9
2368,2.1
2369,2
2370,1.7
2371,2.5
2372,2.7
2373,2.6
2374,2.6
2375,2.4
2376,1.8
2377,1.4
2378,1.5
2379,1.7
2380,1.7
2381,1.7
2382,1.9
2383,1.9
2384,1.8
2385,1.5
2386,1.2
2387,1.4
2388,2.1
2389,2.5
2390,2.7
2391,2.8
2392,2.6
2393,2.3
2394,2.1
2395,1.8
2396,1.3
2397,1.1
2398,1.2
2399,1.4
2400,1.6
2401,1.9
2402,1.7
2403,1.6
2404,1.8
2405,2
2406,2.1
2407,1.7
2408,1.9
2409,2
2410,2.1
2411,2.3
2412,2.2
2413,1.7
2414,1.7
2415,1.8
2416,1.6
2417,1.1
2418,1.5
2419,1.9
2420,2.1
2421,2.3
2422,2.1
2423,2.2
2424,2
2425,2.2
2426,2.4
2427,2.6
2428,2.2
2429,2
2430,1.9
2431,1.8
2432,2
2433,2
2434,1.7
2435,1.4
2436,1.4
2437,1.8
2438,1.8
2439,1.5
2440,1.4
2441,1.6
2442,1.8
2443,1.9
2444,2
2445,1.8
2446,1.3
2447,0.6
2448,0.6
2449,1.1
2450,1.2
2451,1.1
2452,0.7
2453,0.9
2454,1.1
2455,1.2
2456,1.3
2457,1
2458,0.4
2459,0.3
2460,0.4
2461,0.3
2462,0.4
2463,0.6
2464,0.5
2465,0.2
2466,0.3
2467,0.2
2468,0.3
2469,0.5
2470,0.7
2471,0.9
2472,0.5
2473,0.6
2474,0.9
2475,0.7
2476,0.5
2477,0.3
2478,0.3
2479,0.7
2480,1.1
2481,1.4
2482,1.6
2483,1.6
2484,1.7
2485,2
2486,2.2
2487,1.7
2488,1.5
2489,1.8
2490,1.9
2491,2.1
2492,1.8
2493,1.6
2494,2
2495,2.2
2496,1.7
2497,1.7
2498,2
2499,1.9
2500,1.8
2501,1.8
2502,1.9
2503,1.9
2504,1.7
2505,1.8
2506,2.2
2507,2.6
2508,2.4
2509,2.2
2510,2.1
2511,2.1
2512,2.1
2513,2.5
2514,2.3
2515,1.8
2516,1.8
2517,1.8
2518,2.1
2519,2.1
2520,1.6
2521,1.2
2522,0.2
2523,-0.5
2524,-1.3
2525,-3.2
2526,-5.1
2527,-6.8
2528,-8.5
2529,-10.3
2530,-12
2531,-13.4
2532,-14.1
2533,-14.4
2534,-14.7
2535,-14.5
2536,-12.9
2537,-9.9
2538,-7.4
2539,-6.4
2540,-5.4
2541,-4.6
2542,-3.4
2543,-2.6
2544,-2.6
2545,-2.7
2546,-2.5
2547,-2.1
2548,-1
2549,-0.3
2550,0
2551,0.3
2552,0.2
2553,0.2
2554,0.6
2555,1.1
2556,1.6
2557,2.1
2558,1.8
2559,1.3
2560,1.1
2561,1.1
2562,1.2
2563,1.7
2564,1.9
2565,2.1
2566,2.2
2567,2.2
2568,2.1
2569,2
2570,2
2571,2.1
2572,2.1
2573,1.9
2574,1.6
2575,1.7
2576,2.1
2577,2
2578,1.8
2579,2
2580,1.9
2581,2
2582,2
2583,2.2
2584,2
2585,1.9
2586,2.1
2587,2.2
2588,2.3
2589,2.6
2590,2.3
2591,1.8
2592,1.9
2593,1.4
2594,1.3
2595,1.1
2596,1.2
2597,1.8
2598,2
2599,2
2600,2
2601,1.9
2602,1.7
2603,1.4
2604,1.5
2605,1.3
2606,0.9
2607,0.9
2608,1
2609,1.4
2610,1.5
2611,1.5
2612,2
2613,2.1
2614,1.9
2615,1.1
2616,0.4
2617,0.3
2618,0.8
2619,0.9
2620,1
2621,0.7
2622,0.4
2623,0.4
2624,0.6
2625,0.6
2626,1.1
2627,1
2628,0.6
2629,0.4
2630,0.3
2631,0.5
2632,0.7
2633,0.6
2634,0.5
2635,0.4
2636,0.4
2637,0
2638,-0.1
2639,0
2640,-0.1
2641,0.1
2642,0
2643,0
2644,-0.3
2645,-0.7
2646,-0.9
2647,-1.3
2648,-1.5
2649,-1.3
2650,-1.3
2651,-1.7
2652,-1.8
2653,-1.3
2654,-1.2
2655,-1.4
2656,-1.6
2657,-1.5
2658,-1.8
2659,-1.9
2660,-2
2661,-2.4
2662,-2.5
2663,-2.8
2664,-2.7
2665,-2.7
2666,-2.3
2667,-1.9
2668,-2
2669,-2.1
2670,-2.3
2671,-2.7
2672,-3.1
2673,-3.3
2674,-3.1
2675,-2.9
2676,-2.7
2677,-2.6
2678,-2.7
2679,-2.9
2680,-2.9
2681,-2.7
2682,-2.6
2683,-2.7
2684,-2.5
2685,-2
2686,-1.7
2687,-1.8
2688,-1.5
2689,-1.4
2690,-1.1
2691,-1
2692,-1.2
2693,-1.4
2694,-1.6
2695,-0.9
2696,-0.6
2697,-0.7
2698,-0.7
2699,-0.3
2700,0
2701,0.2
2702,0.2
2703,0.1
2704,0.4
2705,0.5
2706,0
2707,0
2708,0.4
2709,0.6
2710,0.5
2711,0.9
2712,1
2713,0.9
2714,0.9
2715,0.6
2716,0.3
2717,0.3
2718,1
2719,1.3
2720,1.2
2721,1.4
2722,1.5
2723,1.7
2724,1.7
2725,1.5
2726,1.2
2727,1.1
2728,1
2729,1
2730,1.1
2731,1.1
2732,1
2733,0.8
2734,0.8
2735,0.9
2736,1
2737,1
2738,0.9
2739,1.1
2740,1.1
2741,1.3
2742,1.4
2743,1.6
2744,1.5
2745,1.6
2746,1.6
2747,1.4
2748,1.4
2749,1.5
2750,1.2
2751,1
2752,1.1
2753,1
2754,1.3
2755,1.4
2756,1.3
2757,1.5
2758,1.6
2759,1.4
2760,1
2761,0.9
2762,1.2
2763,1.7
2764,1.8
2765,1.6
2766,1.3
2767,1.4
2768,1.8
2769,1.9
2770,1.9
2771,1.5
2772,1.3
2773,1.2
2774,0.5
2775,0.6
2776,1.1
2777,1.1
2778,0.9
2779,0.9
2780,1.4
2781,1.6
2782,1.6
2783,1.6
2784,1.5
2785,1.3
2786,1.5
2787,1.9
2788,2
2789,1.9
2790,1.5
2791,1.2
2792,1
2793,0.8
2794,0.9
2795,0.9
2796,1.3
2797,1.4
2798,1.3
2799,1.4
2800,0.9
2801,1.2
2802,1.6
2803,1.7
2804,1.6
2805,1.7
2806,1.7
2807,1.1
2808,1
2809,1
2810,1
2811,1.3
2812,1.6
2813,1.7
2814,1.9
2815,1.8
2816,1.6
2817,1.6
2818,1.8
2819,1.8
2820,1.4
2821,0.8
2822,0.8
2823,1
2824,1.3
2825,1.3
2826,1.5
2827,1.5
2828,1.1
2829,1
2830,1.5
2831,1.7
2832,1.5
2833,1.3
2834,1.2
2835,1.4
2836,1.8
2837,1.6
2838,1.7
2839,1.7
2840,1.9
2841,2
2842,1.5
2843,1.4
2844,1.7
2845,1.6
2846,1.3
2847,1.2
2848,0.9
2849,1
2850,1.3
2851,1.6
2852,1.5
2853,1.3
2854,1.4
2855,1.8
2856,2.1
2857,2.2
2858,1.9
2859,1.7
2860,1.8
2861,1.6
2862,1.5
2863,1.4
2864,0.7
2865,0.4
2866,0.7
2867,1.3
2868,1.7
2869,1.9
2870,2
2871,1.9
2872,1.8
2873,1.8
2874,2
2875,2
2876,1.8
2877,1.4
2878,1.3
2879,1.3
2880,1.4
2881,1.4
2882,1.1
2883,1.3
2884,1.8
2885,1.7
2886,1.6
2887,1.4
2888,1.2
2889,1.4
2890,1.8
2891,1.6
2892,1.3
2893,1.5
2894,1.4
2895,1.2
2896,1.1
2897,1.2
2898,1.1
2899,1
2900,1.4
2901,1.6
2902,1.8
2903,1.7
2904,1.8
2905,1.8
2906,1.9
2907,2.2
2908,2.2
2909,1.8
2910,1.7
2911,1.3
2912,1
2913,1.1
2914,1.4
2915,1.2
2916,1.2
2917,1.7
2918,2.2
2919,2.6
2920,2.4
2921,1.7
2922,0.8
2923,0.7
2924,1.1
2925,1.2
2926,1.5
2927,1.3
2928,1.1
2929,1.1
2930,0.9
2931,0.8
2932,1
2933,1.3
2934,1.5
2935,1.3
2936,1.1
2937,0.9
2938,0.6
2939,0.5
2940,0.5
2941,0.6
2942,1.1
2943,1
2944,1.1
2945,1.2
2946,1
2947,1
2948,1.2
2949,0.7
2950,0.3
2951,0.4
2952,0.3
2953,-0.1
2954,0.2
2955,0.4
2956,0.3
2957,0.5
2958,1.1
2959,1.3
2960,1.5
2961,1.4
2962,0.8
2963,0.1
2964,0.3
2965,1.4
2966,1.6
2967,1.7
2968,1.8
2969,1.8
2970,1.5
2971,1.6
2972,1.8
2973,2.2
2974,2.6
2975,2.3
2976,1.9
2977,2.1
2978,2.2
2979,2
2980,2.4
2981,2.6
2982,2.6
2983,2.6
2984,2.3
2985,2.3
2986,2.6
2987,2.7
2988,2.3
2989,2.4
2990,2.1
2991,2
2992,2.2
2993,2.6
2994,2.7
2995,2.6
2996,2.4
2997,2.5
2998,2.7
2999,2.3
3000,2.6
3001,2.8
3002,2.5
3003,2.5
3004,2.6
3005,2.4
3006,2
3007,1.8
3008,1.3
3009,0.5
3010,0
3011,-1.1
3012,-2.9
3013,-5.4
3014,-7.8
3015,-9.7
3016,-11.5
3017,-13.4
3018,-14.2
3019,-13.8
3020,-14.1
3021,-14
3022,-12.8
3023,-10.5
3024,-8.9
3025,-7.8
3026,-7.1
3027,-5.9
3028,-4.1
3029,-3.2
3030,-2.6
3031,-2.1
3032,-1.4
3033,-0.9
3034,-0.5
3035,0.3
3036,0.9
3037,0.6
3038,0.5
3039,1.1
3040,1.3
3041,1.4
3042,1.7
3043,1.8
3044,1.8
3045,1.9
3046,2.2
3047,1.8
3048,1.9
3049,1.8
3050,1.8
3051,1.6
3052,1.9
3053,2.1
3054,2.4
3055,2.8
3056,3
3057,2.5
3058,2
3059,1.8
3060,2.1
3061,2
3062,2
3063,1.9
3064,1.9
3065,2.1
3066,2.1
3067,1.9
3068,2.2
3069,2.3
3070,2.3
3071,2.4
3072,2.7
3073,2.4
3074,1.9
3075,2
3076,1.7
3077,1.9
3078,2
3079,2
3080,1.7
3081,1.6
3082,1.6
3083,1.5
3084,1.3
3085,1.3
3086,1.5
3087,1.5
3088,1.4
3089,1.8
3090,1.7
3091,1.3
3092,1.2
3093,1.2
3094,1.2
3095,1.3
3096,1.4
3097,1.6
3098,1.9
3099,2.2
3100,2
3101,1.6
3102,1.7
3103,1.8
3104,1.3
3105,1.1
3106,1.2
3107,1.5
3108,1.4
3109,1.4
3110,1.2
3111,0.9
3112,0.8
3113,0.8
3114,1
3115,1
3116,1
3117,1
3118,1
3119,1.2
3120,1.4
3121,1.2
3122,0.5
3123,-0.1
3124,-0.3
3125,-0.2
3126,0
3127,0.3
3128,-0.3
3129,-0.3
3130,-0.5
3131,-0.8
3132,-0.6
3133,-0.4
3134,-0.5
3135,-0.9
3136,-1
3137,-0.6
3138,-1.3
3139,-1.6
3140,-1.7
3141,-1.5
3142,-1.5
3143,-1.7
3144,-2.2
3145,-2.6
3146,-2.5
3147,-2.1
3148,-1.9
3149,-2.1
3150,-2.5
3151,-2.7
3152,-2.7
3153,-2.5
3154,-2.5
3155,-2.3
3156,-2.5
3157,-2.5
3158,-2.4
3159,-2.6
3160,-2.9
3161,-3.1
3162,-3.4
3163,-3.2
3164,-2.7
3165,-2.3
3166,-2.6
3167,-3.2
3168,-2.6
3169,-2
3170,-1.9
3171,-1.8
3172,-1.6
3173,-1.4
3174,-2
3175,-2.1
3176,-2.1
3177,-2
3178,-1.5
3179,-1.1
3180,-0.8
3181,-0.6
3182,-0.4
3183,-0.3
3184,-0.3
3185,-0.5
3186,-1
3187,-0.9
3188,-0.8
3189,-0.4
3190,-0.2
3191,0
3192,0.3
3193,0.2
3194,0.1
3195,0
3196,0.2
3197,0.5
3198,0.5
3199,0.4
3200,0.4
3201,0.5
3202,0.6
3203,0.4
3204,0
3205,0.4
3206,0.9
3207,1
3208,1.2
3209,1.2
3210,0.9
3211,1.1
3212,1.3
3213,1.2
3214,1.1
3215,0.8
3216,0.5
3217,0.5
3218,0.5
3219,0.4
3220,0.2
3221,0.3
3222,0.6
3223,0.6
3224,0.8
3225,1.1
3226,1.1
3227,1
3228,0.7
3229,0.6
3230,1.5
3231,1.6
3232,1.5
3233,1.1
3234,1.1
3235,0.8
3236,0.7
3237,0.6
3238,0.7
3239,0.7
3240,0.8
3241,0.2
3242,0
3243,0.2
3244,0.3
3245,0.6
3246,0.8
3247,0.4
3248,0.4
3249,0.8
3250,1.3
3251,1.3
3252,1.1
3253,0.9
3254,0.9
3255,0.9
3256,1
3257,0.9
3258,1
3259,1.4
3260,1.3
3261,1.3
3262,1.4
3263,1.4
3264,1
3265,0.7
3266,0.6
3267,0.9
3268,0.6
3269,0.4
3270,0.7
3271,0.7
3272,0.5
3273,0.4
3274,0.4
3275,0.3
3276,0.3
3277,0.3
3278,0.5
3279,0.6
3280,0.8
3281,0.8
3282,0.9
3283,1.1
3284,1.3
3285,0.5
3286,0
3287,-0.1
3288,-0.2
3289,0
3290,0.8
3291,0.9
3292,0.7
3293,0.8
3294,1
3295,0.8
3296,0.9
3297,0.7
3298,0.8
3299,0.8
3300,0.8
3301,0.8
3302,0.7
3303,0.4
3304,0.6
3305,0.7
3306,0.6
3307,1
3308,1.3
3309,1.2
3310,1.1
3311,1.2
3312,0.8
3313,0.4
3314,0.7
3315,1
3316,0.9
3317,0.6
3318,0.5
3319,0.3
3320,0.6
3321,0.7
3322,0.5
3323,0.3
3324,1
3325,1.3
3326,1.4
3327,1.6
3328,1.5
3329,1.3
3330,1.1
3331,1.1
3332,1
3333,0.9
3334,0.4
3335,0.2
3336,0.6
3337,0.6
3338,0.4
3339,0.5
3340,0.4
3341,0
3342,0.3
3343,1
3344,1
3345,1
3346,0.8
3347,1
3348,0.7
3349,0.5
3350,0.5
3351,0.1
3352,0
3353,0.5
3354,1
3355,0.9
3356,1
3357,1.1
3358,1.2
3359,1.3
3360,1.1
3361,0.9
3362,1.1
3363,1.3
3364,1.1
3365,0.9
3366,0.8
3367,1
3368,1
3369,0.7
3370,0.8
3371,1.1
3372,1.3
3373,1.1
3374,1
3375,0.9
3376,0.5
3377,0.7
3378,1
3379,0.9
3380,0.7
3381,0.6
3382,1
3383,1.6
3384,1.3
3385,0.9
3386,1
3387,0.7
3388,0.6
3389,0.7
3390,0.3
3391,0.6
3392,1.1
3393,1.5
3394,1.6
3395,1
3396,0.5
3397,0.4
3398,0.6
3399,0.3
3400,0.2
3401,0.5
3402,1.1
3403,0.9
3404,0.6
3405,0.5
3406,0.5
3407,0.1
3408,0
3409,0.1
3410,-0.3
3411,-0.1
3412,-0.1
3413,-0.4
3414,-0.7
3415,-0.8
3416,-0.5
3417,-0.2
3418,-0.6
3419,-0.9
3420,-0.3
3421,0.1
3422,0
3423,-0.2
3424,-0.1
3425,0
3426,0.1
3427,0.2
3428,0.5
3429,0.6
3430,0.2
3431,0.2
3432,0.2
3433,0.8
3434,1
3435,0.6
3436,1
3437,1.6
3438,1.6
3439,1.5
3440,1.7
3441,1.8
3442,1.4
3443,1.2
3444,1
3445,1.2
3446,1.6
3447,1.7
3448,1.4
3449,0.9
3450,1.4
3451,1.6
3452,1.6
3453,1.8
3454,2.1
3455,2
3456,1.4
3457,1.4
3458,1.8
3459,1.6
3460,1.6
3461,1.9
3462,1.9
3463,2
3464,1.7
3465,1.2
3466,1.1
3467,1.3
3468,1.2
3469,1.4
3470,1.8
3471,2.3
3472,2
3473,1.4
3474,0.9
3475,0.2
3476,-0.6
3477,-2
3478,-4.3
3479,-6.6
3480,-8.6
3481,-10.1
3482,-11.3
3483,-12.4
3484,-13.3
3485,-13.7
3486,-14.3
3487,-13.9
3488,-12.3
3489,-9.8
3490,-8.2
3491,-7.2
3492,-6.1
3493,-5.1
3494,-3.8
3495,-2.5
3496,-1.6
3497,-1
3498,-0.7
3499,0
3500,0.1
3501,0.3
3502,0.2
3503,0.5
3504,1.1
3505,1.5
3506,1.4
3507,1.1
3508,1.5
3509,1.8
3510,2
3511,1.4
3512,0.9
3513,1.2
3514,1.4
3515,1.4
3516,1.6
3517,1.7
3518,1.8
3519,1.9
3520,1.7
3521,1.9
3522,1.8
3523,1.8
3524,2.2
3525,2.4
3526,2.1
3527,1.4
3528,1.6
3529,2.1
3530,1.7
3531,1.3
3532,1.8
3533,2.5
3534,2.9
3535,2.7
3536,2.3
3537,2
3538,1.8
3539,2.1
3540,2.1
3541,1.7
3542,1.7
3543,1.8
3544,1.6
3545,1.8
3546,1.9
3547,1.3
3548,1.7
3549,1.4
3550,1.2
3551,1.4
3552,1.8
3553,1.8
3554,1.4
3555,1.6
3556,1.8
3557,1.9
3558,1.8
3559,1.7
3560,1.7
3561,1.8
3562,1.8
3563,1.7
3564,1.6
3565,1.3
3566,1.4
3567,1.6
3568,1.9
3569,1.5
3570,1.1
3571,1.1
3572,1
3573,0.9
3574,0.9
3575,1.3
3576,1.1
3577,0.5
3578,0.6
3579,0.6
3580,1
3581,0.8
3582,0.7
3583,0.8
3584,0.6
3585,0.6
3586,0.7
3587,0.4
3588,0.3
3589,0.3
3590,0.2
3591,-0.2
3592,-0.2
3593,0.4
3594,0.3
3595,0
3596,-0.1
3597,-0.5
3598,-0.9
3599,-1.1
3600,-1.1
3601,-1.5
3602,-1.4
3603,-1.2
3604,-1
3605,-1.3
3606,-1.1
3607,-1.2
3608,-1.5
3609,-1.5
3610,-1.7
3611,-1.8
3612,-1.7
3613,-1.6
3614,-1.2
3615,-1.1
3616,-1.4
3617,-2
3618,-2.4
3619,-2.4
3620,-2.9
3621,-2.9
3622,-2.3
3623,-2.1
3624,-1.9
3625,-1.8
3626,-2.1
3627,-2.2
3628,-2.2
3629,-2
3630,-1.9
3631,-1.8
3632,-1.5
3633,-1.4
3634,-1.6
3635,-1.8
3636,-1.7
3637,-1.7
3638,-1.7
3639,-1.6
3640,-1.7
3641,-1.6
3642,-1.1
3643,-0.6
3644,-0.8
3645,-0.9
3646,-0.8
3647,-0.8
3648,-1
3649,-1.5
3650,-1.5
3651,-0.6
3652,-0.1
3653,-0.3
3654,-0.7
3655,-0.2
3656,0
3657,0.1
3658,0.4
3659,0.8
3660,0.8
3661,0.7
3662,1
3663,1.2
3664,1.1
3665,1
3666,1.1
3667,0.6
3668,0.3
3669,0.2
3670,0.3
3671,0.7
3672,1
3673,1.2
3674,1.2
3675,1.4
3676,1.8
3677,1.6
3678,1.2
3679,0.8
3680,0.6
3681,0.3
3682,0.6
3683,0.7
3684,0.7
3685,0.8
3686,0.6
3687,0.5
3688,0.8
3689,0.8
3690,0.9
3691,1.1
3692,1.1
3693,1.3
3694,1.1
3695,0.9
3696,0.7
3697,0.4
3698,0.5
3699,0.8
3700,1
3701,1.2
3702,1.5
3703,0.9
3704,0.8
3705,0.9
3706,0.5
3707,0.3
3708,0.6
3709,1
3710,0.9
3711,1.1
3712,1.3
3713,1.4
3714,1.1
3715,1.1
3716,1.2
3717,0.9
3718,1.1
3719,1.3
3720,1.2
3721,0.9
3722,0.7
3723,0.4
3724,0.5
3725,0.8
3726,1
3727,0.8
3728,0.6
3729,0.5
3730,0.5
3731,0.6
3732,0.7
3733,1.1
3734,1
3735,0.9
3736,1.2
3737,0.9
3738,0.6
3739,0.5
3740,0.5
3741,1
3742,1.4
3743,1.1
3744,1
3745,0.9
3746,0.9
3747,0.8
3748,1
3749,0.7
3750,0.2
3751,0.3
3752,0.7
3753,0.7
3754,0.6
3755,0.8
3756,0.8
3757,0.8
3758,0.9
3759,0.9
3760,1
3761,1.2
3762,1.2
3763,0.9
3764,0.9
3765,1.3
3766,1.2
3767,1.1
3768,1.1
3769,0.9
3770,0.9
3771,1.1
3772,1
3773,0.9
3774,1
3775,1
3776,0.9
3777,0.9
3778,0.8
3779,0.9
3780,1.3
3781,1.4
3782,1.4
3783,1.6
3784,1.8
3785,1.7
3786,0.8
3787,0.5
3788,0.5
3789,0.8
3790,1
3791,1.1
3792,1.6
3793,1.6
3794,1.5
3795,1.5
3796,1.4
3797,1.3
3798,1.3
3799,0.9
3800,0.9
3801,1
3802,0.7
3803,1.3
3804,1.7
3805,2
3806,2.1
3807,1.9
3808,1.6
3809,1.5
3810,1.5
3811,1.9
3812,1.8
3813,1.7
3814,1.6
3815,1.5
3816,1.2
3817,1
3818,1.5
3819,1.6
3820,1.6
3821,1.4
3822,1.4
3823,1.5
3824,1.6
3825,1.6
3826,1.4
3827,1.3
3828,1.2
3829,1.4
3830,1.6
3831,1.4
3832,1.3
3833,1.3
3834,2
3835,1.9
3836,1.5
3837,1.4
3838,1.3
3839,1.6
3840,1.6
3841,1.8
3842,2.1
3843,2
3844,2.1
3845,1.8
3846,1.4
3847,0.9
3848,0.9
3849,1.3
3850,1.7
3851,1.7
3852,1.9
3853,1.5
3854,1.7
3855,1.7
3856,1.2
3857,0.8
3858,0.7
3859,0.7
3860,0.8
3861,0.7
3862,0.9
3863,1.1
3864,1.1
3865,1
3866,1.2
3867,1.6
3868,1.7
3869,1.4
3870,1.1
3871,1.2
3872,1.2
3873,1
3874,0.6
3875,0.3
3876,0.2
3877,0.3
3878,0.3
3879,0.2
3880,0.1
3881,0.2
3882,0.1
3883,0.1
3884,0
3885,0.2
3886,0.1
3887,0.4
3888,0.6
3889,0.5
3890,0.5
3891,0.6
3892,0.8
3893,0.7
3894,0.4
3895,0.3
3896,0.6
3897,0.9
3898,1.2
3899,1.3
3900,1.4
3901,1.8
3902,2.5
3903,2.5
3904,1.8
3905,1.6
3906,1.9
3907,2
3908,2
3909,1.9
3910,1.9
3911,1.9
3912,2.2
3913,2.5
3914,2.5
3915,2.3
3916,2.4
3917,2.2
3918,2
3919,1.8
3920,1.9
3921,1.9
3922,2.1
3923,2.1
3924,2
3925,1.8
3926,1.6
3927,1.9
3928,2
3929,2.1
3930,2
3931,2.3
3932,2.2
3933,2.3
3934,2.2
3935,1.6
3936,1.1
3937,0.5
3938,0
3939,-0.9
3940,-2.5
3941,-5
3942,-7.5
3943,-9.2
3944,-10.6
3945,-11.8
3946,-13.3
3947,-14.3
3948,-14.8
3949,-15.2
3950,-14.8
3951,-12.6
3952,-10.2
3953,-8.5
3954,-7.2
3955,-6.4
3956,-5.2
3957,-3.7
3958,-2.6
3959,-2.5
3960,-2.7
3961,-2.4
3962,-1.4
3963,-0.1
3964,0.5
3965,0.3
3966,0.2
3967,0.3
3968,0.8
3969,1.2
3970,1.5
3971,1.4
3972,1.5
3973,1.7
3974,1.6
3975,1.8
3976,1.9
3977,1.9
3978,2.1
3979,2.1
3980,2
3981,1.8
3982,2.1
3983,2.2
3984,1.9
3985,2
3986,2.1
3987,1.7
3988,1.4
3989,1.3
3990,1.5
3991,2.1
3992,1.9
3993,1.9
3994,2.1
3995,2.1
3996,1.8
3997,1.7
3998,1.6
3999,1.4
4000,1.3
4001,1.4
4002,1.6
4003,1.9
4004,1.9
4005,1.6
4006,1.8
4007,2
4008,1.7
4009,1.3
4010,1.1
4011,1.6
4012,1.6
4013,1.6
4014,1.7
4015,2
4016,1.7
4017,1.5
4018,1.5
4019,1.5
4020,1.8
4021,1.7
4022,1.5
4023,1.5
4024,1.1
4025,0.9
4026,0.6
4027,0.6
4028,1.5
4029,1.5
4030,1.3
4031,1.6
4032,1.4
4033,1
4034,1.6
4035,2.1
4036,2
4037,1.4
4038,0.9
4039,0.7
4040,0.8
4041,1
4042,0.7
4043,0.5
4044,0.5
4045,0.5
4046,0.7
4047,0.9
4048,0.5
4049,0
4050,-0.1
4051,0.1
4052,0.3
4053,-0.1
4054,-0.4
4055,-0.4
4056,-0.4
4057,0
4058,0
4059,-0.4
4060,-0.2
4061,-0.2
4062,-0.3
4063,-0.1
4064,-0.3
4065,-0.8
4066,-0.9
4067,-1.2
4068,-1.5
4069,-1.1
4070,-1
4071,-1.2
4072,-1
4073,-1.4
4074,-1.9
4075,-1.9
4076,-1.8
4077,-2
4078,-1.7
4079,-1.7
4080,-2
4081,-1.9
4082,-2
4083,-2.4
4084,-2.9
4085,-2.7
4086,-2.7
4087,-2.7
4088,-2.6
4089,-2.6
4090,-2.6
4091,-2.6
4092,-2.2
4093,-1.9
4094,-2.3
4095,-2.4
4096,-2.4
4097,-2.2
4098,-2.1
4099,-2
4100,-2
4101,-2.1
4102,-2.1
4103,-1.4
4104,-1
4105,-1
4106,-1.3
4107,-1.5
4108,-1.5
4109,-1.7
4110,-1.4
4111,-0.9
4112,-0.7
4113,-0.7
4114,-0.7
4115,-0.8
4116,-0.9
4117,-0.4
4118,-0.1
4119,0.2
4120,0.2
4121,0.1
4122,0
4123,-0.1
4124,-0.2
4125,0
4126,0.3
4127,0.4
4128,0.6
4129,0.6
4130,0.5
4131,0.8
4132,0.8
4133,0.6
4134,0.8
4135,0.9
4136,0.9
4137,0.6
4138,0.2
4139,0.6
4140,1
4141,1.2
4142,1.1
4143,0.9
4144,0.9
4145,0.5
4146,0.4
4147,0.8
4148,0.9
4149,0.7
4150,0.8
4151,0.9
4152,1.1
4153,1.1
4154,1.2
4155,1.1
4156,1
4157,0.9
4158,1.1
4159,0.9
4160,0.8
4161,1
4162,1.2
4163,1.2
4164,1.2
4165,1.2
4166,1.1
4167,1.1
4168,1
4169,0.9
4170,1
4171,1.1
4172,1.2
4173,0.8
4174,0.3
4175,0.4
4176,0.6
4177,0.4
4178,0.3
4179,0.5
4180,0.3
4181,0
4182,0.3
4183,1
4184,1.3
4185,1.4
4186,1.2
4187,0.8
4188,1.1
4189,1.1
4190,1.2
4191,1.3
4192,1.4
4193,1.2
4194,1
4195,1.1
4196,0.5
4197,0.3
4198,0.4
4199,0.7
4200,0.8
4201,0.4
4202,0.1
4203,0.4
4204,0.8
4205,1.2
4206,1.1
4207,0.7
4208,0.9
4209,1
4210,0.9
4211,0.7
4212,0.7
4213,0.6
4214,0.5
4215,0.6
4216,0.5
4217,0.5
4218,0.6
4219,0.6
4220,0.7
4221,1.2
4222,1.2
4223,1
4224,0.8
4225,0.9
4226,1
4227,1.4
4228,1.1
4229,1
4230,1
4231,1.3
4232,1.3
4233,1.2
4234,1
4235,0.8
4236,1.1
4237,1.4
4238,1.5
4239,1.4
4240,1.3
4241,1.1
4242,1
4243,1.2
4244,1.2
4245,1.3
4246,1.2
4247,1.1
4248,1.2
4249,1.2
4250,1.4
4251,1.4
4252,1.3
4253,1.7
4254,1.7
4255,1.6
4256,1.4
4257,1
4258,0.8
4259,0.9
4260,0.9
4261,0.8
4262,0.8
4263,0.6
4264,0.8
4265,1.2
4266,1.2
4267,1.4
4268,1.5
4269,1.7
4270,1.7
4271,1.5
4272,1.6
4273,1.6
4274,1.5
4275,1.3
4276,1.4
4277,1.4
4278,1.4
4279,1.9
4280,1.6
4281,1.4
4282,1.1
4283,1.1
4284,1.2
4285,1.1
4286,1.1
4287,1.1
4288,1.2
4289,1.3
4290,1.6
4291,1.8
4292,2
4293,1.9
4294,1.7
4295,1.4
4296,1.4
4297,1.8
4298,1.4
4299,1
4300,0.9
4301,1.1
4302,1.7
4303,1.8
4304,1.6
4305,1.6
4306,1.4
4307,1.3
4308,1.5
4309,1.6
4310,1.6
4311,1.6
4312,1.6
4313,1.3
4314,0.9
4315,0.3
4316,0.4
4317,0.8
4318,1.1
4319,1.2
4320,0.8
4321,0.8
4322,0.8
4323,1
4324,1.4
4325,1.8
4326,1.7
4327,1.6
4328,1.7
4329,1.7
4330,1.8
4331,1.8
4332,1.4
4333,1.1
4334,1.1
4335,0.9
4336,0.8
4337,0.9
4338,0.6
4339,0.5
4340,0.2
4341,0.1
4342,0.6
4343,0.6
4344,0.7
4345,0.3
4346,0
4347,0.1
4348,0.2
4349,0.2
4350,0.3
4351,0.6
4352,0.4
4353,0.4
4354,0.3
4355,0.2
4356,0.2
4357,0.6
4358,1
4359,0.5
4360,0.4
4361,0.6
4362,0.5
4363,0.2
4364,0.3
4365,0.7
4366,0.8
4367,0.8
4368,0.8
4369,1.3
4370,2.2
4371,2.2
4372,2.2
4373,2
4374,1.7
4375,1.4
4376,1.3
4377,1.2
4378,1.3
4379,1.7
4380,2
4381,2.1
4382,2
4383,1.9
4384,1.9
4385,1.8
4386,1.9
4387,1.9
4388,1.7
4389,1.6
4390,1.7
4391,1.5
4392,1.9
4393,2.4
4394,2
4395,1.8
4396,1.4
4397,1.4
4398,1.4
4399,1.6
4400,1.8
4401,1.9
4402,2.2
4403,2.3
4404,1.8
4405,0.9
4406,0
4407,-0.9
4408,-1.3
4409,-2.1
4410,-3.8
4411,-6
4412,-8.1
4413,-9.7
4414,-11.3
4415,-12.7
4416,-13.6
4417,-14.3
4418,-14.8
4419,-14.6
4420,-13.7
4421,-11.2
4422,-9
4423,-7.7
4424,-6.6
4425,-5.1
4426,-4.1
4427,-3.3
4428,-2.8
4429,-2.9
4430,-2.5
4431,-2.4
4432,-1.6
4433,-0.8
4434,-0.5
4435,-0.2
4436,0.5
4437,0.8
4438,1
4439,1.2
4440,1.3
4441,1.4
4442,1.9
4443,1.6
4444,1.2
4445,1.6
4446,1.7
4447,1.4
4448,0.9
4449,0.4
4450,0.5
4451,0.8
4452,1.2
4453,1.3
4454,1.5
4455,1.8
4456,1.6
4457,1.6
4458,1.9
4459,2
4460,2
4461,1.9
4462,1.9
4463,2.3
4464,2
4465,1.7
4466,1.6
4467,1.5
4468,1.3
4469,1.5
4470,1.5
4471,2
4472,2.1
4473,1.9
4474,1.9
4475,1.7
4476,1.6
4477,1.7
4478,1.5
4479,1.4
4480,1.5
4481,1.6
4482,1.4
4483,1.3
4484,1.5
4485,1.8
4486,1.8
4487,1.6
4488,1.5
4489,1.5
4490,1.8
4491,1.9
4492,1.4
4493,0.8
4494,0.9
4495,1.4
4496,1.1
4497,0.9
4498,0.9
4499,0.7
4500,0.8
4501,0.7
4502,1.1
4503,1
4504,0.4
4505,0.5
4506,0.6
4507,0.9
4508,0.8
4509,0.5
4510,0.3
4511,0
4512,-0.1
4513,0.1
4514,0
4515,0.2
4516,0.7
4517,0.6
4518,0.3
4519,0
4520,0
4521,-0.1
4522,-0.6
4523,-0.5
4524,-0.1
4525,-0.4
4526,-0.8
4527,-1.3
4528,-1.3
4529,-1.1
4530,-1
4531,-1
4532,-1.1
4533,-1
4534,-0.9
4535,-1
4536,-1.2
4537,-1.9
4538,-2.1
4539,-2
4540,-2.1
4541,-2.3
4542,-2.3
4543,-2.3
4544,-2.3
4545,-2.3
4546,-2.4
4547,-2.3
4548,-2.3
4549,-2.8
4550,-2.8
4551,-2.8
4552,-3.2
4553,-3.4
4554,-3
4555,-3.1
4556,-3.1
4557,-3
4558,-2.8
4559,-2.6
4560,-2.6
4561,-2.8
4562,-2.8
4563,-2.7
4564,-2.4
4565,-2.6
4566,-2.6
4567,-2.8
4568,-2.7
4569,-2.5
4570,-2.4
4571,-2.3
4572,-2.2
4573,-2
4574,-1.8
4575,-1.3
4576,-1.3
4577,-1.3
4578,-1.2
4579,-1
4580,-1.2
4581,-1.2
4582,-1.1
4583,-0.8
4584,-0.9
4585,-0.9
4586,-0.3
4587,0.1
4588,0
4589,-0.1
4590,0.1
4591,0.2
4592,0.1
4593,0.2
4594,0.1
4595,0
4596,-0.4
4597,-0.6
4598,-0.6
4599,-0.1
4600,0
4601,-0.1
4602,-0.3
4603,0.1
4604,0.4
4605,0.7
4606,0.9
4607,0.8
4608,0.5
4609,0.4
4610,0.7
4611,0.8
4612,0.7
4613,0.9
4614,0.7
4615,0.8
4616,0.6
4617,0.7
4618,0.5
4619,0.5
4620,0.8
4621,0.4
4622,0.3
4623,0.4
4624,0.4
4625,0.2
4626,0.7
4627,0.5
4628,0.5
4629,0.6
4630,0.3
4631,0.4
4632,0.7
4633,1
4634,0.9
4635,0.8
4636,0.8
4637,0.6
4638,0.5
4639,0.4
4640,0.4
4641,0.6
4642,0.7
4643,0.7
4644,0.8
4645,0.4
4646,0.1
4647,0.2
4648,0.4
4649,0.3
4650,0.4
4651,0.4
4652,0.3
4653,0.5
4654,0.8
4655,1
4656,0.8
4657,0.6
4658,0.6
4659,0.2
4660,0.3
4661,0.6
4662,0.9
4663,0.8
4664,0.4
4665,0.1
4666,0.1
4667,0.2
4668,0.3
4669,0.3
4670,0.6
4671,0.7
4672,0.6
4673,0.4
4674,0.4
4675,0.3
4676,0.2
4677,0.8
4678,0.8
4679,0.6
4680,0.9
4681,0.8
4682,0.4
4683,0.4
4684,0.5
4685,0.6
4686,0.9
4687,0.5
4688,0.4
4689,0.6
4690,0.5
4691,0.6
4692,0.7
4693,0.2
4694,0.1
4695,0.4
4696,0.5
4697,0.6
4698,1.1
4699,0.9
4700,0.7
4701,0.9
4702,0.9
4703,1
4704,1.1
4705,0.8
4706,0.3
4707,0.7
4708,1.2
4709,1.1
4710,0.9
4711,1.3
4712,1.3
4713,1
4714,0.9
4715,0.9
4716,1.2
4717,1.1
4718,0.8
4719,0.6
4720,0.5
4721,0.2
4722,0.4
4723,0.5
4724,0.7
4725,1.1
4726,1.2
4727,1.4
4728,1.2
4729,1.2
4730,1.2
4731,0.9
4732,0.7
4733,1.2
4734,1.8
4735,1.6
4736,1.1
4737,0.8
4738,0.7
4739,0.8
4740,1.3
4741,1.3
4742,1
4743,0.9
4744,0.9
4745,0.9
4746,0.6
4747,0.6
4748,0.4
4749,0.6
4750,0.9
4751,1
4752,1
4753,1.4
4754,1.5
4755,1.4
4756,0.7
4757,0.1
4758,0.5
4759,1.1
4760,1.4
4761,1.1
4762,1.4
4763,1.5
4764,1.3
4765,1.1
4766,1.1
4767,1.7
4768,1.8
4769,1.8
4770,2.1
4771,2.1
4772,1.8
4773,1.6
4774,1.2
4775,1
4776,1.2
4777,1.4
4778,1.1
4779,0.8
4780,1
4781,1
4782,1.2
4783,1.5
4784,1.7
4785,1.4
4786,1.2
4787,1.2
4788,1.3
4789,1.2
4790,1.4
4791,1.8
4792,1.8
4793,1.2
4794,1.1
4795,0.8
4796,1.1
4797,1.2
4798,1.1
4799,1.3
4800,1.4
4801,1.4
4802,1.5
4803,1.3
4804,1.1
4805,1.3
4806,1.6
4807,1.6
4808,1.3
4809,0.6
4810,0.4
4811,0.5
4812,0.3
4813,0.4
4814,0.4
4815,0.3
4816,0.4
4817,0
4818,0
4819,0.1
4820,-0.2
4821,-0.3
4822,0
4823,0.3
4824,0.7
4825,0.3
4826,0.3
4827,0.6
4828,0.3
4829,0.2
4830,0.2
4831,0.3
4832,0.6
4833,0.8
4834,0.5
4835,0.9
4836,0.8
4837,0.6
4838,0.8
4839,1.4
4840,2
4841,1.9
4842,1.8
4843,1.8
4844,1.6
4845,1
4846,1.1
4847,1.5
4848,2
4849,2.1
4850,2
4851,1.9
4852,1.4
4853,1.7
4854,2.1
4855,2.1
4856,2
4857,1.7
4858,1.9
4859,2.1
4860,2
4861,2.3
4862,2.6
4863,2.3
4864,2.2
4865,2.1
4866,2.1
4867,2.3
4868,2.1
4869,1.9
4870,1.7
4871,2
4872,2.1
4873,1.8
4874,1.6
4875,1.8
4876,1.3
4877,0.1
4878,-0.9
4879,-1.9
4880,-3.2
4881,-5.8
4882,-8.1
4883,-9.3
4884,-10.8
4885,-12.2
4886,-13.3
4887,-13.7
4888,-14.5
4889,-15
4890,-14
4891,-11.5
4892,-9.3
4893,-7.8
4894,-6.8
4895,-5.9
4896,-4.5
4897,-3.1
4898,-2.5
4899,-2.3
4900,-1.8
4901,-1.4
4902,-1
4903,-0.6
4904,-0.1
4905,0.3
4906,0.3
4907,0.5
4908,1.1
4909,1.2
4910,1.1
4911,1.2
4912,1.3
4913,1.4
4914,1.3
4915,1.6
4916,1.8
4917,1.9
4918,2
4919,2.3
4920,2.3
4921,1.9
4922,2
4923,2.2
4924,2.1
4925,2
4926,1.9
4927,1.9
4928,1.8
4929,1.7
4930,1.8
4931,1.7
4932,1.6
4933,2
4934,2.3
4935,2.1
4936,2.2
4937,2.1
4938,1.9
4939,1.6
4940,1.5
4941,1.4
4942,1.6
4943,1.9
4944,1.8
4945,1.6
4946,1.6
4947,1.5
4948,1.3
4949,1.7
4950,2.1
4951,2.2
4952,2.2
4953,2
4954,1.7
4955,1.6
4956,1.6
4957,2
4958,2
4959,1.7
4960,1.1
4961,0.7
4962,0.7
4963,1.2
4964,1.9
4965,1.8
4966,1.7
4967,1.3
4968,1.4
4969,1.6
4970,1.6
4971,1.4
4972,1.3
4973,1.3
4974,1.3
4975,1.2
4976,0.9
4977,0.8
4978,1.2
4979,1.5
4980,1.5
4981,1.2
4982,0.6
4983,0.4
4984,0.8
4985,0.6
4986,0.1
4987,-0.1
4988,-0.2
4989,0
4990,0.3
4991,0.2
4992,0.1
4993,0
4994,-0.2
4995,-0.1
4996,0.2
4997,0
4998,-0.7
4999,-1
5000,-1
