TS,Reading,Flag,TS2,Reading2,Flag2
1,-20,5,2000,-17,5
2,-20,5,2001,-18,5
3,-21,5,2002,-17,5
4,-22,5,2003,-18,5
5,-21,5,2004,-19,5
6,-21,5,2005,-18,5
7,-20,5,2006,-17,5
8,-19,5,2007,-17,5
9,-19,5,2008,-18,5
10,-20,5,2009,-18,5
11,-21,5,2010,-17,5
12,-21,5,2011,-15,5
13,-21,5,2012,-15,5
14,-22,5,2013,-15,5
15,-21,5,2014,-16,5
16,-21,5,2015,-16,5
17,-22,5,2016,-17,5
18,-23,5,2017,-17,5
19,-22,5,2018,-18,5
20,-22,5,2019,-18,5
21,-22,5,2020,-19,5
22,-22,5,2021,-17,5
23,-20,5,2022,-17,5
24,-18,5,2023,-16,5
25,-18,5,2024,-16,5
26,-19,5,2025,-17,5
27,-20,5,2026,-17,5
28,-20,5,2027,-16,5
29,-21,5,2028,-16,5
30,-21,5,2029,-16,5
31,-20,5,2030,-15,5
32,-21,5,2031,-15,5
33,-21,5,2032,-15,5
34,-22,5,2033,-16,5
35,-20,5,2034,-16,5
36,-20,5,2035,-15,5
37,-21,5,2036,-15,5
38,-20,5,2037,-16,5
39,-20,5,2038,-18,5
40,-20,5,2039,-19,5
41,-20,5,2040,-19,5
42,-19,5,2041,-20,5
43,-18,5,2042,-19,5
44,-17,5,2043,-17,5
45,-17,5,2044,-16,5
46,-18,5,2045,-15,5
47,-19,5,2046,-15,5
48,-20,5,2047,-16,5
49,-21,5,2048,-17,5
50,-21,5,2049,-18,5
51,-21,5,2050,-19,5
52,-20,5,2051,-20,5
53,-21,5,2052,-20,5
54,-20,5,2053,-19,5
55,-19,5,2054,-17,5
56,-18,5,2055,-16,5
57,-18,5,2056,-16,5
58,-19,5,2057,-15,5
59,-19,5,2058,-15,5
60,-18,5,2059,-16,5
61,-17,5,2060,-17,5
62,-16,5,2061,-18,5
63,-14,5,2062,-19,5
64,-13,5,2063,-18,5
65,-13,5,2064,-16,5
66,-13,5,2065,-16,5
67,-12,5,2066,-17,5
68,-9,5,2067,-17,5
69,-7,5,2068,-17,5
70,-7,5,2069,-17,5
71,-6,5,2070,-16,5
72,-4,5,2071,-16,5
73,-1,5,2072,-16,5
74,0,5,2073,-15,5
75,0,5,2074,-17,5
76,0,5,2075,-16,5
77,-1,5,2076,-14,5
78,-2,5,2077,-13,5
79,-5,5,2078,-13,5
80,-7,5,2079,-12,5
81,-11,5,2080,-12,5
82,-14,5,2081,-13,5
83,-16,5,2082,-14,5
84,-18,5,2083,-14,5
85,-21,5,2084,-14,5
86,-24,5,2085,-14,5
87,-27,5,2086,-14,5
88,-29,5,2087,-15,5
89,-30,5,2088,-16,5
90,-30,5,2089,-16,5
91,-30,5,2090,-15,5
92,-30,5,2091,-14,5
93,-31,5,2092,-14,5
94,-31,5,2093,-14,5
95,-31,5,2094,-12,5
96,-32,5,2095,-11,5
97,-32,5,2096,-9,5
98,-31,5,2097,-8,5
99,-30,5,2098,-7,5
100,-28,5,2099,-7,5
101,-26,5,2100,-6,5
102,-24,5,2101,-4,5
103,-22,5,2102,-3,5
104,-22,5,2103,-2,5
105,-22,5,2104,-1,5
106,-22,5,2105,0,5
107,-24,5,2106,2,5
108,-24,5,2107,3,5
109,-24,5,2108,3,5
110,-24,5,2109,1,5
111,-23,5,2110,-2,5
112,-24,5,2111,-4,5
113,-24,5,2112,-6,5
114,-25,5,2113,-8,5
115,-25,5,2114,-9,5
116,-26,5,2115,-12,5
117,-26,5,2116,-15,5
118,-25,5,2117,-17,5
119,-25,5,2118,-20,5
120,-24,5,2119,-22,5
121,-24,5,2120,-24,5
122,-24,5,2121,-25,5
123,-24,5,2122,-26,5
124,-22,5,2123,-28,5
125,-21,5,2124,-29,5
126,-21,5,2125,-29,5
127,-21,5,2126,-27,5
128,-21,5,2127,-25,5
129,-21,5,2128,-24,5
130,-22,5,2129,-23,5
131,-23,5,2130,-22,5
132,-23,5,2131,-22,5
133,-23,5,2132,-21,5
134,-24,5,2133,-19,5
135,-24,5,2134,-19,5
136,-24,5,2135,-20,5
137,-24,5,2136,-20,5
138,-24,5,2137,-21,5
139,-24,5,2138,-20,5
140,-25,5,2139,-19,5
141,-22,5,2140,-18,5
142,-19,5,2141,-18,5
143,-12,5,2142,-18,5
144,0,5,2143,-19,5
145,11,5,2144,-21,5
146,22,5,2145,-21,5
147,31,5,2146,-21,5
148,31,5,2147,-22,5
149,31,5,2148,-22,5
150,31,5,2149,-22,5
151,31,5,2150,-21,5
152,17,5,2151,-21,5
153,-4,5,2152,-21,5
154,-26,5,2153,-21,5
155,-54,5,2154,-21,5
156,-88,5,2155,-22,5
157,-115,5,2156,-22,5
158,-115,5,2157,-22,5
159,-115,5,2158,-22,5
160,-115,5,2159,-22,5
161,-115,5,2160,-22,5
162,-115,5,2161,-20,5
163,-115,5,2162,-20,5
164,-115,5,2163,-20,5
165,-115,5,2164,-21,5
166,-115,5,2165,-19,5
167,-99,5,2166,-17,5
168,-80,5,2167,-17,5
169,-64,5,2168,-18,5
170,-51,5,2169,-20,5
171,-40,5,2170,-21,5
172,-31,5,2171,-20,5
173,-23,5,2172,-18,5
174,-18,5,2173,-15,5
175,-14,5,2174,-5,5
176,-11,5,2175,10,5
177,-11,5,2176,24,5
178,-9,5,2177,31,5
179,-6,5,2178,31,5
180,-3,5,2179,31,5
181,0,5,2180,31,5
182,0,5,2181,31,5
183,0,5,2182,31,5
184,0,5,2183,11,5
185,0,5,2184,-14,5
186,0,5,2185,-40,5
187,3,5,2186,-70,5
188,4,5,2187,-108,5
189,4,5,2188,-115,5
190,4,5,2189,-115,5
191,4,5,2190,-115,5
192,5,5,2191,-115,5
193,4,5,2192,-115,5
194,4,5,2193,-115,5
195,4,5,2194,-115,5
196,4,5,2195,-115,5
197,5,5,2196,-115,5
198,4,5,2197,-115,5
199,4,5,2198,-102,5
200,6,5,2199,-83,5
201,7,5,2200,-67,5
202,7,5,2201,-51,5
203,8,5,2202,-39,5
204,7,5,2203,-29,5
205,7,5,2204,-22,5
206,6,5,2205,-17,5
207,6,5,2206,-13,5
208,6,5,2207,-9,5
209,8,5,2208,-6,5
210,9,5,2209,-3,5
211,10,5,2210,-1,5
212,10,5,2211,1,5
213,11,5,2212,3,5
214,11,5,2213,4,5
215,10,5,2214,5,5
216,10,5,2215,5,5
217,10,5,2216,5,5
218,11,5,2217,6,5
219,11,5,2218,6,5
220,11,5,2219,6,5
221,9,5,2220,8,5
222,9,5,2221,10,5
223,9,5,2222,10,5
224,10,5,2223,11,5
225,11,5,2224,11,5
226,11,5,2225,10,5
227,12,5,2226,10,5
228,10,5,2227,10,5
229,10,5,2228,10,5
230,11,5,2229,11,5
231,12,5,2230,12,5
232,13,5,2231,14,5
233,13,5,2232,14,5
234,14,5,2233,14,5
235,15,5,2234,14,5
236,16,5,2235,14,5
237,18,5,2236,13,5
238,18,5,2237,14,5
239,16,5,2238,13,5
240,16,5,2239,13,5
241,17,5,2240,14,5
242,18,5,2241,15,5
243,19,5,2242,15,5
244,19,5,2243,14,5
245,20,5,2244,15,5
246,20,5,2245,16,5
247,22,5,2246,18,5
248,23,5,2247,18,5
249,23,5,2248,17,5
250,24,5,2249,16,5
251,24,5,2250,16,5
252,24,5,2251,15,5
253,24,5,2252,16,5
254,24,5,2253,17,5
255,26,5,2254,16,5
256,27,5,2255,16,5
257,28,5,2256,18,5
258,29,5,2257,19,5
259,30,5,2258,21,5
260,31,5,2259,22,5
261,31,5,2260,21,5
262,31,5,2261,20,5
263,31,5,2262,21,5
264,31,5,2263,23,5
265,31,5,2264,23,5
266,31,5,2265,23,5
267,31,5,2266,23,5
268,31,5,2267,23,5
269,31,5,2268,25,5
270,31,5,2269,25,5
271,31,5,2270,25,5
272,31,5,2271,26,5
273,31,5,2272,26,5
274,31,5,2273,27,5
275,31,5,2274,28,5
276,31,5,2275,28,5
277,31,5,2276,28,5
278,31,5,2277,28,5
279,31,5,2278,29,5
280,31,5,2279,30,5
281,31,5,2280,31,5
282,31,5,2281,31,5
283,31,5,2282,31,5
284,31,5,2283,31,5
285,31,5,2284,31,5
286,31,5,2285,31,5
287,31,5,2286,31,5
288,31,5,2287,31,5
289,31,5,2288,31,5
290,31,5,2289,31,5
291,31,5,2290,31,5
292,31,5,2291,31,5
293,31,5,2292,31,5
294,31,5,2293,31,5
295,31,5,2294,31,5
296,31,5,2295,31,5
297,31,5,2296,31,5
298,30,5,2297,31,5
299,27,5,2298,31,5
300,24,5,2299,31,5
301,23,5,2300,31,5
302,21,5,2301,31,5
303,19,5,2302,31,5
304,17,5,2303,31,5
305,15,5,2304,31,5
306,13,5,2305,31,5
307,12,5,2306,31,5
308,9,5,2307,31,5
309,7,5,2308,31,5
310,6,5,2309,31,5
311,4,5,2310,31,5
312,2,5,2311,31,5
313,1,5,2312,31,5
314,1,5,2313,31,5
315,-1,5,2314,31,5
316,-3,5,2315,31,5
317,-5,5,2316,31,5
318,-6,5,2317,31,5
319,-7,5,2318,31,5
320,-8,5,2319,31,5
321,-10,5,2320,31,5
322,-11,5,2321,31,5
323,-12,5,2322,31,5
324,-14,5,2323,31,5
325,-14,5,2324,31,5
326,-14,5,2325,31,5
327,-14,5,2326,31,5
328,-14,5,2327,31,5
329,-15,5,2328,31,5
330,-17,5,2329,31,5
331,-18,5,2330,31,5
332,-18,5,2331,31,5
333,-17,5,2332,31,5
334,-16,5,2333,31,5
335,-16,5,2334,29,5
336,-16,5,2335,27,5
337,-16,5,2336,24,5
338,-17,5,2337,22,5
339,-17,5,2338,21,5
340,-17,5,2339,19,5
341,-15,5,2340,17,5
342,-13,5,2341,13,5
343,-13,5,2342,10,5
344,-15,5,2343,9,5
345,-15,5,2344,7,5
346,-17,5,2345,4,5
347,-19,5,2346,2,5
348,-20,5,2347,1,5
349,-20,5,2348,0,5
350,-20,5,2349,0,5
351,-18,5,2350,-1,5
352,-17,5,2351,-3,5
353,-16,5,2352,-4,5
354,-16,5,2353,-5,5
355,-15,5,2354,-6,5
356,-16,5,2355,-6,5
357,-17,5,2356,-6,5
358,-18,5,2357,-6,5
359,-17,5,2358,-5,5
360,-16,5,2359,-6,5
361,-16,5,2360,-5,5
362,-16,5,2361,-5,5
363,-16,5,2362,-6,5
364,-16,5,2363,-7,5
365,-16,5,2364,-9,5
366,-15,5,2365,-10,5
367,-15,5,2366,-11,5
368,-14,5,2367,-11,5
369,-14,5,2368,-11,5
370,-14,5,2369,-11,5
371,-14,5,2370,-12,5
372,-13,5,2371,-13,5
373,-13,5,2372,-13,5
374,-14,5,2373,-12,5
375,-13,5,2374,-12,5
376,-14,5,2375,-12,5
377,-15,5,2376,-12,5
378,-16,5,2377,-12,5
379,-15,5,2378,-11,5
380,-15,5,2379,-10,5
381,-17,5,2380,-10,5
382,-18,5,2381,-10,5
383,-17,5,2382,-11,5
384,-16,5,2383,-11,5
385,-15,5,2384,-12,5
386,-15,5,2385,-12,5
387,-15,5,2386,-11,5
388,-16,5,2387,-10,5
389,-15,5,2388,-10,5
390,-14,5,2389,-11,5
391,-14,5,2390,-11,5
392,-14,5,2391,-11,5
393,-15,5,2392,-10,5
394,-15,5,2393,-9,5
395,-15,5,2394,-7,5
396,-15,5,2395,-7,5
397,-15,5,2396,-8,5
398,-16,5,2397,-8,5
399,-16,5,2398,-9,5
400,-15,5,2399,-10,5
401,-15,5,2400,-11,5
402,-14,5,2401,-10,5
403,-14,5,2402,-10,5
404,-15,5,2403,-10,5
405,-15,5,2404,-10,5
406,-16,5,2405,-9,5
407,-16,5,2406,-9,5
408,-17,5,2407,-9,5
409,-19,5,2408,-9,5
410,-20,5,2409,-9,5
411,-20,5,2410,-9,5
412,-20,5,2411,-8,5
413,-20,5,2412,-9,5
414,-19,5,2413,-11,5
415,-18,5,2414,-10,5
416,-19,5,2415,-10,5
417,-19,5,2416,-10,5
418,-18,5,2417,-10,5
419,-15,5,2418,-9,5
420,-15,5,2419,-9,5
421,-16,5,2420,-9,5
422,-16,5,2421,-9,5
423,-17,5,2422,-9,5
424,-17,5,2423,-9,5
425,-19,5,2424,-10,5
426,-19,5,2425,-11,5
427,-19,5,2426,-12,5
428,-20,5,2427,-12,5
429,-21,5,2428,-11,5
430,-22,5,2429,-11,5
431,-21,5,2430,-10,5
432,-19,5,2431,-10,5
433,-18,5,2432,-11,5
434,-18,5,2433,-11,5
435,-20,5,2434,-11,5
436,-18,5,2435,-11,5
437,-17,5,2436,-11,5
438,-17,5,2437,-12,5
439,-17,5,2438,-12,5
440,-19,5,2439,-13,5
441,-20,5,2440,-13,5
442,-21,5,2441,-14,5
443,-23,5,2442,-13,5
444,-23,5,2443,-11,5
445,-23,5,2444,-11,5
446,-21,5,2445,-12,5
447,-20,5,2446,-13,5
448,-19,5,2447,-14,5
449,-20,5,2448,-15,5
450,-21,5,2449,-14,5
451,-20,5,2450,-14,5
452,-20,5,2451,-15,5
453,-20,5,2452,-15,5
454,-20,5,2453,-16,5
455,-21,5,2454,-15,5
456,-21,5,2455,-14,5
457,-21,5,2456,-12,5
458,-21,5,2457,-12,5
459,-20,5,2458,-13,5
460,-19,5,2459,-14,5
461,-19,5,2460,-16,5
462,-20,5,2461,-17,5
463,-22,5,2462,-18,5
464,-23,5,2463,-18,5
465,-24,5,2464,-18,5
466,-23,5,2465,-19,5
467,-21,5,2466,-17,5
468,-21,5,2467,-17,5
469,-20,5,2468,-16,5
470,-20,5,2469,-16,5
471,-21,5,2470,-15,5
472,-20,5,2471,-15,5
473,-20,5,2472,-16,5
474,-19,5,2473,-16,5
475,-18,5,2474,-16,5
476,-18,5,2475,-17,5
477,-19,5,2476,-18,5
478,-18,5,2477,-22,5
479,-17,5,2478,-23,5
480,-17,5,2479,-22,5
481,-18,5,2480,-21,5
482,-18,5,2481,-20,5
483,-19,5,2482,-19,5
484,-19,5,2483,-19,5
485,-21,5,2484,-20,5
486,-21,5,2485,-18,5
487,-21,5,2486,-17,5
488,-21,5,2487,-17,5
489,-21,5,2488,-17,5
490,-22,5,2489,-17,5
491,-21,5,2490,-16,5
492,-20,5,2491,-16,5
493,-21,5,2492,-16,5
494,-21,5,2493,-17,5
495,-21,5,2494,-17,5
496,-19,5,2495,-17,5
497,-19,5,2496,-16,5
498,-19,5,2497,-18,5
499,-20,5,2498,-19,5
500,-20,5,2499,-19,5
501,-21,5,2500,-20,5
502,-20,5,2501,-19,5
503,-20,5,2502,-18,5
504,-21,5,2503,-19,5
505,-22,5,2504,-18,5
506,-23,5,2505,-18,5
507,-24,5,2506,-19,5
508,-24,5,2507,-20,5
509,-23,5,2508,-19,5
510,-21,5,2509,-19,5
511,-20,5,2510,-18,5
512,-19,5,2511,-18,5
513,-18,5,2512,-18,5
514,-18,5,2513,-18,5
515,-18,5,2514,-18,5
516,-19,5,2515,-18,5
517,-19,5,2516,-18,5
518,-20,5,2517,-18,5
519,-20,5,2518,-19,5
520,-20,5,2519,-19,5
521,-21,5,2520,-19,5
522,-19,5,2521,-19,5
523,-18,5,2522,-18,5
524,-17,5,2523,-17,5
525,-16,5,2524,-17,5
526,-16,5,2525,-18,5
527,-17,5,2526,-18,5
528,-19,5,2527,-18,5
529,-19,5,2528,-18,5
530,-20,5,2529,-19,5
531,-21,5,2530,-19,5
532,-19,5,2531,-21,5
533,-18,5,2532,-20,5
534,-19,5,2533,-19,5
535,-20,5,2534,-17,5
536,-21,5,2535,-17,5
537,-21,5,2536,-18,5
538,-20,5,2537,-17,5
539,-21,5,2538,-18,5
540,-21,5,2539,-19,5
541,-21,5,2540,-20,5
542,-22,5,2541,-19,5
543,-23,5,2542,-18,5
544,-24,5,2543,-17,5
545,-23,5,2544,-18,5
546,-21,5,2545,-19,5
547,-21,5,2546,-19,5
548,-21,5,2547,-18,5
549,-21,5,2548,-18,5
550,-23,5,2549,-18,5
551,-23,5,2550,-16,5
552,-24,5,2551,-16,5
553,-23,5,2552,-17,5
554,-22,5,2553,-19,5
555,-22,5,2554,-17,5
556,-21,5,2555,-16,5
557,-19,5,2556,-16,5
558,-19,5,2557,-17,5
559,-18,5,2558,-17,5
560,-18,5,2559,-18,5
561,-18,5,2560,-17,5
562,-20,5,2561,-17,5
563,-21,5,2562,-17,5
564,-22,5,2563,-17,5
565,-23,5,2564,-17,5
566,-21,5,2565,-16,5
567,-20,5,2566,-16,5
568,-20,5,2567,-16,5
569,-21,5,2568,-15,5
570,-20,5,2569,-14,5
571,-19,5,2570,-14,5
572,-19,5,2571,-14,5
573,-18,5,2572,-15,5
574,-17,5,2573,-15,5
575,-17,5,2574,-16,5
576,-15,5,2575,-16,5
577,-11,5,2576,-16,5
578,-9,5,2577,-16,5
579,-9,5,2578,-16,5
580,-8,5,2579,-16,5
581,-7,5,2580,-16,5
582,-6,5,2581,-15,5
583,-5,5,2582,-15,5
584,-4,5,2583,-15,5
585,-4,5,2584,-15,5
586,-4,5,2585,-15,5
587,-4,5,2586,-15,5
588,-6,5,2587,-15,5
589,-7,5,2588,-15,5
590,-9,5,2589,-15,5
591,-12,5,2590,-15,5
592,-13,5,2591,-16,5
593,-16,5,2592,-16,5
594,-20,5,2593,-15,5
595,-23,5,2594,-15,5
596,-25,5,2595,-16,5
597,-25,5,2596,-16,5
598,-27,5,2597,-16,5
599,-28,5,2598,-17,5
600,-29,5,2599,-16,5
601,-29,5,2600,-16,5
602,-31,5,2601,-15,5
603,-31,5,2602,-14,5
604,-32,5,2603,-13,5
605,-31,5,2604,-13,5
606,-31,5,2605,-12,5
607,-30,5,2606,-11,5
608,-30,5,2607,-10,5
609,-30,5,2608,-10,5
610,-29,5,2609,-10,5
611,-27,5,2610,-8,5
612,-25,5,2611,-7,5
613,-22,5,2612,-5,5
614,-22,5,2613,-5,5
615,-22,5,2614,-4,5
616,-23,5,2615,-3,5
617,-23,5,2616,-2,5
618,-24,5,2617,-2,5
619,-24,5,2618,-1,5
620,-25,5,2619,-3,5
621,-25,5,2620,-4,5
622,-26,5,2621,-6,5
623,-25,5,2622,-9,5
624,-26,5,2623,-12,5
625,-26,5,2624,-15,5
626,-27,5,2625,-18,5
627,-27,5,2626,-21,5
628,-27,5,2627,-23,5
629,-27,5,2628,-26,5
630,-27,5,2629,-28,5
631,-27,5,2630,-29,5
632,-27,5,2631,-30,5
633,-27,5,2632,-32,5
634,-27,5,2633,-34,5
635,-28,5,2634,-35,5
636,-26,5,2635,-35,5
637,-25,5,2636,-34,5
638,-25,5,2637,-33,5
639,-24,5,2638,-32,5
640,-24,5,2639,-32,5
641,-24,5,2640,-31,5
642,-24,5,2641,-29,5
643,-23,5,2642,-27,5
644,-23,5,2643,-26,5
645,-23,5,2644,-26,5
646,-24,5,2645,-24,5
647,-24,5,2646,-24,5
648,-23,5,2647,-24,5
649,-23,5,2648,-25,5
650,-22,5,2649,-26,5
651,-22,5,2650,-28,5
652,-19,5,2651,-28,5
653,-8,5,2652,-28,5
654,6,5,2653,-28,5
655,19,5,2654,-29,5
656,29,5,2655,-29,5
657,31,5,2656,-29,5
658,31,5,2657,-29,5
659,31,5,2658,-28,5
660,31,5,2659,-29,5
661,14,5,2660,-28,5
662,-12,5,2661,-28,5
663,-38,5,2662,-28,5
664,-63,5,2663,-28,5
665,-93,5,2664,-27,5
666,-115,5,2665,-27,5
667,-115,5,2666,-28,5
668,-115,5,2667,-29,5
669,-115,5,2668,-29,5
670,-115,5,2669,-29,5
671,-115,5,2670,-29,5
672,-115,5,2671,-28,5
673,-115,5,2672,-28,5
674,-115,5,2673,-28,5
675,-115,5,2674,-28,5
676,-115,5,2675,-28,5
677,-101,5,2676,-28,5
678,-81,5,2677,-30,5
679,-62,5,2678,-30,5
680,-48,5,2679,-30,5
681,-36,5,2680,-30,5
682,-27,5,2681,-29,5
683,-21,5,2682,-27,5
684,-18,5,2683,-19,5
685,-15,5,2684,-7,5
686,-12,5,2685,6,5
687,-9,5,2686,18,5
688,-6,5,2687,31,5
689,-3,5,2688,31,5
690,-1,5,2689,31,5
691,0,5,2690,31,5
692,0,5,2691,31,5
693,0,5,2692,10,5
694,1,5,2693,-10,5
695,1,5,2694,-31,5
696,2,5,2695,-61,5
697,2,5,2696,-99,5
698,3,5,2697,-115,5
699,4,5,2698,-115,5
700,5,5,2699,-115,5
701,5,5,2700,-115,5
702,5,5,2701,-115,5
703,5,5,2702,-115,5
704,6,5,2703,-115,5
705,6,5,2704,-115,5
706,6,5,2705,-115,5
707,5,5,2706,-115,5
708,5,5,2707,-108,5
709,5,5,2708,-90,5
710,5,5,2709,-74,5
711,5,5,2710,-59,5
712,6,5,2711,-48,5
713,7,5,2712,-40,5
714,7,5,2713,-33,5
715,7,5,2714,-28,5
716,8,5,2715,-23,5
717,8,5,2716,-20,5
718,9,5,2717,-18,5
719,11,5,2718,-14,5
720,13,5,2719,-10,5
721,13,5,2720,-8,5
722,13,5,2721,-6,5
723,13,5,2722,-5,5
724,14,5,2723,-6,5
725,14,5,2724,-6,5
726,14,5,2725,-5,5
727,12,5,2726,-4,5
728,12,5,2727,-5,5
729,14,5,2728,-5,5
730,15,5,2729,-5,5
731,17,5,2730,-5,5
732,17,5,2731,-5,5
733,16,5,2732,-5,5
734,16,5,2733,-4,5
735,16,5,2734,-2,5
736,16,5,2735,0,5
737,17,5,2736,0,5
738,18,5,2737,0,5
739,18,5,2738,0,5
740,19,5,2739,-1,5
741,20,5,2740,0,5
742,20,5,2741,0,5
743,20,5,2742,0,5
744,21,5,2743,1,5
745,22,5,2744,1,5
746,22,5,2745,1,5
747,24,5,2746,1,5
748,24,5,2747,1,5
749,24,5,2748,3,5
750,24,5,2749,4,5
751,21,5,2750,4,5
752,21,5,2751,5,5
753,23,5,2752,5,5
754,23,5,2753,5,5
755,23,5,2754,5,5
756,24,5,2755,6,5
757,24,5,2756,7,5
758,25,5,2757,9,5
759,26,5,2758,7,5
760,28,5,2759,5,5
761,30,5,2760,4,5
762,31,5,2761,5,5
763,30,5,2762,7,5
764,31,5,2763,8,5
765,31,5,2764,10,5
766,31,5,2765,10,5
767,31,5,2766,9,5
768,31,5,2767,9,5
769,31,5,2768,9,5
770,31,5,2769,9,5
771,31,5,2770,9,5
772,31,5,2771,10,5
773,31,5,2772,11,5
774,31,5,2773,12,5
775,31,5,2774,13,5
776,31,5,2775,13,5
777,31,5,2776,12,5
778,31,5,2777,12,5
779,31,5,2778,11,5
780,31,5,2779,12,5
781,31,5,2780,14,5
782,31,5,2781,15,5
783,31,5,2782,15,5
784,31,5,2783,15,5
785,31,5,2784,15,5
786,31,5,2785,16,5
787,31,5,2786,18,5
788,31,5,2787,21,5
789,31,5,2788,22,5
790,31,5,2789,22,5
791,31,5,2790,23,5
792,31,5,2791,23,5
793,31,5,2792,23,5
794,31,5,2793,23,5
795,31,5,2794,24,5
796,31,5,2795,25,5
797,31,5,2796,26,5
798,31,5,2797,26,5
799,31,5,2798,27,5
800,31,5,2799,29,5
801,31,5,2800,31,5
802,31,5,2801,31,5
803,31,5,2802,31,5
804,31,5,2803,31,5
805,31,5,2804,31,5
806,31,5,2805,31,5
807,31,5,2806,31,5
808,31,5,2807,31,5
809,31,5,2808,31,5
810,31,5,2809,31,5
811,31,5,2810,31,5
812,30,5,2811,31,5
813,29,5,2812,31,5
814,26,5,2813,31,5
815,23,5,2814,31,5
816,20,5,2815,31,5
817,18,5,2816,31,5
818,16,5,2817,31,5
819,14,5,2818,31,5
820,12,5,2819,31,5
821,11,5,2820,31,5
822,10,5,2821,31,5
823,8,5,2822,31,5
824,7,5,2823,31,5
825,6,5,2824,31,5
826,4,5,2825,31,5
827,1,5,2826,31,5
828,0,5,2827,31,5
829,-1,5,2828,31,5
830,-4,5,2829,31,5
831,-7,5,2830,31,5
832,-7,5,2831,31,5
833,-8,5,2832,31,5
834,-8,5,2833,31,5
835,-8,5,2834,31,5
836,-7,5,2835,31,5
837,-7,5,2836,31,5
838,-8,5,2837,31,5
839,-9,5,2838,31,5
840,-10,5,2839,30,5
841,-9,5,2840,28,5
842,-10,5,2841,27,5
843,-11,5,2842,25,5
844,-11,5,2843,23,5
845,-12,5,2844,20,5
846,-14,5,2845,17,5
847,-13,5,2846,14,5
848,-13,5,2847,13,5
849,-13,5,2848,10,5
850,-14,5,2849,7,5
851,-14,5,2850,4,5
852,-14,5,2851,2,5
853,-13,5,2852,0,5
854,-13,5,2853,-1,5
855,-13,5,2854,-2,5
856,-13,5,2855,-3,5
857,-14,5,2856,-4,5
858,-14,5,2857,-7,5
859,-14,5,2858,-9,5
860,-14,5,2859,-9,5
861,-13,5,2860,-10,5
862,-13,5,2861,-12,5
863,-12,5,2862,-12,5
864,-12,5,2863,-12,5
865,-13,5,2864,-12,5
866,-13,5,2865,-12,5
867,-13,5,2866,-12,5
868,-12,5,2867,-13,5
869,-11,5,2868,-14,5
870,-10,5,2869,-14,5
871,-10,5,2870,-13,5
872,-10,5,2871,-14,5
873,-9,5,2872,-16,5
874,-6,5,2873,-16,5
875,-6,5,2874,-16,5
876,-7,5,2875,-17,5
877,-8,5,2876,-16,5
878,-9,5,2877,-16,5
879,-10,5,2878,-16,5
880,-9,5,2879,-17,5
881,-9,5,2880,-17,5
882,-10,5,2881,-16,5
883,-9,5,2882,-15,5
884,-9,5,2883,-16,5
885,-10,5,2884,-17,5
886,-9,5,2885,-16,5
887,-9,5,2886,-16,5
888,-9,5,2887,-14,5
889,-9,5,2888,-12,5
890,-9,5,2889,-12,5
891,-8,5,2890,-13,5
892,-8,5,2891,-14,5
893,-9,5,2892,-14,5
894,-9,5,2893,-16,5
895,-10,5,2894,-15,5
896,-10,5,2895,-15,5
897,-10,5,2896,-15,5
898,-9,5,2897,-13,5
899,-10,5,2898,-11,5
900,-12,5,2899,-11,5
901,-13,5,2900,-13,5
902,-14,5,2901,-14,5
903,-14,5,2902,-15,5
904,-12,5,2903,-15,5
905,-11,5,2904,-14,5
906,-11,5,2905,-15,5
907,-11,5,2906,-14,5
908,-12,5,2907,-12,5
909,-13,5,2908,-11,5
910,-13,5,2909,-11,5
911,-13,5,2910,-9,5
912,-14,5,2911,-9,5
913,-14,5,2912,-10,5
914,-13,5,2913,-10,5
915,-14,5,2914,-10,5
916,-14,5,2915,-11,5
917,-13,5,2916,-12,5
918,-13,5,2917,-13,5
919,-15,5,2918,-13,5
920,-15,5,2919,-13,5
921,-15,5,2920,-13,5
922,-15,5,2921,-12,5
923,-16,5,2922,-12,5
924,-16,5,2923,-12,5
925,-16,5,2924,-11,5
926,-16,5,2925,-10,5
927,-15,5,2926,-10,5
928,-15,5,2927,-10,5
929,-15,5,2928,-11,5
930,-16,5,2929,-11,5
931,-16,5,2930,-12,5
932,-15,5,2931,-13,5
933,-15,5,2932,-12,5
934,-15,5,2933,-12,5
935,-16,5,2934,-13,5
936,-16,5,2935,-11,5
937,-16,5,2936,-10,5
938,-16,5,2937,-10,5
939,-17,5,2938,-10,5
940,-18,5,2939,-10,5
941,-19,5,2940,-11,5
942,-19,5,2941,-12,5
943,-19,5,2942,-11,5
944,-19,5,2943,-11,5
945,-19,5,2944,-13,5
946,-19,5,2945,-12,5
947,-19,5,2946,-11,5
948,-19,5,2947,-12,5
949,-18,5,2948,-11,5
950,-17,5,2949,-10,5
951,-17,5,2950,-10,5
952,-16,5,2951,-10,5
953,-17,5,2952,-11,5
954,-18,5,2953,-14,5
955,-18,5,2954,-16,5
956,-17,5,2955,-18,5
957,-18,5,2956,-16,5
958,-18,5,2957,-16,5
959,-19,5,2958,-16,5
960,-19,5,2959,-15,5
961,-18,5,2960,-15,5
962,-17,5,2961,-16,5
963,-17,5,2962,-16,5
964,-17,5,2963,-16,5
965,-19,5,2964,-16,5
966,-20,5,2965,-16,5
967,-20,5,2966,-16,5
968,-19,5,2967,-17,5
969,-20,5,2968,-17,5
970,-19,5,2969,-15,5
971,-19,5,2970,-14,5
972,-20,5,2971,-14,5
973,-20,5,2972,-14,5
974,-19,5,2973,-14,5
975,-19,5,2974,-14,5
976,-20,5,2975,-15,5
977,-21,5,2976,-14,5
978,-21,5,2977,-14,5
979,-21,5,2978,-14,5
980,-21,5,2979,-15,5
981,-21,5,2980,-16,5
982,-22,5,2981,-15,5
983,-20,5,2982,-16,5
984,-19,5,2983,-17,5
985,-18,5,2984,-18,5
986,-17,5,2985,-18,5
987,-19,5,2986,-17,5
988,-19,5,2987,-17,5
989,-19,5,2988,-16,5
990,-20,5,2989,-16,5
991,-20,5,2990,-16,5
992,-21,5,2991,-14,5
993,-22,5,2992,-13,5
994,-21,5,2993,-13,5
995,-21,5,2994,-14,5
996,-21,5,2995,-16,5
997,-20,5,2996,-17,5
998,-20,5,2997,-17,5
999,-21,5,2998,-18,5
1000,-22,5,2999,-18,5
1001,-21,5,3000,-18,5
1002,-21,5,3001,-20,5
1003,-21,5,3002,-22,5
1004,-21,5,3003,-21,5
1005,-20,5,3004,-21,5
1006,-19,5,3005,-21,5
1007,-20,5,3006,-20,5
1008,-22,5,3007,-19,5
1009,-20,5,3008,-19,5
1010,-19,5,3009,-17,5
1011,-18,5,3010,-17,5
1012,-18,5,3011,-17,5
1013,-17,5,3012,-17,5
1014,-18,5,3013,-18,5
1015,-21,5,3014,-19,5
1016,-21,5,3015,-17,5
1017,-22,5,3016,-17,5
1018,-22,5,3017,-17,5
1019,-21,5,3018,-18,5
1020,-21,5,3019,-19,5
1021,-21,5,3020,-20,5
1022,-21,5,3021,-20,5
1023,-21,5,3022,-20,5
1024,-21,5,3023,-19,5
1025,-21,5,3024,-18,5
1026,-20,5,3025,-18,5
1027,-21,5,3026,-17,5
1028,-21,5,3027,-16,5
1029,-21,5,3028,-15,5
1030,-21,5,3029,-15,5
1031,-20,5,3030,-16,5
1032,-18,5,3031,-18,5
1033,-18,5,3032,-19,5
1034,-19,5,3033,-20,5
1035,-20,5,3034,-19,5
1036,-21,5,3035,-18,5
1037,-21,5,3036,-18,5
1038,-19,5,3037,-19,5
1039,-19,5,3038,-20,5
1040,-20,5,3039,-19,5
1041,-19,5,3040,-19,5
1042,-19,5,3041,-19,5
1043,-20,5,3042,-20,5
1044,-20,5,3043,-20,5
1045,-20,5,3044,-20,5
1046,-20,5,3045,-20,5
1047,-21,5,3046,-21,5
1048,-21,5,3047,-20,5
1049,-21,5,3048,-19,5
1050,-20,5,3049,-19,5
1051,-20,5,3050,-19,5
1052,-19,5,3051,-19,5
1053,-19,5,3052,-19,5
1054,-19,5,3053,-19,5
1055,-20,5,3054,-18,5
1056,-20,5,3055,-18,5
1057,-20,5,3056,-19,5
1058,-20,5,3057,-20,5
1059,-20,5,3058,-18,5
1060,-20,5,3059,-16,5
1061,-19,5,3060,-16,5
1062,-18,5,3061,-17,5
1063,-18,5,3062,-18,5
1064,-18,5,3063,-19,5
1065,-18,5,3064,-19,5
1066,-18,5,3065,-18,5
1067,-19,5,3066,-18,5
1068,-19,5,3067,-18,5
1069,-19,5,3068,-19,5
1070,-19,5,3069,-18,5
1071,-20,5,3070,-18,5
1072,-20,5,3071,-18,5
1073,-19,5,3072,-19,5
1074,-19,5,3073,-18,5
1075,-19,5,3074,-18,5
1076,-19,5,3075,-17,5
1077,-18,5,3076,-17,5
1078,-17,5,3077,-17,5
1079,-15,5,3078,-18,5
1080,-14,5,3079,-18,5
1081,-13,5,3080,-18,5
1082,-11,5,3081,-18,5
1083,-10,5,3082,-19,5
1084,-9,5,3083,-20,5
1085,-8,5,3084,-20,5
1086,-9,5,3085,-20,5
1087,-7,5,3086,-19,5
1088,-5,5,3087,-19,5
1089,-5,5,3088,-18,5
1090,-4,5,3089,-18,5
1091,-3,5,3090,-18,5
1092,-3,5,3091,-18,5
1093,-4,5,3092,-17,5
1094,-7,5,3093,-17,5
1095,-10,5,3094,-17,5
1096,-10,5,3095,-18,5
1097,-10,5,3096,-18,5
1098,-12,5,3097,-18,5
1099,-14,5,3098,-18,5
1100,-17,5,3099,-17,5
1101,-20,5,3100,-16,5
1102,-22,5,3101,-15,5
1103,-23,5,3102,-16,5
1104,-24,5,3103,-18,5
1105,-25,5,3104,-18,5
1106,-27,5,3105,-18,5
1107,-26,5,3106,-19,5
1108,-25,5,3107,-19,5
1109,-26,5,3108,-18,5
1110,-27,5,3109,-16,5
1111,-26,5,3110,-16,5
1112,-26,5,3111,-15,5
1113,-25,5,3112,-15,5
1114,-25,5,3113,-15,5
1115,-26,5,3114,-14,5
1116,-25,5,3115,-13,5
1117,-24,5,3116,-13,5
1118,-24,5,3117,-13,5
1119,-24,5,3118,-12,5
1120,-24,5,3119,-10,5
1121,-23,5,3120,-9,5
1122,-23,5,3121,-8,5
1123,-24,5,3122,-7,5
1124,-25,5,3123,-6,5
1125,-25,5,3124,-5,5
1126,-26,5,3125,-5,5
1127,-26,5,3126,-4,5
1128,-26,5,3127,-3,5
1129,-27,5,3128,-1,5
1130,-26,5,3129,-1,5
1131,-26,5,3130,-2,5
1132,-25,5,3131,-2,5
1133,-24,5,3132,-2,5
1134,-22,5,3133,-4,5
1135,-21,5,3134,-5,5
1136,-22,5,3135,-7,5
1137,-22,5,3136,-9,5
1138,-23,5,3137,-12,5
1139,-23,5,3138,-16,5
1140,-23,5,3139,-21,5
1141,-24,5,3140,-25,5
1142,-23,5,3141,-27,5
1143,-24,5,3142,-27,5
1144,-26,5,3143,-27,5
1145,-27,5,3144,-29,5
1146,-26,5,3145,-30,5
1147,-25,5,3146,-31,5
1148,-24,5,3147,-31,5
1149,-24,5,3148,-31,5
1150,-24,5,3149,-30,5
1151,-23,5,3150,-28,5
1152,-23,5,3151,-26,5
1153,-22,5,3152,-25,5
1154,-21,5,3153,-25,5
1155,-20,5,3154,-23,5
1156,-20,5,3155,-22,5
1157,-20,5,3156,-22,5
1158,-16,5,3157,-22,5
1159,-8,5,3158,-21,5
1160,5,5,3159,-21,5
1161,18,5,3160,-21,5
1162,31,5,3161,-22,5
1163,31,5,3162,-23,5
1164,31,5,3163,-23,5
1165,31,5,3164,-23,5
1166,31,5,3165,-23,5
1167,17,5,3166,-22,5
1168,-2,5,3167,-22,5
1169,-21,5,3168,-22,5
1170,-45,5,3169,-23,5
1171,-77,5,3170,-23,5
1172,-113,5,3171,-24,5
1173,-115,5,3172,-26,5
1174,-115,5,3173,-25,5
1175,-115,5,3174,-25,5
1176,-115,5,3175,-25,5
1177,-115,5,3176,-25,5
1178,-115,5,3177,-25,5
1179,-115,5,3178,-25,5
1180,-115,5,3179,-25,5
1181,-115,5,3180,-25,5
1182,-101,5,3181,-23,5
1183,-82,5,3182,-23,5
1184,-66,5,3183,-23,5
1185,-52,5,3184,-22,5
1186,-42,5,3185,-22,5
1187,-34,5,3186,-22,5
1188,-27,5,3187,-24,5
1189,-22,5,3188,-24,5
1190,-18,5,3189,-23,5
1191,-14,5,3190,-24,5
1192,-10,5,3191,-24,5
1193,-7,5,3192,-23,5
1194,-5,5,3193,-22,5
1195,-4,5,3194,-19,5
1196,-2,5,3195,-7,5
1197,-1,5,3196,10,5
1198,0,5,3197,24,5
1199,1,5,3198,31,5
1200,3,5,3199,31,5
1201,3,5,3200,31,5
1202,3,5,3201,31,5
1203,3,5,3202,31,5
1204,4,5,3203,18,5
1205,4,5,3204,-9,5
1206,3,5,3205,-36,5
1207,4,5,3206,-63,5
1208,4,5,3207,-94,5
1209,5,5,3208,-115,5
1210,6,5,3209,-115,5
1211,6,5,3210,-115,5
1212,5,5,3211,-115,5
1213,5,5,3212,-115,5
1214,6,5,3213,-115,5
1215,7,5,3214,-115,5
1216,7,5,3215,-115,5
1217,7,5,3216,-115,5
1218,7,5,3217,-115,5
1219,7,5,3218,-115,5
1220,7,5,3219,-102,5
1221,6,5,3220,-82,5
1222,6,5,3221,-66,5
1223,6,5,3222,-51,5
1224,6,5,3223,-40,5
1225,7,5,3224,-33,5
1226,8,5,3225,-26,5
1227,9,5,3226,-20,5
1228,10,5,3227,-16,5
1229,10,5,3228,-12,5
1230,11,5,3229,-7,5
1231,12,5,3230,-5,5
1232,11,5,3231,-4,5
1233,11,5,3232,-1,5
1234,10,5,3233,2,5
1235,11,5,3234,3,5
1236,11,5,3235,3,5
1237,13,5,3236,4,5
1238,12,5,3237,4,5
1239,11,5,3238,5,5
1240,11,5,3239,5,5
1241,13,5,3240,5,5
1242,13,5,3241,4,5
1243,13,5,3242,4,5
1244,15,5,3243,6,5
1245,15,5,3244,6,5
1246,15,5,3245,7,5
1247,14,5,3246,9,5
1248,14,5,3247,10,5
1249,14,5,3248,10,5
1250,16,5,3249,10,5
1251,17,5,3250,10,5
1252,18,5,3251,8,5
1253,19,5,3252,8,5
1254,19,5,3253,8,5
1255,20,5,3254,9,5
1256,20,5,3255,11,5
1257,21,5,3256,11,5
1258,20,5,3257,11,5
1259,20,5,3258,10,5
1260,22,5,3259,10,5
1261,25,5,3260,10,5
1262,27,5,3261,11,5
1263,27,5,3262,13,5
1264,29,5,3263,14,5
1265,26,5,3264,14,5
1266,26,5,3265,15,5
1267,26,5,3266,16,5
1268,25,5,3267,15,5
1269,24,5,3268,12,5
1270,26,5,3269,13,5
1271,27,5,3270,15,5
1272,28,5,3271,14,5
1273,28,5,3272,14,5
1274,29,5,3273,16,5
1275,30,5,3274,17,5
1276,30,5,3275,16,5
1277,31,5,3276,16,5
1278,31,5,3277,17,5
1279,31,5,3278,17,5
1280,31,5,3279,18,5
1281,31,5,3280,19,5
1282,31,5,3281,18,5
1283,31,5,3282,19,5
1284,31,5,3283,19,5
1285,31,5,3284,19,5
1286,31,5,3285,20,5
1287,31,5,3286,20,5
1288,31,5,3287,21,5
1289,31,5,3288,20,5
1290,31,5,3289,19,5
1291,31,5,3290,19,5
1292,31,5,3291,21,5
1293,31,5,3292,23,5
1294,31,5,3293,24,5
1295,31,5,3294,24,5
1296,31,5,3295,25,5
1297,31,5,3296,25,5
1298,31,5,3297,26,5
1299,31,5,3298,27,5
1300,31,5,3299,28,5
1301,31,5,3300,29,5
1302,31,5,3301,28,5
1303,31,5,3302,28,5
1304,31,5,3303,28,5
1305,31,5,3304,29,5
1306,31,5,3305,31,5
1307,31,5,3306,31,5
1308,31,5,3307,31,5
1309,31,5,3308,31,5
1310,31,5,3309,31,5
1311,31,5,3310,31,5
1312,31,5,3311,31,5
1313,29,5,3312,31,5
1314,27,5,3313,31,5
1315,25,5,3314,31,5
1316,24,5,3315,31,5
1317,24,5,3316,31,5
1318,21,5,3317,31,5
1319,19,5,3318,31,5
1320,16,5,3319,31,5
1321,14,5,3320,31,5
1322,12,5,3321,31,5
1323,10,5,3322,31,5
1324,8,5,3323,31,5
1325,6,5,3324,31,5
1326,3,5,3325,31,5
1327,1,5,3326,31,5
1328,0,5,3327,31,5
1329,-2,5,3328,31,5
1330,-3,5,3329,31,5
1331,-4,5,3330,31,5
1332,-4,5,3331,31,5
1333,-3,5,3332,31,5
1334,-4,5,3333,31,5
1335,-6,5,3334,31,5
1336,-6,5,3335,31,5
1337,-7,5,3336,31,5
1338,-7,5,3337,31,5
1339,-8,5,3338,31,5
1340,-10,5,3339,31,5
1341,-10,5,3340,31,5
1342,-11,5,3341,31,5
1343,-12,5,3342,31,5
1344,-12,5,3343,31,5
1345,-12,5,3344,31,5
1346,-11,5,3345,31,5
1347,-12,5,3346,31,5
1348,-13,5,3347,31,5
1349,-14,5,3348,31,5
1350,-15,5,3349,31,5
1351,-16,5,3350,31,5
1352,-14,5,3351,31,5
1353,-14,5,3352,31,5
1354,-13,5,3353,31,5
1355,-12,5,3354,31,5
1356,-13,5,3355,29,5
1357,-13,5,3356,27,5
1358,-12,5,3357,25,5
1359,-12,5,3358,24,5
1360,-11,5,3359,22,5
1361,-12,5,3360,19,5
1362,-13,5,3361,16,5
1363,-14,5,3362,12,5
1364,-13,5,3363,8,5
1365,-13,5,3364,5,5
1366,-13,5,3365,5,5
1367,-13,5,3366,3,5
1368,-15,5,3367,1,5
1369,-14,5,3368,-1,5
1370,-14,5,3369,-3,5
1371,-14,5,3370,-3,5
1372,-14,5,3371,-3,5
1373,-14,5,3372,-4,5
1374,-13,5,3373,-4,5
1375,-14,5,3374,-5,5
1376,-14,5,3375,-7,5
1377,-12,5,3376,-7,5
1378,-10,5,3377,-10,5
1379,-10,5,3378,-11,5
1380,-10,5,3379,-10,5
1381,-9,5,3380,-9,5
1382,-8,5,3381,-8,5
1383,-7,5,3382,-9,5
1384,-7,5,3383,-11,5
1385,-6,5,3384,-11,5
1386,-6,5,3385,-11,5
1387,-8,5,3386,-12,5
1388,-9,5,3387,-14,5
1389,-9,5,3388,-14,5
1390,-8,5,3389,-13,5
1391,-9,5,3390,-13,5
1392,-10,5,3391,-14,5
1393,-10,5,3392,-14,5
1394,-11,5,3393,-15,5
1395,-9,5,3394,-16,5
1396,-8,5,3395,-16,5
1397,-9,5,3396,-16,5
1398,-8,5,3397,-15,5
1399,-8,5,3398,-14,5
1400,-9,5,3399,-13,5
1401,-10,5,3400,-12,5
1402,-11,5,3401,-13,5
1403,-12,5,3402,-12,5
1404,-12,5,3403,-12,5
1405,-11,5,3404,-12,5
1406,-11,5,3405,-11,5
1407,-13,5,3406,-12,5
1408,-12,5,3407,-12,5
1409,-11,5,3408,-12,5
1410,-10,5,3409,-12,5
1411,-10,5,3410,-12,5
1412,-10,5,3411,-12,5
1413,-9,5,3412,-12,5
1414,-9,5,3413,-13,5
1415,-9,5,3414,-13,5
1416,-12,5,3415,-11,5
1417,-14,5,3416,-10,5
1418,-13,5,3417,-10,5
1419,-14,5,3418,-10,5
1420,-13,5,3419,-10,5
1421,-12,5,3420,-9,5
1422,-11,5,3421,-8,5
1423,-10,5,3422,-8,5
1424,-9,5,3423,-7,5
1425,-10,5,3424,-9,5
1426,-9,5,3425,-10,5
1427,-9,5,3426,-10,5
1428,-9,5,3427,-10,5
1429,-9,5,3428,-10,5
1430,-9,5,3429,-9,5
1431,-11,5,3430,-9,5
1432,-11,5,3431,-8,5
1433,-11,5,3432,-8,5
1434,-11,5,3433,-8,5
1435,-13,5,3434,-7,5
1436,-13,5,3435,-7,5
1437,-13,5,3436,-9,5
1438,-14,5,3437,-10,5
1439,-14,5,3438,-10,5
1440,-14,5,3439,-10,5
1441,-14,5,3440,-10,5
1442,-14,5,3441,-9,5
1443,-13,5,3442,-8,5
1444,-12,5,3443,-9,5
1445,-14,5,3444,-9,5
1446,-15,5,3445,-9,5
1447,-16,5,3446,-9,5
1448,-15,5,3447,-10,5
1449,-14,5,3448,-9,5
1450,-14,5,3449,-9,5
1451,-13,5,3450,-9,5
1452,-13,5,3451,-9,5
1453,-13,5,3452,-11,5
1454,-15,5,3453,-11,5
1455,-15,5,3454,-11,5
1456,-15,5,3455,-11,5
1457,-14,5,3456,-11,5
1458,-13,5,3457,-12,5
1459,-13,5,3458,-12,5
1460,-14,5,3459,-13,5
1461,-16,5,3460,-14,5
1462,-17,5,3461,-14,5
1463,-16,5,3462,-12,5
1464,-15,5,3463,-11,5
1465,-15,5,3464,-11,5
1466,-15,5,3465,-11,5
1467,-15,5,3466,-12,5
1468,-15,5,3467,-12,5
1469,-16,5,3468,-13,5
1470,-18,5,3469,-14,5
1471,-19,5,3470,-15,5
1472,-19,5,3471,-15,5
1473,-18,5,3472,-14,5
1474,-16,5,3473,-12,5
1475,-15,5,3474,-12,5
1476,-15,5,3475,-12,5
1477,-14,5,3476,-13,5
1478,-15,5,3477,-13,5
1479,-15,5,3478,-15,5
1480,-15,5,3479,-15,5
1481,-15,5,3480,-14,5
1482,-16,5,3481,-13,5
1483,-17,5,3482,-14,5
1484,-17,5,3483,-15,5
1485,-18,5,3484,-16,5
1486,-18,5,3485,-16,5
1487,-17,5,3486,-15,5
1488,-17,5,3487,-15,5
1489,-17,5,3488,-15,5
1490,-17,5,3489,-17,5
1491,-17,5,3490,-18,5
1492,-18,5,3491,-18,5
1493,-19,5,3492,-19,5
1494,-19,5,3493,-20,5
1495,-19,5,3494,-18,5
1496,-19,5,3495,-16,5
1497,-20,5,3496,-14,5
1498,-20,5,3497,-13,5
1499,-18,5,3498,-13,5
1500,-16,5,3499,-15,5
1501,-16,5,3500,-17,5
1502,-17,5,3501,-17,5
1503,-17,5,3502,-17,5
1504,-15,5,3503,-17,5
1505,-15,5,3504,-17,5
1506,-16,5,3505,-18,5
1507,-18,5,3506,-18,5
1508,-20,5,3507,-18,5
1509,-21,5,3508,-18,5
1510,-21,5,3509,-18,5
1511,-20,5,3510,-20,5
1512,-21,5,3511,-19,5
1513,-20,5,3512,-18,5
1514,-20,5,3513,-17,5
1515,-19,5,3514,-18,5
1516,-19,5,3515,-19,5
1517,-19,5,3516,-18,5
1518,-20,5,3517,-18,5
1519,-20,5,3518,-17,5
1520,-20,5,3519,-17,5
1521,-20,5,3520,-17,5
1522,-20,5,3521,-17,5
1523,-21,5,3522,-18,5
1524,-20,5,3523,-18,5
1525,-20,5,3524,-18,5
1526,-21,5,3525,-18,5
1527,-22,5,3526,-18,5
1528,-22,5,3527,-17,5
1529,-22,5,3528,-17,5
1530,-22,5,3529,-17,5
1531,-21,5,3530,-18,5
1532,-20,5,3531,-17,5
1533,-21,5,3532,-17,5
1534,-22,5,3533,-19,5
1535,-24,5,3534,-20,5
1536,-24,5,3535,-20,5
1537,-22,5,3536,-20,5
1538,-22,5,3537,-20,5
1539,-22,5,3538,-20,5
1540,-22,5,3539,-20,5
1541,-24,5,3540,-21,5
1542,-24,5,3541,-21,5
1543,-23,5,3542,-22,5
1544,-23,5,3543,-22,5
1545,-24,5,3544,-22,5
1546,-24,5,3545,-21,5
1547,-23,5,3546,-20,5
1548,-22,5,3547,-18,5
1549,-24,5,3548,-18,5
1550,-25,5,3549,-18,5
1551,-25,5,3550,-17,5
1552,-25,5,3551,-17,5
1553,-25,5,3552,-18,5
1554,-27,5,3553,-19,5
1555,-26,5,3554,-19,5
1556,-24,5,3555,-19,5
1557,-23,5,3556,-18,5
1558,-24,5,3557,-18,5
1559,-23,5,3558,-18,5
1560,-23,5,3559,-17,5
1561,-22,5,3560,-18,5
1562,-22,5,3561,-20,5
1563,-22,5,3562,-21,5
1564,-21,5,3563,-19,5
1565,-21,5,3564,-19,5
1566,-22,5,3565,-18,5
1567,-22,5,3566,-18,5
1568,-22,5,3567,-18,5
1569,-21,5,3568,-17,5
1570,-20,5,3569,-18,5
1571,-20,5,3570,-18,5
1572,-19,5,3571,-18,5
1573,-20,5,3572,-18,5
1574,-22,5,3573,-18,5
1575,-22,5,3574,-19,5
1576,-21,5,3575,-19,5
1577,-21,5,3576,-19,5
1578,-21,5,3577,-18,5
1579,-20,5,3578,-18,5
1580,-19,5,3579,-20,5
1581,-18,5,3580,-21,5
1582,-18,5,3581,-21,5
1583,-16,5,3582,-21,5
1584,-14,5,3583,-21,5
1585,-11,5,3584,-20,5
1586,-8,5,3585,-20,5
1587,-7,5,3586,-19,5
1588,-7,5,3587,-19,5
1589,-7,5,3588,-19,5
1590,-6,5,3589,-19,5
1591,-5,5,3590,-19,5
1592,-4,5,3591,-19,5
1593,-4,5,3592,-18,5
1594,-5,5,3593,-18,5
1595,-7,5,3594,-18,5
1596,-9,5,3595,-19,5
1597,-10,5,3596,-20,5
1598,-12,5,3597,-21,5
1599,-16,5,3598,-19,5
1600,-20,5,3599,-19,5
1601,-23,5,3600,-19,5
1602,-25,5,3601,-19,5
1603,-27,5,3602,-19,5
1604,-29,5,3603,-21,5
1605,-30,5,3604,-21,5
1606,-30,5,3605,-19,5
1607,-30,5,3606,-19,5
1608,-31,5,3607,-19,5
1609,-32,5,3608,-18,5
1610,-34,5,3609,-18,5
1611,-33,5,3610,-19,5
1612,-32,5,3611,-20,5
1613,-33,5,3612,-22,5
1614,-32,5,3613,-22,5
1615,-31,5,3614,-22,5
1616,-30,5,3615,-21,5
1617,-29,5,3616,-21,5
1618,-27,5,3617,-20,5
1619,-27,5,3618,-19,5
1620,-28,5,3619,-17,5
1621,-27,5,3620,-18,5
1622,-26,5,3621,-20,5
1623,-26,5,3622,-19,5
1624,-26,5,3623,-18,5
1625,-26,5,3624,-18,5
1626,-25,5,3625,-18,5
1627,-25,5,3626,-18,5
1628,-25,5,3627,-17,5
1629,-25,5,3628,-16,5
1630,-25,5,3629,-14,5
1631,-25,5,3630,-15,5
1632,-26,5,3631,-17,5
1633,-27,5,3632,-16,5
1634,-27,5,3633,-13,5
1635,-26,5,3634,-10,5
1636,-25,5,3635,-7,5
1637,-25,5,3636,-6,5
1638,-26,5,3637,-6,5
1639,-27,5,3638,-6,5
1640,-26,5,3639,-6,5
1641,-26,5,3640,-5,5
1642,-26,5,3641,-3,5
1643,-26,5,3642,-2,5
1644,-27,5,3643,-1,5
1645,-27,5,3644,-1,5
1646,-27,5,3645,-2,5
1647,-26,5,3646,-1,5
1648,-25,5,3647,-1,5
1649,-24,5,3648,-5,5
1650,-22,5,3649,-6,5
1651,-21,5,3650,-9,5
1652,-21,5,3651,-11,5
1653,-21,5,3652,-14,5
1654,-21,5,3653,-17,5
1655,-21,5,3654,-21,5
1656,-21,5,3655,-25,5
1657,-20,5,3656,-28,5
1658,-19,5,3657,-28,5
1659,-12,5,3658,-28,5
1660,0,5,3659,-28,5
1661,14,5,3660,-28,5
1662,25,5,3661,-29,5
1663,31,5,3662,-30,5
1664,31,5,3663,-31,5
1665,31,5,3664,-31,5
1666,31,5,3665,-30,5
1667,31,5,3666,-28,5
1668,9,5,3667,-27,5
1669,-17,5,3668,-24,5
1670,-44,5,3669,-23,5
1671,-74,5,3670,-22,5
1672,-110,5,3671,-22,5
1673,-115,5,3672,-21,5
1674,-115,5,3673,-21,5
1675,-115,5,3674,-21,5
1676,-115,5,3675,-22,5
1677,-115,5,3676,-22,5
1678,-115,5,3677,-22,5
1679,-115,5,3678,-22,5
1680,-115,5,3679,-23,5
1681,-115,5,3680,-26,5
1682,-115,5,3681,-27,5
1683,-105,5,3682,-27,5
1684,-85,5,3683,-27,5
1685,-69,5,3684,-26,5
1686,-55,5,3685,-25,5
1687,-43,5,3686,-25,5
1688,-34,5,3687,-25,5
1689,-26,5,3688,-25,5
1690,-19,5,3689,-24,5
1691,-14,5,3690,-23,5
1692,-11,5,3691,-22,5
1693,-8,5,3692,-22,5
1694,-4,5,3693,-22,5
1695,-3,5,3694,-23,5
1696,-3,5,3695,-24,5
1697,-2,5,3696,-23,5
1698,-1,5,3697,-23,5
1699,0,5,3698,-23,5
1700,0,5,3699,-24,5
1701,0,5,3700,-24,5
1702,2,5,3701,-24,5
1703,3,5,3702,-23,5
1704,5,5,3703,-24,5
1705,7,5,3704,-23,5
1706,7,5,3705,-23,5
1707,9,5,3706,-23,5
1708,10,5,3707,-22,5
1709,10,5,3708,-22,5
1710,9,5,3709,-22,5
1711,8,5,3710,-18,5
1712,7,5,3711,-9,5
1713,7,5,3712,6,5
1714,7,5,3713,24,5
1715,7,5,3714,31,5
1716,7,5,3715,31,5
1717,7,5,3716,31,5
1718,7,5,3717,31,5
1719,9,5,3718,31,5
1720,10,5,3719,25,5
1721,11,5,3720,3,5
1722,11,5,3721,-15,5
1723,11,5,3722,-41,5
1724,11,5,3723,-76,5
1725,11,5,3724,-112,5
1726,12,5,3725,-115,5
1727,12,5,3726,-115,5
1728,11,5,3727,-115,5
1729,11,5,3728,-115,5
1730,13,5,3729,-115,5
1731,14,5,3730,-115,5
1732,15,5,3731,-115,5
1733,16,5,3732,-115,5
1734,16,5,3733,-115,5
1735,14,5,3734,-113,5
1736,14,5,3735,-93,5
1737,13,5,3736,-75,5
1738,13,5,3737,-59,5
1739,15,5,3738,-47,5
1740,14,5,3739,-35,5
1741,14,5,3740,-26,5
1742,15,5,3741,-20,5
1743,17,5,3742,-17,5
1744,16,5,3743,-14,5
1745,14,5,3744,-12,5
1746,15,5,3745,-8,5
1747,17,5,3746,-6,5
1748,18,5,3747,-2,5
1749,17,5,3748,0,5
1750,17,5,3749,1,5
1751,18,5,3750,3,5
1752,18,5,3751,3,5
1753,19,5,3752,2,5
1754,19,5,3753,2,5
1755,19,5,3754,3,5
1756,20,5,3755,5,5
1757,21,5,3756,5,5
1758,22,5,3757,4,5
1759,23,5,3758,3,5
1760,24,5,3759,2,5
1761,25,5,3760,2,5
1762,24,5,3761,3,5
1763,25,5,3762,3,5
1764,25,5,3763,5,5
1765,26,5,3764,6,5
1766,27,5,3765,6,5
1767,28,5,3766,6,5
1768,29,5,3767,6,5
1769,30,5,3768,6,5
1770,31,5,3769,7,5
1771,31,5,3770,8,5
1772,31,5,3771,7,5
1773,31,5,3772,7,5
1774,31,5,3773,5,5
1775,31,5,3774,5,5
1776,31,5,3775,7,5
1777,31,5,3776,9,5
1778,31,5,3777,10,5
1779,31,5,3778,11,5
1780,31,5,3779,11,5
1781,31,5,3780,11,5
1782,31,5,3781,10,5
1783,31,5,3782,9,5
1784,31,5,3783,8,5
1785,31,5,3784,8,5
1786,31,5,3785,9,5
1787,31,5,3786,9,5
1788,31,5,3787,10,5
1789,31,5,3788,12,5
1790,31,5,3789,12,5
1791,31,5,3790,13,5
1792,31,5,3791,13,5
1793,31,5,3792,14,5
1794,31,5,3793,14,5
1795,31,5,3794,15,5
1796,31,5,3795,15,5
1797,31,5,3796,15,5
1798,31,5,3797,16,5
1799,31,5,3798,16,5
1800,31,5,3799,17,5
1801,31,5,3800,17,5
1802,31,5,3801,18,5
1803,31,5,3802,19,5
1804,31,5,3803,19,5
1805,31,5,3804,21,5
1806,31,5,3805,23,5
1807,31,5,3806,23,5
1808,31,5,3807,21,5
1809,31,5,3808,20,5
1810,31,5,3809,20,5
1811,31,5,3810,21,5
1812,31,5,3811,23,5
1813,31,5,3812,22,5
1814,31,5,3813,21,5
1815,31,5,3814,21,5
1816,31,5,3815,22,5
1817,31,5,3816,23,5
1818,30,5,3817,22,5
1819,29,5,3818,23,5
1820,26,5,3819,23,5
1821,23,5,3820,25,5
1822,19,5,3821,26,5
1823,16,5,3822,27,5
1824,15,5,3823,29,5
1825,13,5,3824,30,5
1826,11,5,3825,31,5
1827,8,5,3826,31,5
1828,6,5,3827,31,5
1829,4,5,3828,31,5
1830,3,5,3829,31,5
1831,2,5,3830,31,5
1832,1,5,3831,31,5
1833,0,5,3832,31,5
1834,-2,5,3833,31,5
1835,-2,5,3834,31,5
1836,-3,5,3835,31,5
1837,-4,5,3836,31,5
1838,-5,5,3837,31,5
1839,-7,5,3838,31,5
1840,-7,5,3839,31,5
1841,-8,5,3840,31,5
1842,-8,5,3841,31,5
1843,-8,5,3842,31,5
1844,-9,5,3843,31,5
1845,-10,5,3844,31,5
1846,-11,5,3845,31,5
1847,-10,5,3846,31,5
1848,-10,5,3847,31,5
1849,-9,5,3848,31,5
1850,-8,5,3849,31,5
1851,-9,5,3850,31,5
1852,-9,5,3851,31,5
1853,-9,5,3852,31,5
1854,-11,5,3853,31,5
1855,-13,5,3854,31,5
1856,-11,5,3855,31,5
1857,-10,5,3856,31,5
1858,-10,5,3857,31,5
1859,-10,5,3858,31,5
1860,-9,5,3859,31,5
1861,-9,5,3860,31,5
1862,-10,5,3861,31,5
1863,-11,5,3862,31,5
1864,-12,5,3863,30,5
1865,-13,5,3864,29,5
1866,-13,5,3865,28,5
1867,-13,5,3866,26,5
1868,-12,5,3867,26,5
1869,-12,5,3868,25,5
1870,-12,5,3869,22,5
1871,-11,5,3870,19,5
1872,-10,5,3871,17,5
1873,-9,5,3872,14,5
1874,-10,5,3873,12,5
1875,-10,5,3874,9,5
1876,-9,5,3875,8,5
1877,-9,5,3876,7,5
1878,-9,5,3877,5,5
1879,-10,5,3878,3,5
1880,-11,5,3879,1,5
1881,-10,5,3880,0,5
1882,-9,5,3881,-1,5
1883,-10,5,3882,-2,5
1884,-10,5,3883,-3,5
1885,-10,5,3884,-4,5
1886,-9,5,3885,-5,5
1887,-9,5,3886,-7,5
1888,-9,5,3887,-8,5
1889,-8,5,3888,-8,5
1890,-8,5,3889,-10,5
1891,-9,5,3890,-10,5
1892,-11,5,3891,-10,5
1893,-10,5,3892,-10,5
1894,-9,5,3893,-11,5
1895,-9,5,3894,-11,5
1896,-8,5,3895,-12,5
1897,-8,5,3896,-14,5
1898,-8,5,3897,-15,5
1899,-8,5,3898,-15,5
1900,-9,5,3899,-15,5
1901,-9,5,3900,-16,5
1902,-9,5,3901,-18,5
1903,-9,5,3902,-16,5
1904,-8,5,3903,-16,5
1905,-8,5,3904,-14,5
1906,-8,5,3905,-11,5
1907,-8,5,3906,-10,5
1908,-8,5,3907,-10,5
1909,-9,5,3908,-12,5
1910,-9,5,3909,-13,5
1911,-9,5,3910,-13,5
1912,-8,5,3911,-14,5
1913,-8,5,3912,-14,5
1914,-8,5,3913,-14,5
1915,-10,5,3914,-16,5
1916,-11,5,3915,-16,5
1917,-11,5,3916,-15,5
1918,-12,5,3917,-15,5
1919,-11,5,3918,-15,5
1920,-11,5,3919,-14,5
1921,-10,5,3920,-13,5
1922,-8,5,3921,-12,5
1923,-8,5,3922,-12,5
1924,-9,5,3923,-12,5
1925,-9,5,3924,-12,5
1926,-9,5,3925,-12,5
1927,-9,5,3926,-12,5
1928,-9,5,3927,-13,5
1929,-10,5,3928,-13,5
1930,-10,5,3929,-13,5
1931,-10,5,3930,-13,5
1932,-11,5,3931,-13,5
1933,-13,5,3932,-13,5
1934,-14,5,3933,-13,5
1935,-15,5,3934,-12,5
1936,-15,5,3935,-11,5
1937,-15,5,3936,-10,5
1938,-13,5,3937,-11,5
1939,-12,5,3938,-13,5
1940,-12,5,3939,-13,5
1941,-13,5,3940,-12,5
1942,-12,5,3941,-11,5
1943,-11,5,3942,-10,5
1944,-11,5,3943,-11,5
1945,-11,5,3944,-12,5
1946,-12,5,3945,-12,5
1947,-14,5,3946,-12,5
1948,-15,5,3947,-11,5
1949,-14,5,3948,-10,5
1950,-12,5,3949,-10,5
1951,-11,5,3950,-11,5
1952,-11,5,3951,-13,5
1953,-13,5,3952,-13,5
1954,-16,5,3953,-13,5
1955,-16,5,3954,-12,5
1956,-16,5,3955,-11,5
1957,-17,5,3956,-12,5
1958,-17,5,3957,-12,5
1959,-17,5,3958,-11,5
1960,-17,5,3959,-11,5
1961,-18,5,3960,-11,5
1962,-16,5,3961,-11,5
1963,-15,5,3962,-11,5
1964,-15,5,3963,-11,5
1965,-14,5,3964,-11,5
1966,-13,5,3965,-12,5
1967,-14,5,3966,-11,5
1968,-15,5,3967,-10,5
1969,-15,5,3968,-10,5
1970,-15,5,3969,-10,5
1971,-15,5,3970,-10,5
1972,-15,5,3971,-11,5
1973,-15,5,3972,-12,5
1974,-17,5,3973,-12,5
1975,-17,5,3974,-13,5
1976,-16,5,3975,-13,5
1977,-15,5,3976,-12,5
1978,-15,5,3977,-13,5
1979,-14,5,3978,-14,5
1980,-14,5,3979,-13,5
1981,-14,5,3980,-12,5
1982,-13,5,3981,-11,5
1983,-13,5,3982,-10,5
1984,-15,5,3983,-11,5
1985,-15,5,3984,-11,5
1986,-16,5,3985,-12,5
1987,-16,5,3986,-14,5
1988,-16,5,3987,-15,5
1989,-15,5,3988,-15,5
1990,-15,5,3989,-14,5
1991,-15,5,3990,-14,5
1992,-15,5,3991,-14,5
1993,-15,5,3992,-15,5
1994,-15,5,3993,-16,5
1995,-16,5,3994,-15,5
1996,-15,5,3995,-15,5
1997,-16,5,3996,-14,5
1998,-15,5,3997,-14,5
1999,-15,5,3998,-16,5
2000,-17,5,3999,-16,5
2001,-17,5,4000,-16,5
2002,-18,5,4001,-16,5
2003,-17,5,4002,-15,5
2004,-18,5,4003,-15,5
2005,-19,5,4004,-15,5
2006,-18,5,4005,-15,5
2007,-17,5,4006,-16,5
2008,-17,5,4007,-18,5
2009,-18,5,4008,-18,5
2010,-18,5,4009,-17,5
2011,-17,5,4010,-16,5
2012,-15,5,4011,-14,5
2013,-15,5,4012,-14,5
2014,-15,5,4013,-14,5
2015,-16,5,4014,-15,5
2016,-16,5,4015,-16,5
2017,-17,5,4016,-16,5
2018,-17,5,4017,-16,5
2019,-18,5,4018,-16,5
2020,-18,5,4019,-16,5
2021,-19,5,4020,-15,5
2022,-17,5,4021,-16,5
2023,-17,5,4022,-17,5
2024,-16,5,4023,-17,5
2025,-16,5,4024,-18,5
2026,-17,5,4025,-18,5
2027,-17,5,4026,-18,5
2028,-16,5,4027,-17,5
2029,-16,5,4028,-17,5
2030,-16,5,4029,-16,5
2031,-15,5,4030,-16,5
2032,-15,5,4031,-17,5
2033,-15,5,4032,-17,5
2034,-16,5,4033,-16,5
2035,-16,5,4034,-15,5
2036,-15,5,4035,-15,5
2037,-15,5,4036,-16,5
2038,-16,5,4037,-17,5
2039,-18,5,4038,-16,5
2040,-19,5,4039,-17,5
2041,-19,5,4040,-18,5
2042,-20,5,4041,-18,5
2043,-19,5,4042,-19,5
2044,-17,5,4043,-19,5
2045,-16,5,4044,-20,5
2046,-15,5,4045,-18,5
2047,-15,5,4046,-17,5
2048,-16,5,4047,-16,5
2049,-17,5,4048,-17,5
2050,-18,5,4049,-17,5
2051,-19,5,4050,-16,5
2052,-20,5,4051,-16,5
2053,-20,5,4052,-17,5
2054,-19,5,4053,-17,5
2055,-17,5,4054,-17,5
2056,-16,5,4055,-17,5
2057,-16,5,4056,-18,5
2058,-15,5,4057,-18,5
2059,-15,5,4058,-17,5
2060,-16,5,4059,-16,5
2061,-17,5,4060,-16,5
2062,-18,5,4061,-16,5
2063,-19,5,4062,-16,5
2064,-18,5,4063,-16,5
2065,-16,5,4064,-17,5
2066,-16,5,4065,-17,5
2067,-17,5,4066,-16,5
2068,-17,5,4067,-16,5
2069,-17,5,4068,-15,5
2070,-17,5,4069,-16,5
2071,-16,5,4070,-18,5
2072,-16,5,4071,-20,5
2073,-16,5,4072,-21,5
2074,-15,5,4073,-22,5
2075,-17,5,4074,-22,5
2076,-16,5,4075,-22,5
2077,-14,5,4076,-22,5
2078,-13,5,4077,-23,5
2079,-13,5,4078,-22,5
2080,-12,5,4079,-20,5
2081,-12,5,4080,-19,5
2082,-13,5,4081,-17,5
2083,-14,5,4082,-17,5
2084,-14,5,4083,-17,5
2085,-14,5,4084,-18,5
2086,-14,5,4085,-18,5
2087,-14,5,4086,-18,5
2088,-15,5,4087,-18,5
2089,-16,5,4088,-17,5
2090,-16,5,4089,-17,5
2091,-15,5,4090,-17,5
2092,-14,5,4091,-17,5
2093,-14,5,4092,-17,5
2094,-14,5,4093,-16,5
2095,-12,5,4094,-16,5
2096,-11,5,4095,-17,5
2097,-9,5,4096,-18,5
2098,-8,5,4097,-19,5
2099,-7,5,4098,-20,5
2100,-7,5,4099,-20,5
2101,-6,5,4100,-20,5
2102,-4,5,4101,-20,5
2103,-3,5,4102,-22,5
2104,-2,5,4103,-22,5
2105,-1,5,4104,-20,5
2106,0,5,4105,-20,5
2107,2,5,4106,-19,5
2108,3,5,4107,-19,5
2109,3,5,4108,-18,5
2110,1,5,4109,-15,5
2111,-2,5,4110,-14,5
2112,-4,5,4111,-17,5
2113,-6,5,4112,-19,5
2114,-8,5,4113,-20,5
2115,-9,5,4114,-22,5
2116,-12,5,4115,-21,5
2117,-15,5,4116,-20,5
2118,-17,5,4117,-20,5
2119,-20,5,4118,-20,5
2120,-22,5,4119,-19,5
2121,-24,5,4120,-19,5
2122,-25,5,4121,-19,5
2123,-26,5,4122,-19,5
2124,-28,5,4123,-20,5
2125,-29,5,4124,-20,5
2126,-29,5,4125,-20,5
2127,-27,5,4126,-19,5
2128,-25,5,4127,-19,5
2129,-24,5,4128,-20,5
2130,-23,5,4129,-21,5
2131,-22,5,4130,-20,5
2132,-22,5,4131,-19,5
2133,-21,5,4132,-18,5
2134,-19,5,4133,-16,5
2135,-19,5,4134,-14,5
2136,-20,5,4135,-14,5
2137,-20,5,4136,-14,5
2138,-21,5,4137,-13,5
2139,-20,5,4138,-12,5
2140,-19,5,4139,-9,5
2141,-18,5,4140,-7,5
2142,-18,5,4141,-6,5
2143,-18,5,4142,-6,5
2144,-19,5,4143,-4,5
2145,-21,5,4144,-3,5
2146,-21,5,4145,-3,5
2147,-21,5,4146,-3,5
2148,-22,5,4147,-4,5
2149,-22,5,4148,-4,5
2150,-22,5,4149,-4,5
2151,-21,5,4150,-4,5
2152,-21,5,4151,-6,5
2153,-21,5,4152,-7,5
2154,-21,5,4153,-10,5
2155,-21,5,4154,-12,5
2156,-22,5,4155,-14,5
2157,-22,5,4156,-17,5
2158,-22,5,4157,-20,5
2159,-22,5,4158,-21,5
2160,-22,5,4159,-25,5
2161,-22,5,4160,-29,5
2162,-20,5,4161,-31,5
2163,-20,5,4162,-31,5
2164,-20,5,4163,-33,5
2165,-21,5,4164,-34,5
2166,-19,5,4165,-33,5
2167,-17,5,4166,-32,5
2168,-17,5,4167,-30,5
2169,-18,5,4168,-29,5
2170,-20,5,4169,-29,5
2171,-21,5,4170,-29,5
2172,-20,5,4171,-27,5
2173,-18,5,4172,-26,5
2174,-15,5,4173,-24,5
2175,-5,5,4174,-22,5
2176,10,5,4175,-22,5
2177,24,5,4176,-22,5
2178,31,5,4177,-23,5
2179,31,5,4178,-24,5
2180,31,5,4179,-24,5
2181,31,5,4180,-24,5
2182,31,5,4181,-25,5
2183,31,5,4182,-25,5
2184,11,5,4183,-26,5
2185,-14,5,4184,-27,5
2186,-40,5,4185,-26,5
2187,-70,5,4186,-26,5
2188,-108,5,4187,-26,5
2189,-115,5,4188,-25,5
2190,-115,5,4189,-25,5
2191,-115,5,4190,-25,5
2192,-115,5,4191,-25,5
2193,-115,5,4192,-26,5
2194,-115,5,4193,-25,5
2195,-115,5,4194,-24,5
2196,-115,5,4195,-24,5
2197,-115,5,4196,-23,5
2198,-115,5,4197,-23,5
2199,-102,5,4198,-22,5
2200,-83,5,4199,-22,5
2201,-67,5,4200,-21,5
2202,-51,5,4201,-19,5
2203,-39,5,4202,-19,5
2204,-29,5,4203,-20,5
2205,-22,5,4204,-22,5
2206,-17,5,4205,-24,5
2207,-13,5,4206,-23,5
2208,-9,5,4207,-21,5
2209,-6,5,4208,-21,5
2210,-3,5,4209,-21,5
2211,-1,5,4210,-21,5
2212,1,5,4211,-22,5
2213,3,5,4212,-22,5
2214,4,5,4213,-21,5
2215,5,5,4214,-16,5
2216,5,5,4215,-4,5
2217,5,5,4216,10,5
2218,6,5,4217,22,5
2219,6,5,4218,31,5
2220,6,5,4219,31,5
2221,8,5,4220,31,5
2222,10,5,4221,31,5
2223,10,5,4222,31,5
2224,11,5,4223,14,5
2225,11,5,4224,-10,5
2226,10,5,4225,-33,5
2227,10,5,4226,-59,5
2228,10,5,4227,-92,5
2229,10,5,4228,-115,5
2230,11,5,4229,-115,5
2231,12,5,4230,-115,5
2232,14,5,4231,-115,5
2233,14,5,4232,-115,5
2234,14,5,4233,-115,5
2235,14,5,4234,-115,5
2236,14,5,4235,-115,5
2237,13,5,4236,-115,5
2238,14,5,4237,-115,5
2239,13,5,4238,-114,5
2240,13,5,4239,-94,5
2241,14,5,4240,-76,5
2242,15,5,4241,-59,5
2243,15,5,4242,-47,5
2244,14,5,4243,-37,5
2245,15,5,4244,-29,5
2246,16,5,4245,-23,5
2247,18,5,4246,-20,5
2248,18,5,4247,-15,5
2249,17,5,4248,-9,5
2250,16,5,4249,-6,5
2251,16,5,4250,-4,5
2252,15,5,4251,-3,5
2253,16,5,4252,-3,5
2254,17,5,4253,-3,5
2255,16,5,4254,-3,5
2256,16,5,4255,-1,5
2257,18,5,4256,0,5
2258,19,5,4257,1,5
2259,21,5,4258,4,5
2260,22,5,4259,6,5
2261,21,5,4260,7,5
2262,20,5,4261,5,5
2263,21,5,4262,5,5
2264,23,5,4263,4,5
2265,23,5,4264,5,5
2266,23,5,4265,6,5
2267,23,5,4266,6,5
2268,23,5,4267,6,5
2269,25,5,4268,7,5
2270,25,5,4269,6,5
2271,25,5,4270,6,5
2272,26,5,4271,7,5
2273,26,5,4272,8,5
2274,27,5,4273,8,5
2275,28,5,4274,8,5
2276,28,5,4275,8,5
2277,28,5,4276,8,5
2278,28,5,4277,10,5
2279,29,5,4278,11,5
2280,30,5,4279,11,5
2281,31,5,4280,11,5
2282,31,5,4281,10,5
2283,31,5,4282,10,5
2284,31,5,4283,11,5
2285,31,5,4284,13,5
2286,31,5,4285,13,5
2287,31,5,4286,13,5
2288,31,5,4287,13,5
2289,31,5,4288,13,5
2290,31,5,4289,13,5
2291,31,5,4290,12,5
2292,31,5,4291,12,5
2293,31,5,4292,12,5
2294,31,5,4293,12,5
2295,31,5,4294,12,5
2296,31,5,4295,12,5
2297,31,5,4296,13,5
2298,31,5,4297,15,5
2299,31,5,4298,15,5
2300,31,5,4299,14,5
2301,31,5,4300,14,5
2302,31,5,4301,15,5
2303,31,5,4302,16,5
2304,31,5,4303,17,5
2305,31,5,4304,18,5
2306,31,5,4305,18,5
2307,31,5,4306,18,5
2308,31,5,4307,18,5
2309,31,5,4308,18,5
2310,31,5,4309,18,5
2311,31,5,4310,18,5
2312,31,5,4311,18,5
2313,31,5,4312,20,5
2314,31,5,4313,21,5
2315,31,5,4314,23,5
2316,31,5,4315,23,5
2317,31,5,4316,23,5
2318,31,5,4317,23,5
2319,31,5,4318,23,5
2320,31,5,4319,24,5
2321,31,5,4320,26,5
2322,31,5,4321,28,5
2323,31,5,4322,31,5
2324,31,5,4323,31,5
2325,31,5,4324,29,5
2326,31,5,4325,27,5
2327,31,5,4326,27,5
2328,31,5,4327,28,5
2329,31,5,4328,30,5
2330,31,5,4329,31,5
2331,31,5,4330,31,5
2332,31,5,4331,31,5
2333,31,5,4332,31,5
2334,31,5,4333,31,5
2335,29,5,4334,31,5
2336,27,5,4335,31,5
2337,24,5,4336,31,5
2338,22,5,4337,31,5
2339,21,5,4338,31,5
2340,19,5,4339,31,5
2341,17,5,4340,31,5
2342,13,5,4341,31,5
2343,10,5,4342,31,5
2344,9,5,4343,31,5
2345,7,5,4344,31,5
2346,4,5,4345,31,5
2347,2,5,4346,31,5
2348,1,5,4347,31,5
2349,0,5,4348,31,5
2350,0,5,4349,31,5
2351,-1,5,4350,31,5
2352,-3,5,4351,31,5
2353,-4,5,4352,31,5
2354,-5,5,4353,31,5
2355,-6,5,4354,31,5
2356,-6,5,4355,31,5
2357,-6,5,4356,31,5
2358,-6,5,4357,31,5
2359,-5,5,4358,31,5
2360,-6,5,4359,31,5
2361,-5,5,4360,31,5
2362,-5,5,4361,31,5
2363,-6,5,4362,31,5
2364,-7,5,4363,31,5
2365,-9,5,4364,31,5
2366,-10,5,4365,31,5
2367,-11,5,4366,31,5
2368,-11,5,4367,31,5
2369,-11,5,4368,31,5
2370,-11,5,4369,31,5
2371,-12,5,4370,31,5
2372,-13,5,4371,31,5
2373,-13,5,4372,31,5
2374,-12,5,4373,31,5
2375,-12,5,4374,28,5
2376,-12,5,4375,24,5
2377,-12,5,4376,21,5
2378,-12,5,4377,18,5
2379,-11,5,4378,15,5
2380,-10,5,4379,13,5
2381,-10,5,4380,11,5
2382,-10,5,4381,9,5
2383,-11,5,4382,7,5
2384,-11,5,4383,5,5
2385,-12,5,4384,3,5
2386,-12,5,4385,1,5
2387,-11,5,4386,0,5
2388,-10,5,4387,0,5
2389,-10,5,4388,-1,5
2390,-11,5,4389,-3,5
2391,-11,5,4390,-5,5
2392,-11,5,4391,-7,5
2393,-10,5,4392,-7,5
2394,-9,5,4393,-8,5
2395,-7,5,4394,-10,5
2396,-7,5,4395,-11,5
2397,-8,5,4396,-12,5
2398,-8,5,4397,-11,5
2399,-9,5,4398,-11,5
2400,-10,5,4399,-13,5
2401,-11,5,4400,-13,5
2402,-10,5,4401,-13,5
2403,-10,5,4402,-13,5
2404,-10,5,4403,-14,5
2405,-10,5,4404,-15,5
2406,-9,5,4405,-16,5
2407,-9,5,4406,-16,5
2408,-9,5,4407,-14,5
2409,-9,5,4408,-14,5
2410,-9,5,4409,-15,5
2411,-9,5,4410,-15,5
2412,-8,5,4411,-16,5
2413,-9,5,4412,-17,5
2414,-11,5,4413,-18,5
2415,-10,5,4414,-18,5
2416,-10,5,4415,-18,5
2417,-10,5,4416,-17,5
2418,-10,5,4417,-16,5
2419,-9,5,4418,-15,5
2420,-9,5,4419,-14,5
2421,-9,5,4420,-16,5
2422,-9,5,4421,-16,5
2423,-9,5,4422,-17,5
2424,-9,5,4423,-16,5
2425,-10,5,4424,-14,5
2426,-11,5,4425,-14,5
2427,-12,5,4426,-17,5
2428,-12,5,4427,-18,5
2429,-11,5,4428,-18,5
2430,-11,5,4429,-17,5
2431,-10,5,4430,-16,5
2432,-10,5,4431,-17,5
2433,-11,5,4432,-16,5
2434,-11,5,4433,-16,5
2435,-11,5,4434,-16,5
2436,-11,5,4435,-15,5
2437,-11,5,4436,-13,5
2438,-12,5,4437,-12,5
2439,-12,5,4438,-12,5
2440,-13,5,4439,-13,5
2441,-13,5,4440,-14,5
2442,-14,5,4441,-15,5
2443,-13,5,4442,-15,5
2444,-11,5,4443,-14,5
2445,-11,5,4444,-14,5
2446,-12,5,4445,-13,5
2447,-13,5,4446,-13,5
2448,-14,5,4447,-13,5
2449,-15,5,4448,-12,5
2450,-14,5,4449,-13,5
2451,-14,5,4450,-15,5
2452,-15,5,4451,-15,5
2453,-15,5,4452,-14,5
2454,-16,5,4453,-15,5
2455,-15,5,4454,-15,5
2456,-14,5,4455,-15,5
2457,-12,5,4456,-15,5
2458,-12,5,4457,-16,5
2459,-13,5,4458,-14,5
2460,-14,5,4459,-14,5
2461,-16,5,4460,-13,5
2462,-17,5,4461,-13,5
2463,-18,5,4462,-13,5
2464,-18,5,4463,-13,5
2465,-18,5,4464,-13,5
2466,-19,5,4465,-14,5
2467,-17,5,4466,-13,5
2468,-17,5,4467,-12,5
2469,-16,5,4468,-12,5
2470,-16,5,4469,-14,5
2471,-15,5,4470,-13,5
2472,-15,5,4471,-13,5
2473,-16,5,4472,-14,5
2474,-16,5,4473,-15,5
2475,-16,5,4474,-15,5
2476,-17,5,4475,-15,5
2477,-18,5,4476,-15,5
2478,-22,5,4477,-15,5
2479,-23,5,4478,-15,5
2480,-22,5,4479,-15,5
2481,-21,5,4480,-16,5
2482,-20,5,4481,-19,5
2483,-19,5,4482,-18,5
2484,-19,5,4483,-16,5
2485,-20,5,4484,-15,5
2486,-18,5,4485,-16,5
2487,-17,5,4486,-17,5
2488,-17,5,4487,-17,5
2489,-17,5,4488,-17,5
2490,-17,5,4489,-17,5
2491,-16,5,4490,-18,5
2492,-16,5,4491,-18,5
2493,-16,5,4492,-18,5
2494,-17,5,4493,-17,5
2495,-17,5,4494,-18,5
2496,-17,5,4495,-19,5
2497,-16,5,4496,-19,5
2498,-18,5,4497,-19,5
2499,-19,5,4498,-20,5
2500,-19,5,4499,-21,5
2501,-20,5,4500,-21,5
2502,-19,5,4501,-18,5
2503,-18,5,4502,-16,5
2504,-19,5,4503,-17,5
2505,-18,5,4504,-17,5
2506,-18,5,4505,-18,5
2507,-19,5,4506,-19,5
2508,-20,5,4507,-19,5
2509,-19,5,4508,-20,5
2510,-19,5,4509,-20,5
2511,-18,5,4510,-21,5
2512,-18,5,4511,-21,5
2513,-18,5,4512,-20,5
2514,-18,5,4513,-20,5
2515,-18,5,4514,-19,5
2516,-18,5,4515,-19,5
2517,-18,5,4516,-19,5
2518,-18,5,4517,-21,5
2519,-19,5,4518,-21,5
2520,-19,5,4519,-22,5
2521,-19,5,4520,-21,5
2522,-19,5,4521,-20,5
2523,-18,5,4522,-21,5
2524,-17,5,4523,-23,5
2525,-17,5,4524,-24,5
2526,-18,5,4525,-24,5
2527,-18,5,4526,-23,5
2528,-18,5,4527,-21,5
2529,-18,5,4528,-19,5
2530,-19,5,4529,-17,5
2531,-19,5,4530,-18,5
2532,-21,5,4531,-19,5
2533,-20,5,4532,-20,5
2534,-19,5,4533,-20,5
2535,-17,5,4534,-20,5
2536,-17,5,4535,-22,5
2537,-18,5,4536,-24,5
2538,-17,5,4537,-24,5
2539,-18,5,4538,-25,5
2540,-19,5,4539,-24,5
2541,-20,5,4540,-23,5
2542,-19,5,4541,-22,5
2543,-18,5,4542,-22,5
2544,-17,5,4543,-22,5
2545,-18,5,4544,-22,5
2546,-19,5,4545,-23,5
2547,-19,5,4546,-22,5
2548,-18,5,4547,-20,5
2549,-18,5,4548,-18,5
2550,-18,5,4549,-18,5
2551,-16,5,4550,-19,5
2552,-16,5,4551,-21,5
2553,-17,5,4552,-21,5
2554,-19,5,4553,-22,5
2555,-17,5,4554,-22,5
2556,-16,5,4555,-23,5
2557,-16,5,4556,-24,5
2558,-17,5,4557,-23,5
2559,-17,5,4558,-23,5
2560,-18,5,4559,-23,5
2561,-17,5,4560,-24,5
2562,-17,5,4561,-24,5
2563,-17,5,4562,-25,5
2564,-17,5,4563,-23,5
2565,-17,5,4564,-21,5
2566,-16,5,4565,-21,5
2567,-16,5,4566,-21,5
2568,-16,5,4567,-21,5
2569,-15,5,4568,-21,5
2570,-14,5,4569,-21,5
2571,-14,5,4570,-21,5
2572,-14,5,4571,-22,5
2573,-15,5,4572,-21,5
2574,-15,5,4573,-20,5
2575,-16,5,4574,-20,5
2576,-16,5,4575,-20,5
2577,-16,5,4576,-20,5
2578,-16,5,4577,-20,5
2579,-16,5,4578,-19,5
2580,-16,5,4579,-19,5
2581,-16,5,4580,-20,5
2582,-15,5,4581,-20,5
2583,-15,5,4582,-20,5
2584,-15,5,4583,-21,5
2585,-15,5,4584,-20,5
2586,-15,5,4585,-20,5
2587,-15,5,4586,-19,5
2588,-15,5,4587,-19,5
2589,-15,5,4588,-19,5
2590,-15,5,4589,-19,5
2591,-15,5,4590,-20,5
2592,-16,5,4591,-21,5
2593,-16,5,4592,-21,5
2594,-15,5,4593,-22,5
2595,-15,5,4594,-20,5
2596,-16,5,4595,-19,5
2597,-16,5,4596,-20,5
2598,-16,5,4597,-20,5
2599,-17,5,4598,-21,5
2600,-16,5,4599,-21,5
2601,-16,5,4600,-21,5
2602,-15,5,4601,-21,5
2603,-14,5,4602,-22,5
2604,-13,5,4603,-22,5
2605,-13,5,4604,-22,5
2606,-12,5,4605,-21,5
2607,-11,5,4606,-21,5
2608,-10,5,4607,-21,5
2609,-10,5,4608,-21,5
2610,-10,5,4609,-20,5
2611,-8,5,4610,-21,5
2612,-7,5,4611,-22,5
2613,-5,5,4612,-22,5
2614,-5,5,4613,-21,5
2615,-4,5,4614,-20,5
2616,-3,5,4615,-20,5
2617,-2,5,4616,-20,5
2618,-2,5,4617,-21,5
2619,-1,5,4618,-21,5
2620,-3,5,4619,-21,5
2621,-4,5,4620,-21,5
2622,-6,5,4621,-20,5
2623,-9,5,4622,-19,5
2624,-12,5,4623,-19,5
2625,-15,5,4624,-20,5
2626,-18,5,4625,-19,5
2627,-21,5,4626,-19,5
2628,-23,5,4627,-20,5
2629,-26,5,4628,-21,5
2630,-28,5,4629,-20,5
2631,-29,5,4630,-20,5
2632,-30,5,4631,-21,5
2633,-32,5,4632,-23,5
2634,-34,5,4633,-24,5
2635,-35,5,4634,-22,5
2636,-35,5,4635,-19,5
2637,-34,5,4636,-17,5
2638,-33,5,4637,-16,5
2639,-32,5,4638,-17,5
2640,-32,5,4639,-17,5
2641,-31,5,4640,-16,5
2642,-29,5,4641,-18,5
2643,-27,5,4642,-20,5
2644,-26,5,4643,-21,5
2645,-26,5,4644,-22,5
2646,-24,5,4645,-23,5
2647,-24,5,4646,-23,5
2648,-24,5,4647,-22,5
2649,-25,5,4648,-22,5
2650,-26,5,4649,-20,5
2651,-28,5,4650,-18,5
2652,-28,5,4651,-18,5
2653,-28,5,4652,-19,5
2654,-28,5,4653,-17,5
2655,-29,5,4654,-15,5
2656,-29,5,4655,-13,5
2657,-29,5,4656,-10,5
2658,-29,5,4657,-9,5
2659,-28,5,4658,-10,5
2660,-29,5,4659,-10,5
2661,-28,5,4660,-8,5
2662,-28,5,4661,-7,5
2663,-28,5,4662,-5,5
2664,-28,5,4663,-3,5
2665,-27,5,4664,-3,5
2666,-27,5,4665,-3,5
2667,-28,5,4666,-4,5
2668,-29,5,4667,-6,5
2669,-29,5,4668,-8,5
2670,-29,5,4669,-9,5
2671,-29,5,4670,-10,5
2672,-28,5,4671,-12,5
2673,-28,5,4672,-13,5
2674,-28,5,4673,-15,5
2675,-28,5,4674,-17,5
2676,-28,5,4675,-21,5
2677,-28,5,4676,-25,5
2678,-30,5,4677,-27,5
2679,-30,5,4678,-28,5
2680,-30,5,4679,-29,5
2681,-30,5,4680,-29,5
2682,-29,5,4681,-30,5
2683,-27,5,4682,-30,5
2684,-19,5,4683,-31,5
2685,-7,5,4684,-32,5
2686,6,5,4685,-32,5
2687,18,5,4686,-31,5
2688,31,5,4687,-31,5
2689,31,5,4688,-32,5
2690,31,5,4689,-31,5
2691,31,5,4690,-30,5
2692,31,5,4691,-27,5
2693,10,5,4692,-26,5
2694,-10,5,4693,-25,5
2695,-31,5,4694,-24,5
2696,-61,5,4695,-24,5
2697,-99,5,4696,-23,5
2698,-115,5,4697,-23,5
2699,-115,5,4698,-24,5
2700,-115,5,4699,-25,5
2701,-115,5,4700,-26,5
2702,-115,5,4701,-27,5
2703,-115,5,4702,-28,5
2704,-115,5,4703,-27,5
2705,-115,5,4704,-26,5
2706,-115,5,4705,-25,5
2707,-115,5,4706,-25,5
2708,-108,5,4707,-25,5
2709,-90,5,4708,-26,5
2710,-74,5,4709,-27,5
2711,-59,5,4710,-27,5
2712,-48,5,4711,-28,5
2713,-40,5,4712,-26,5
2714,-33,5,4713,-26,5
2715,-28,5,4714,-27,5
2716,-23,5,4715,-26,5
2717,-20,5,4716,-26,5
2718,-18,5,4717,-26,5
2719,-14,5,4718,-24,5
2720,-10,5,4719,-24,5
2721,-8,5,4720,-23,5
2722,-6,5,4721,-22,5
2723,-5,5,4722,-23,5
2724,-6,5,4723,-24,5
2725,-6,5,4724,-23,5
2726,-5,5,4725,-23,5
2727,-4,5,4726,-23,5
2728,-5,5,4727,-23,5
2729,-5,5,4728,-25,5
2730,-5,5,4729,-26,5
2731,-5,5,4730,-25,5
2732,-5,5,4731,-22,5
2733,-5,5,4732,-14,5
2734,-4,5,4733,2,5
2735,-2,5,4734,19,5
2736,0,5,4735,31,5
2737,0,5,4736,31,5
2738,0,5,4737,31,5
2739,0,5,4738,31,5
2740,-1,5,4739,31,5
2741,0,5,4740,29,5
2742,0,5,4741,5,5
2743,0,5,4742,-22,5
2744,1,5,4743,-50,5
2745,1,5,4744,-80,5
2746,1,5,4745,-115,5
2747,1,5,4746,-115,5
2748,1,5,4747,-115,5
2749,3,5,4748,-115,5
2750,4,5,4749,-115,5
2751,4,5,4750,-115,5
2752,5,5,4751,-115,5
2753,5,5,4752,-115,5
2754,5,5,4753,-115,5
2755,5,5,4754,-115,5
2756,6,5,4755,-115,5
2757,7,5,4756,-115,5
2758,9,5,4757,-93,5
2759,7,5,4758,-73,5
2760,5,5,4759,-57,5
2761,4,5,4760,-45,5
2762,5,5,4761,-36,5
2763,7,5,4762,-31,5
2764,8,5,4763,-27,5
2765,10,5,4764,-22,5
2766,10,5,4765,-18,5
2767,9,5,4766,-14,5
2768,9,5,4767,-10,5
2769,9,5,4768,-6,5
2770,9,5,4769,-3,5
2771,9,5,4770,-2,5
2772,10,5,4771,0,5
2773,11,5,4772,1,5
2774,12,5,4773,1,5
2775,13,5,4774,1,5
2776,13,5,4775,2,5
2777,12,5,4776,4,5
2778,12,5,4777,4,5
2779,11,5,4778,4,5
2780,12,5,4779,4,5
2781,14,5,4780,4,5
2782,15,5,4781,5,5
2783,15,5,4782,6,5
2784,15,5,4783,8,5
2785,15,5,4784,8,5
2786,16,5,4785,9,5
2787,18,5,4786,9,5
2788,21,5,4787,9,5
2789,22,5,4788,9,5
2790,22,5,4789,8,5
2791,23,5,4790,8,5
2792,23,5,4791,9,5
2793,23,5,4792,9,5
2794,23,5,4793,8,5
2795,24,5,4794,8,5
2796,25,5,4795,8,5
2797,26,5,4796,9,5
2798,26,5,4797,10,5
2799,27,5,4798,10,5
2800,29,5,4799,11,5
2801,31,5,4800,11,5
2802,31,5,4801,11,5
2803,31,5,4802,12,5
2804,31,5,4803,12,5
2805,31,5,4804,12,5
2806,31,5,4805,14,5
2807,31,5,4806,15,5
2808,31,5,4807,14,5
2809,31,5,4808,15,5
2810,31,5,4809,16,5
2811,31,5,4810,16,5
2812,31,5,4811,17,5
2813,31,5,4812,18,5
2814,31,5,4813,19,5
2815,31,5,4814,19,5
2816,31,5,4815,18,5
2817,31,5,4816,17,5
2818,31,5,4817,16,5
2819,31,5,4818,16,5
2820,31,5,4819,17,5
2821,31,5,4820,18,5
2822,31,5,4821,18,5
2823,31,5,4822,19,5
2824,31,5,4823,19,5
2825,31,5,4824,19,5
2826,31,5,4825,20,5
2827,31,5,4826,22,5
2828,31,5,4827,22,5
2829,31,5,4828,23,5
2830,31,5,4829,24,5
2831,31,5,4830,24,5
2832,31,5,4831,25,5
2833,31,5,4832,26,5
2834,31,5,4833,26,5
2835,31,5,4834,26,5
2836,31,5,4835,26,5
2837,31,5,4836,26,5
2838,31,5,4837,26,5
2839,31,5,4838,26,5
2840,30,5,4839,27,5
2841,28,5,4840,28,5
2842,27,5,4841,29,5
2843,25,5,4842,31,5
2844,23,5,4843,31,5
2845,20,5,4844,31,5
2846,17,5,4845,30,5
2847,14,5,4846,30,5
2848,13,5,4847,31,5
2849,10,5,4848,31,5
2850,7,5,4849,31,5
2851,4,5,4850,31,5
2852,2,5,4851,31,5
2853,0,5,4852,31,5
2854,-1,5,4853,31,5
2855,-2,5,4854,31,5
2856,-3,5,4855,31,5
2857,-4,5,4856,31,5
2858,-7,5,4857,31,5
2859,-9,5,4858,31,5
2860,-9,5,4859,31,5
2861,-10,5,4860,31,5
2862,-12,5,4861,31,5
2863,-12,5,4862,31,5
2864,-12,5,4863,31,5
2865,-12,5,4864,31,5
2866,-12,5,4865,31,5
2867,-12,5,4866,31,5
2868,-13,5,4867,31,5
2869,-14,5,4868,31,5
2870,-14,5,4869,31,5
2871,-13,5,4870,31,5
2872,-14,5,4871,31,5
2873,-16,5,4872,31,5
2874,-16,5,4873,31,5
2875,-16,5,4874,31,5
2876,-17,5,4875,31,5
2877,-16,5,4876,31,5
2878,-16,5,4877,31,5
2879,-16,5,4878,31,5
2880,-17,5,4879,31,5
2881,-17,5,4880,31,5
2882,-16,5,4881,31,5
2883,-15,5,4882,31,5
2884,-16,5,4883,31,5
2885,-17,5,4884,31,5
2886,-16,5,4885,31,5
2887,-16,5,4886,31,5
2888,-14,5,4887,31,5
2889,-12,5,4888,31,5
2890,-12,5,4889,31,5
2891,-13,5,4890,29,5
2892,-14,5,4891,27,5
2893,-14,5,4892,24,5
2894,-16,5,4893,20,5
2895,-15,5,4894,19,5
2896,-15,5,4895,18,5
2897,-15,5,4896,16,5
2898,-13,5,4897,12,5
2899,-11,5,4898,10,5
2900,-11,5,4899,7,5
2901,-13,5,4900,5,5
2902,-14,5,4901,4,5
2903,-15,5,4902,3,5
2904,-15,5,4903,1,5
2905,-14,5,4904,0,5
2906,-15,5,4905,-1,5
2907,-14,5,4906,-3,5
2908,-12,5,4907,-4,5
2909,-11,5,4908,-4,5
2910,-11,5,4909,-3,5
2911,-9,5,4910,-5,5
2912,-9,5,4911,-7,5
2913,-10,5,4912,-7,5
2914,-10,5,4913,-7,5
2915,-10,5,4914,-7,5
2916,-11,5,4915,-8,5
2917,-12,5,4916,-9,5
2918,-13,5,4917,-11,5
2919,-13,5,4918,-12,5
2920,-13,5,4919,-14,5
2921,-13,5,4920,-15,5
2922,-12,5,4921,-16,5
2923,-12,5,4922,-16,5
2924,-12,5,4923,-17,5
2925,-11,5,4924,-15,5
2926,-10,5,4925,-14,5
2927,-10,5,4926,-13,5
2928,-10,5,4927,-12,5
2929,-11,5,4928,-12,5
2930,-11,5,4929,-13,5
2931,-12,5,4930,-13,5
2932,-13,5,4931,-13,5
2933,-12,5,4932,-13,5
2934,-12,5,4933,-15,5
2935,-13,5,4934,-15,5
2936,-11,5,4935,-15,5
2937,-10,5,4936,-14,5
2938,-10,5,4937,-14,5
2939,-10,5,4938,-13,5
2940,-10,5,4939,-13,5
2941,-11,5,4940,-14,5
2942,-12,5,4941,-14,5
2943,-11,5,4942,-14,5
2944,-11,5,4943,-14,5
2945,-13,5,4944,-14,5
2946,-12,5,4945,-14,5
2947,-11,5,4946,-12,5
2948,-12,5,4947,-12,5
2949,-11,5,4948,-12,5
2950,-10,5,4949,-12,5
2951,-10,5,4950,-12,5
2952,-10,5,4951,-12,5
2953,-11,5,4952,-13,5
2954,-14,5,4953,-12,5
2955,-16,5,4954,-12,5
2956,-18,5,4955,-14,5
2957,-16,5,4956,-14,5
2958,-16,5,4957,-14,5
2959,-16,5,4958,-13,5
2960,-15,5,4959,-13,5
2961,-15,5,4960,-12,5
2962,-16,5,4961,-12,5
2963,-16,5,4962,-12,5
2964,-16,5,4963,-10,5
2965,-16,5,4964,-8,5
2966,-16,5,4965,-8,5
2967,-16,5,4966,-9,5
2968,-17,5,4967,-9,5
2969,-17,5,4968,-9,5
2970,-15,5,4969,-9,5
2971,-14,5,4970,-11,5
2972,-14,5,4971,-11,5
2973,-14,5,4972,-11,5
2974,-14,5,4973,-11,5
2975,-14,5,4974,-11,5
2976,-15,5,4975,-12,5
2977,-14,5,4976,-12,5
2978,-14,5,4977,-12,5
2979,-14,5,4978,-13,5
2980,-15,5,4979,-14,5
2981,-16,5,4980,-14,5
2982,-15,5,4981,-12,5
2983,-16,5,4982,-12,5
2984,-17,5,4983,-12,5
2985,-18,5,4984,-11,5
2986,-18,5,4985,-10,5
2987,-17,5,4986,-10,5
2988,-17,5,4987,-12,5
2989,-16,5,4988,-13,5
2990,-16,5,4989,-14,5
2991,-16,5,4990,-13,5
2992,-14,5,4991,-14,5
2993,-13,5,4992,-13,5
2994,-13,5,4993,-13,5
2995,-14,5,4994,-13,5
2996,-16,5,4995,-13,5
2997,-17,5,4996,-15,5
2998,-17,5,4997,-16,5
2999,-18,5,4998,-16,5
3000,-18,5,4999,-17,5
