TS,Reading,Flag,TS2,Reading2,Flag2
1,-21,5,2000,-21,5
2,-21,5,2001,-21,5
3,-21,5,2002,-20,5
4,-22,5,2003,-21,5
5,-22,5,2004,-23,5
6,-22,5,2005,-22,5
7,-22,5,2006,-21,5
8,-21,5,2007,-21,5
9,-20,5,2008,-22,5
10,-21,5,2009,-22,5
11,-21,5,2010,-21,5
12,-22,5,2011,-20,5
13,-22,5,2012,-20,5
14,-22,5,2013,-21,5
15,-22,5,2014,-22,5
16,-22,5,2015,-22,5
17,-22,5,2016,-21,5
18,-23,5,2017,-21,5
19,-22,5,2018,-20,5
20,-22,5,2019,-21,5
21,-22,5,2020,-21,5
22,-22,5,2021,-19,5
23,-21,5,2022,-19,5
24,-19,5,2023,-20,5
25,-18,5,2024,-21,5
26,-19,5,2025,-22,5
27,-19,5,2026,-21,5
28,-19,5,2027,-20,5
29,-19,5,2028,-19,5
30,-19,5,2029,-18,5
31,-19,5,2030,-17,5
32,-20,5,2031,-17,5
33,-21,5,2032,-19,5
34,-22,5,2033,-20,5
35,-20,5,2034,-22,5
36,-20,5,2035,-20,5
37,-21,5,2036,-19,5
38,-20,5,2037,-19,5
39,-20,5,2038,-21,5
40,-20,5,2039,-21,5
41,-20,5,2040,-21,5
42,-20,5,2041,-22,5
43,-20,5,2042,-22,5
44,-19,5,2043,-21,5
45,-18,5,2044,-21,5
46,-19,5,2045,-20,5
47,-20,5,2046,-20,5
48,-21,5,2047,-19,5
49,-21,5,2048,-20,5
50,-21,5,2049,-20,5
51,-21,5,2050,-20,5
52,-21,5,2051,-20,5
53,-21,5,2052,-21,5
54,-22,5,2053,-21,5
55,-20,5,2054,-21,5
56,-20,5,2055,-21,5
57,-20,5,2056,-23,5
58,-20,5,2057,-21,5
59,-20,5,2058,-20,5
60,-19,5,2059,-19,5
61,-19,5,2060,-19,5
62,-18,5,2061,-20,5
63,-17,5,2062,-22,5
64,-17,5,2063,-23,5
65,-18,5,2064,-23,5
66,-18,5,2065,-22,5
67,-17,5,2066,-22,5
68,-14,5,2067,-21,5
69,-14,5,2068,-20,5
70,-14,5,2069,-20,5
71,-15,5,2070,-19,5
72,-14,5,2071,-19,5
73,-14,5,2072,-20,5
74,-13,5,2073,-20,5
75,-14,5,2074,-21,5
76,-15,5,2075,-21,5
77,-14,5,2076,-19,5
78,-14,5,2077,-18,5
79,-14,5,2078,-18,5
80,-13,5,2079,-18,5
81,-13,5,2080,-18,5
82,-15,5,2081,-18,5
83,-16,5,2082,-19,5
84,-15,5,2083,-18,5
85,-16,5,2084,-19,5
86,-18,5,2085,-19,5
87,-18,5,2086,-19,5
88,-17,5,2087,-19,5
89,-14,5,2088,-20,5
90,-13,5,2089,-20,5
91,-12,5,2090,-20,5
92,-11,5,2091,-20,5
93,-11,5,2092,-20,5
94,-10,5,2093,-20,5
95,-9,5,2094,-18,5
96,-9,5,2095,-18,5
97,-9,5,2096,-18,5
98,-7,5,2097,-18,5
99,-8,5,2098,-18,5
100,-7,5,2099,-19,5
101,-7,5,2100,-19,5
102,-9,5,2101,-18,5
103,-9,5,2102,-17,5
104,-11,5,2103,-16,5
105,-13,5,2104,-16,5
106,-14,5,2105,-15,5
107,-17,5,2106,-15,5
108,-18,5,2107,-14,5
109,-20,5,2108,-14,5
110,-21,5,2109,-13,5
111,-22,5,2110,-13,5
112,-24,5,2111,-13,5
113,-25,5,2112,-13,5
114,-25,5,2113,-12,5
115,-25,5,2114,-11,5
116,-26,5,2115,-11,5
117,-25,5,2116,-11,5
118,-24,5,2117,-10,5
119,-23,5,2118,-10,5
120,-23,5,2119,-10,5
121,-24,5,2120,-10,5
122,-24,5,2121,-10,5
123,-24,5,2122,-10,5
124,-23,5,2123,-10,5
125,-22,5,2124,-10,5
126,-22,5,2125,-8,5
127,-22,5,2126,-5,5
128,-22,5,2127,-3,5
129,-23,5,2128,-3,5
130,-23,5,2129,-3,5
131,-24,5,2130,-3,5
132,-25,5,2131,-5,5
133,-24,5,2132,-5,5
134,-25,5,2133,-6,5
135,-26,5,2134,-7,5
136,-26,5,2135,-9,5
137,-27,5,2136,-11,5
138,-26,5,2137,-13,5
139,-24,5,2138,-15,5
140,-22,5,2139,-16,5
141,-19,5,2140,-17,5
142,-16,5,2141,-18,5
143,-10,5,2142,-19,5
144,4,5,2143,-20,5
145,24,5,2144,-21,5
146,48,5,2145,-21,5
147,80,5,2146,-21,5
148,115,5,2147,-21,5
149,152,5,2148,-21,5
150,168,5,2149,-21,5
151,168,5,2150,-20,5
152,168,5,2151,-20,5
153,168,5,2152,-20,5
154,168,5,2153,-20,5
155,168,5,2154,-20,5
156,168,5,2155,-21,5
157,168,5,2156,-21,5
158,166,5,2157,-21,5
159,103,5,2158,-22,5
160,53,5,2159,-22,5
161,13,5,2160,-22,5
162,-16,5,2161,-21,5
163,-29,5,2162,-21,5
164,-29,5,2163,-21,5
165,-29,5,2164,-22,5
166,-29,5,2165,-20,5
167,-29,5,2166,-17,5
168,-29,5,2167,-17,5
169,-29,5,2168,-17,5
170,-29,5,2169,-18,5
171,-29,5,2170,-18,5
172,-29,5,2171,-16,5
173,-29,5,2172,-13,5
174,-29,5,2173,-10,5
175,-29,5,2174,-4,5
176,-29,5,2175,6,5
177,-29,5,2176,24,5
178,-29,5,2177,45,5
179,-29,5,2178,73,5
180,-29,5,2179,107,5
181,-29,5,2180,146,5
182,-29,5,2181,168,5
183,-28,5,2182,168,5
184,-28,5,2183,168,5
185,-27,5,2184,168,5
186,-25,5,2185,168,5
187,-25,5,2186,168,5
188,-25,5,2187,168,5
189,-25,5,2188,168,5
190,-25,5,2189,168,5
191,-25,5,2190,147,5
192,-25,5,2191,96,5
193,-25,5,2192,53,5
194,-26,5,2193,19,5
195,-26,5,2194,-6,5
196,-24,5,2195,-22,5
197,-24,5,2196,-29,5
198,-24,5,2197,-29,5
199,-23,5,2198,-29,5
200,-22,5,2199,-29,5
201,-21,5,2200,-29,5
202,-21,5,2201,-29,5
203,-20,5,2202,-27,5
204,-20,5,2203,-25,5
205,-20,5,2204,-23,5
206,-20,5,2205,-22,5
207,-20,5,2206,-21,5
208,-21,5,2207,-20,5
209,-20,5,2208,-19,5
210,-20,5,2209,-19,5
211,-19,5,2210,-18,5
212,-19,5,2211,-17,5
213,-19,5,2212,-17,5
214,-19,5,2213,-18,5
215,-19,5,2214,-18,5
216,-20,5,2215,-19,5
217,-19,5,2216,-19,5
218,-18,5,2217,-19,5
219,-19,5,2218,-19,5
220,-19,5,2219,-19,5
221,-19,5,2220,-18,5
222,-21,5,2221,-17,5
223,-23,5,2222,-17,5
224,-23,5,2223,-16,5
225,-23,5,2224,-16,5
226,-23,5,2225,-17,5
227,-22,5,2226,-17,5
228,-21,5,2227,-17,5
229,-21,5,2228,-17,5
230,-20,5,2229,-17,5
231,-20,5,2230,-16,5
232,-19,5,2231,-15,5
233,-19,5,2232,-15,5
234,-18,5,2233,-14,5
235,-18,5,2234,-14,5
236,-17,5,2235,-13,5
237,-16,5,2236,-14,5
238,-15,5,2237,-13,5
239,-16,5,2238,-13,5
240,-15,5,2239,-13,5
241,-13,5,2240,-13,5
242,-12,5,2241,-14,5
243,-12,5,2242,-14,5
244,-12,5,2243,-15,5
245,-11,5,2244,-14,5
246,-11,5,2245,-12,5
247,-10,5,2246,-11,5
248,-9,5,2247,-11,5
249,-8,5,2248,-13,5
250,-7,5,2249,-15,5
251,-6,5,2250,-15,5
252,-6,5,2251,-17,5
253,-6,5,2252,-15,5
254,-5,5,2253,-15,5
255,-3,5,2254,-14,5
256,-3,5,2255,-15,5
257,-2,5,2256,-14,5
258,-1,5,2257,-14,5
259,0,5,2258,-13,5
260,1,5,2259,-13,5
261,2,5,2260,-14,5
262,4,5,2261,-15,5
263,4,5,2262,-14,5
264,5,5,2263,-12,5
265,4,5,2264,-11,5
266,5,5,2265,-11,5
267,6,5,2266,-11,5
268,8,5,2267,-11,5
269,10,5,2268,-10,5
270,12,5,2269,-10,5
271,14,5,2270,-10,5
272,16,5,2271,-10,5
273,16,5,2272,-10,5
274,17,5,2273,-10,5
275,19,5,2274,-10,5
276,22,5,2275,-10,5
277,24,5,2276,-10,5
278,25,5,2277,-11,5
279,26,5,2278,-12,5
280,26,5,2279,-10,5
281,27,5,2280,-9,5
282,29,5,2281,-7,5
283,31,5,2282,-6,5
284,32,5,2283,-4,5
285,33,5,2284,-4,5
286,35,5,2285,-4,5
287,37,5,2286,-2,5
288,38,5,2287,-1,5
289,38,5,2288,0,5
290,38,5,2289,0,5
291,40,5,2290,0,5
292,41,5,2291,1,5
293,40,5,2292,3,5
294,40,5,2293,3,5
295,40,5,2294,4,5
296,40,5,2295,5,5
297,38,5,2296,5,5
298,37,5,2297,6,5
299,36,5,2298,9,5
300,35,5,2299,10,5
301,35,5,2300,12,5
302,34,5,2301,12,5
303,35,5,2302,12,5
304,34,5,2303,14,5
305,32,5,2304,15,5
306,31,5,2305,16,5
307,31,5,2306,17,5
308,31,5,2307,19,5
309,30,5,2308,20,5
310,29,5,2309,21,5
311,27,5,2310,22,5
312,23,5,2311,23,5
313,21,5,2312,24,5
314,19,5,2313,26,5
315,16,5,2314,29,5
316,13,5,2315,31,5
317,12,5,2316,32,5
318,11,5,2317,34,5
319,9,5,2318,35,5
320,7,5,2319,35,5
321,4,5,2320,37,5
322,2,5,2321,39,5
323,0,5,2322,40,5
324,-1,5,2323,40,5
325,-3,5,2324,41,5
326,-5,5,2325,42,5
327,-7,5,2326,41,5
328,-8,5,2327,40,5
329,-9,5,2328,39,5
330,-10,5,2329,40,5
331,-11,5,2330,41,5
332,-11,5,2331,40,5
333,-12,5,2332,39,5
334,-13,5,2333,39,5
335,-14,5,2334,38,5
336,-14,5,2335,37,5
337,-13,5,2336,35,5
338,-14,5,2337,35,5
339,-15,5,2338,34,5
340,-16,5,2339,33,5
341,-14,5,2340,31,5
342,-13,5,2341,29,5
343,-15,5,2342,26,5
344,-17,5,2343,25,5
345,-17,5,2344,22,5
346,-18,5,2345,20,5
347,-19,5,2346,18,5
348,-20,5,2347,16,5
349,-21,5,2348,15,5
350,-22,5,2349,14,5
351,-23,5,2350,11,5
352,-23,5,2351,8,5
353,-24,5,2352,5,5
354,-24,5,2353,3,5
355,-25,5,2354,1,5
356,-25,5,2355,0,5
357,-27,5,2356,0,5
358,-27,5,2357,-2,5
359,-27,5,2358,-3,5
360,-26,5,2359,-5,5
361,-26,5,2360,-6,5
362,-27,5,2361,-7,5
363,-27,5,2362,-9,5
364,-28,5,2363,-11,5
365,-29,5,2364,-12,5
366,-28,5,2365,-14,5
367,-27,5,2366,-15,5
368,-25,5,2367,-16,5
369,-25,5,2368,-17,5
370,-26,5,2369,-18,5
371,-26,5,2370,-19,5
372,-25,5,2371,-19,5
373,-26,5,2372,-20,5
374,-28,5,2373,-20,5
375,-28,5,2374,-20,5
376,-28,5,2375,-20,5
377,-29,5,2376,-21,5
378,-28,5,2377,-21,5
379,-26,5,2378,-21,5
380,-25,5,2379,-21,5
381,-25,5,2380,-21,5
382,-25,5,2381,-21,5
383,-24,5,2382,-22,5
384,-23,5,2383,-22,5
385,-22,5,2384,-24,5
386,-22,5,2385,-25,5
387,-22,5,2386,-25,5
388,-23,5,2387,-24,5
389,-22,5,2388,-25,5
390,-21,5,2389,-25,5
391,-20,5,2390,-26,5
392,-20,5,2391,-26,5
393,-21,5,2392,-26,5
394,-21,5,2393,-26,5
395,-20,5,2394,-27,5
396,-19,5,2395,-27,5
397,-19,5,2396,-28,5
398,-19,5,2397,-29,5
399,-18,5,2398,-29,5
400,-17,5,2399,-29,5
401,-17,5,2400,-29,5
402,-17,5,2401,-29,5
403,-17,5,2402,-29,5
404,-18,5,2403,-29,5
405,-18,5,2404,-29,5
406,-18,5,2405,-29,5
407,-17,5,2406,-29,5
408,-17,5,2407,-29,5
409,-18,5,2408,-29,5
410,-18,5,2409,-29,5
411,-17,5,2410,-29,5
412,-16,5,2411,-29,5
413,-15,5,2412,-29,5
414,-14,5,2413,-29,5
415,-14,5,2414,-29,5
416,-14,5,2415,-29,5
417,-14,5,2416,-29,5
418,-15,5,2417,-29,5
419,-13,5,2418,-29,5
420,-14,5,2419,-28,5
421,-14,5,2420,-28,5
422,-15,5,2421,-29,5
423,-15,5,2422,-29,5
424,-15,5,2423,-29,5
425,-14,5,2424,-29,5
426,-14,5,2425,-29,5
427,-14,5,2426,-29,5
428,-15,5,2427,-29,5
429,-15,5,2428,-28,5
430,-16,5,2429,-28,5
431,-16,5,2430,-28,5
432,-14,5,2431,-27,5
433,-14,5,2432,-27,5
434,-15,5,2433,-27,5
435,-17,5,2434,-25,5
436,-16,5,2435,-23,5
437,-15,5,2436,-21,5
438,-14,5,2437,-21,5
439,-14,5,2438,-21,5
440,-15,5,2439,-21,5
441,-16,5,2440,-21,5
442,-16,5,2441,-22,5
443,-18,5,2442,-22,5
444,-19,5,2443,-21,5
445,-20,5,2444,-21,5
446,-19,5,2445,-22,5
447,-17,5,2446,-22,5
448,-17,5,2447,-22,5
449,-18,5,2448,-23,5
450,-18,5,2449,-22,5
451,-16,5,2450,-21,5
452,-17,5,2451,-21,5
453,-15,5,2452,-20,5
454,-15,5,2453,-21,5
455,-16,5,2454,-20,5
456,-18,5,2455,-18,5
457,-19,5,2456,-16,5
458,-20,5,2457,-16,5
459,-20,5,2458,-16,5
460,-19,5,2459,-16,5
461,-19,5,2460,-18,5
462,-19,5,2461,-20,5
463,-19,5,2462,-22,5
464,-19,5,2463,-22,5
465,-20,5,2464,-23,5
466,-20,5,2465,-23,5
467,-20,5,2466,-21,5
468,-20,5,2467,-20,5
469,-20,5,2468,-19,5
470,-21,5,2469,-18,5
471,-22,5,2470,-17,5
472,-20,5,2471,-17,5
473,-19,5,2472,-18,5
474,-19,5,2473,-19,5
475,-19,5,2474,-19,5
476,-19,5,2475,-19,5
477,-20,5,2476,-19,5
478,-20,5,2477,-22,5
479,-19,5,2478,-23,5
480,-19,5,2479,-24,5
481,-19,5,2480,-23,5
482,-19,5,2481,-22,5
483,-19,5,2482,-22,5
484,-19,5,2483,-22,5
485,-20,5,2484,-22,5
486,-19,5,2485,-21,5
487,-20,5,2486,-20,5
488,-20,5,2487,-20,5
489,-20,5,2488,-21,5
490,-22,5,2489,-21,5
491,-21,5,2490,-22,5
492,-20,5,2491,-22,5
493,-21,5,2492,-21,5
494,-21,5,2493,-21,5
495,-20,5,2494,-21,5
496,-17,5,2495,-20,5
497,-17,5,2496,-19,5
498,-17,5,2497,-20,5
499,-18,5,2498,-21,5
500,-19,5,2499,-22,5
501,-19,5,2500,-23,5
502,-19,5,2501,-24,5
503,-19,5,2502,-24,5
504,-20,5,2503,-24,5
505,-21,5,2504,-23,5
506,-22,5,2505,-23,5
507,-23,5,2506,-24,5
508,-23,5,2507,-25,5
509,-22,5,2508,-24,5
510,-21,5,2509,-23,5
511,-19,5,2510,-23,5
512,-19,5,2511,-23,5
513,-19,5,2512,-23,5
514,-19,5,2513,-22,5
515,-19,5,2514,-22,5
516,-19,5,2515,-21,5
517,-19,5,2516,-21,5
518,-17,5,2517,-22,5
519,-16,5,2518,-23,5
520,-16,5,2519,-23,5
521,-17,5,2520,-23,5
522,-17,5,2521,-23,5
523,-17,5,2522,-23,5
524,-17,5,2523,-22,5
525,-18,5,2524,-23,5
526,-19,5,2525,-25,5
527,-19,5,2526,-25,5
528,-19,5,2527,-24,5
529,-19,5,2528,-23,5
530,-19,5,2529,-24,5
531,-20,5,2530,-24,5
532,-19,5,2531,-24,5
533,-18,5,2532,-23,5
534,-18,5,2533,-22,5
535,-19,5,2534,-20,5
536,-20,5,2535,-20,5
537,-19,5,2536,-20,5
538,-19,5,2537,-19,5
539,-20,5,2538,-20,5
540,-21,5,2539,-22,5
541,-21,5,2540,-22,5
542,-20,5,2541,-22,5
543,-20,5,2542,-20,5
544,-21,5,2543,-19,5
545,-21,5,2544,-20,5
546,-21,5,2545,-21,5
547,-21,5,2546,-21,5
548,-19,5,2547,-20,5
549,-18,5,2548,-20,5
550,-18,5,2549,-21,5
551,-17,5,2550,-20,5
552,-17,5,2551,-19,5
553,-17,5,2552,-19,5
554,-16,5,2553,-20,5
555,-17,5,2554,-20,5
556,-17,5,2555,-20,5
557,-16,5,2556,-20,5
558,-16,5,2557,-21,5
559,-16,5,2558,-21,5
560,-16,5,2559,-21,5
561,-16,5,2560,-20,5
562,-17,5,2561,-20,5
563,-17,5,2562,-19,5
564,-18,5,2563,-19,5
565,-19,5,2564,-18,5
566,-19,5,2565,-18,5
567,-18,5,2566,-18,5
568,-17,5,2567,-18,5
569,-16,5,2568,-17,5
570,-16,5,2569,-16,5
571,-15,5,2570,-15,5
572,-15,5,2571,-16,5
573,-15,5,2572,-17,5
574,-14,5,2573,-17,5
575,-15,5,2574,-17,5
576,-14,5,2575,-17,5
577,-12,5,2576,-17,5
578,-11,5,2577,-17,5
579,-12,5,2578,-18,5
580,-12,5,2579,-17,5
581,-12,5,2580,-17,5
582,-11,5,2581,-17,5
583,-10,5,2582,-17,5
584,-10,5,2583,-18,5
585,-10,5,2584,-19,5
586,-11,5,2585,-19,5
587,-13,5,2586,-19,5
588,-12,5,2587,-18,5
589,-11,5,2588,-17,5
590,-11,5,2589,-17,5
591,-12,5,2590,-17,5
592,-12,5,2591,-17,5
593,-12,5,2592,-18,5
594,-13,5,2593,-17,5
595,-13,5,2594,-17,5
596,-13,5,2595,-17,5
597,-12,5,2596,-18,5
598,-10,5,2597,-19,5
599,-9,5,2598,-19,5
600,-7,5,2599,-18,5
601,-6,5,2600,-17,5
602,-5,5,2601,-17,5
603,-5,5,2602,-17,5
604,-4,5,2603,-17,5
605,-3,5,2604,-17,5
606,-3,5,2605,-17,5
607,-2,5,2606,-16,5
608,-2,5,2607,-16,5
609,-3,5,2608,-16,5
610,-3,5,2609,-17,5
611,-3,5,2610,-17,5
612,-3,5,2611,-17,5
613,-4,5,2612,-17,5
614,-5,5,2613,-17,5
615,-8,5,2614,-17,5
616,-10,5,2615,-16,5
617,-12,5,2616,-16,5
618,-14,5,2617,-16,5
619,-16,5,2618,-16,5
620,-18,5,2619,-15,5
621,-20,5,2620,-15,5
622,-20,5,2621,-15,5
623,-19,5,2622,-16,5
624,-19,5,2623,-16,5
625,-18,5,2624,-16,5
626,-19,5,2625,-16,5
627,-19,5,2626,-15,5
628,-18,5,2627,-14,5
629,-19,5,2628,-15,5
630,-19,5,2629,-15,5
631,-20,5,2630,-12,5
632,-20,5,2631,-11,5
633,-21,5,2632,-12,5
634,-22,5,2633,-12,5
635,-21,5,2634,-12,5
636,-20,5,2635,-12,5
637,-20,5,2636,-11,5
638,-20,5,2637,-10,5
639,-19,5,2638,-9,5
640,-19,5,2639,-9,5
641,-19,5,2640,-8,5
642,-18,5,2641,-8,5
643,-18,5,2642,-9,5
644,-18,5,2643,-11,5
645,-18,5,2644,-13,5
646,-18,5,2645,-14,5
647,-18,5,2646,-15,5
648,-16,5,2647,-16,5
649,-15,5,2648,-20,5
650,-14,5,2649,-23,5
651,-12,5,2650,-24,5
652,-10,5,2651,-26,5
653,-4,5,2652,-26,5
654,7,5,2653,-26,5
655,23,5,2654,-27,5
656,44,5,2655,-26,5
657,70,5,2656,-26,5
658,105,5,2657,-25,5
659,143,5,2658,-24,5
660,168,5,2659,-24,5
661,168,5,2660,-24,5
662,168,5,2661,-25,5
663,168,5,2662,-26,5
664,168,5,2663,-28,5
665,168,5,2664,-26,5
666,168,5,2665,-26,5
667,168,5,2666,-26,5
668,168,5,2667,-26,5
669,140,5,2668,-27,5
670,90,5,2669,-28,5
671,51,5,2670,-28,5
672,19,5,2671,-28,5
673,-5,5,2672,-28,5
674,-21,5,2673,-27,5
675,-29,5,2674,-27,5
676,-29,5,2675,-27,5
677,-29,5,2676,-26,5
678,-29,5,2677,-26,5
679,-29,5,2678,-24,5
680,-28,5,2679,-23,5
681,-26,5,2680,-22,5
682,-23,5,2681,-20,5
683,-20,5,2682,-17,5
684,-20,5,2683,-12,5
685,-21,5,2684,2,5
686,-22,5,2685,23,5
687,-22,5,2686,50,5
688,-23,5,2687,84,5
689,-23,5,2688,121,5
690,-23,5,2689,159,5
691,-22,5,2690,168,5
692,-22,5,2691,168,5
693,-21,5,2692,168,5
694,-20,5,2693,168,5
695,-19,5,2694,168,5
696,-18,5,2695,168,5
697,-18,5,2696,168,5
698,-18,5,2697,168,5
699,-17,5,2698,165,5
700,-17,5,2699,103,5
701,-17,5,2700,54,5
702,-18,5,2701,13,5
703,-19,5,2702,-15,5
704,-20,5,2703,-29,5
705,-20,5,2704,-29,5
706,-20,5,2705,-29,5
707,-19,5,2706,-29,5
708,-18,5,2707,-29,5
709,-18,5,2708,-29,5
710,-17,5,2709,-29,5
711,-17,5,2710,-29,5
712,-17,5,2711,-29,5
713,-17,5,2712,-29,5
714,-17,5,2713,-29,5
715,-16,5,2714,-29,5
716,-15,5,2715,-29,5
717,-15,5,2716,-29,5
718,-15,5,2717,-29,5
719,-14,5,2718,-29,5
720,-13,5,2719,-27,5
721,-14,5,2720,-26,5
722,-15,5,2721,-25,5
723,-15,5,2722,-25,5
724,-14,5,2723,-26,5
725,-14,5,2724,-26,5
726,-14,5,2725,-26,5
727,-15,5,2726,-25,5
728,-16,5,2727,-26,5
729,-15,5,2728,-27,5
730,-15,5,2729,-27,5
731,-15,5,2730,-27,5
732,-15,5,2731,-28,5
733,-15,5,2732,-28,5
734,-15,5,2733,-28,5
735,-15,5,2734,-26,5
736,-14,5,2735,-24,5
737,-14,5,2736,-24,5
738,-13,5,2737,-24,5
739,-13,5,2738,-24,5
740,-13,5,2739,-23,5
741,-12,5,2740,-22,5
742,-12,5,2741,-22,5
743,-13,5,2742,-22,5
744,-12,5,2743,-22,5
745,-12,5,2744,-23,5
746,-12,5,2745,-23,5
747,-11,5,2746,-23,5
748,-11,5,2747,-24,5
749,-12,5,2748,-23,5
750,-12,5,2749,-22,5
751,-13,5,2750,-22,5
752,-12,5,2751,-21,5
753,-11,5,2752,-21,5
754,-10,5,2753,-21,5
755,-10,5,2754,-20,5
756,-10,5,2755,-20,5
757,-10,5,2756,-19,5
758,-10,5,2757,-19,5
759,-9,5,2758,-19,5
760,-8,5,2759,-21,5
761,-7,5,2760,-21,5
762,-7,5,2761,-19,5
763,-7,5,2762,-18,5
764,-6,5,2763,-18,5
765,-4,5,2764,-18,5
766,-4,5,2765,-18,5
767,-4,5,2766,-19,5
768,-3,5,2767,-19,5
769,-2,5,2768,-18,5
770,-1,5,2769,-18,5
771,-1,5,2770,-17,5
772,0,5,2771,-16,5
773,1,5,2772,-16,5
774,1,5,2773,-15,5
775,1,5,2774,-14,5
776,1,5,2775,-14,5
777,3,5,2776,-15,5
778,6,5,2777,-15,5
779,7,5,2778,-16,5
780,8,5,2779,-15,5
781,9,5,2780,-14,5
782,10,5,2781,-13,5
783,13,5,2782,-13,5
784,15,5,2783,-14,5
785,15,5,2784,-14,5
786,15,5,2785,-13,5
787,16,5,2786,-11,5
788,17,5,2787,-9,5
789,18,5,2788,-9,5
790,20,5,2789,-9,5
791,21,5,2790,-9,5
792,23,5,2791,-8,5
793,25,5,2792,-7,5
794,27,5,2793,-7,5
795,29,5,2794,-5,5
796,30,5,2795,-4,5
797,31,5,2796,-3,5
798,32,5,2797,-3,5
799,34,5,2798,-2,5
800,35,5,2799,0,5
801,35,5,2800,2,5
802,36,5,2801,3,5
803,37,5,2802,4,5
804,37,5,2803,5,5
805,37,5,2804,6,5
806,37,5,2805,6,5
807,37,5,2806,7,5
808,37,5,2807,8,5
809,35,5,2808,10,5
810,35,5,2809,12,5
811,35,5,2810,12,5
812,35,5,2811,12,5
813,35,5,2812,13,5
814,34,5,2813,14,5
815,32,5,2814,16,5
816,31,5,2815,18,5
817,30,5,2816,20,5
818,29,5,2817,21,5
819,28,5,2818,22,5
820,27,5,2819,25,5
821,26,5,2820,26,5
822,24,5,2821,28,5
823,21,5,2822,30,5
824,19,5,2823,31,5
825,18,5,2824,32,5
826,16,5,2825,32,5
827,14,5,2826,34,5
828,12,5,2827,35,5
829,11,5,2828,35,5
830,8,5,2829,36,5
831,4,5,2830,37,5
832,1,5,2831,36,5
833,-1,5,2832,37,5
834,-3,5,2833,37,5
835,-5,5,2834,38,5
836,-6,5,2835,38,5
837,-8,5,2836,38,5
838,-9,5,2837,39,5
839,-9,5,2838,39,5
840,-9,5,2839,40,5
841,-9,5,2840,40,5
842,-11,5,2841,40,5
843,-13,5,2842,40,5
844,-14,5,2843,39,5
845,-15,5,2844,38,5
846,-17,5,2845,36,5
847,-17,5,2846,34,5
848,-17,5,2847,33,5
849,-18,5,2848,31,5
850,-18,5,2849,27,5
851,-19,5,2850,25,5
852,-20,5,2851,22,5
853,-21,5,2852,21,5
854,-21,5,2853,19,5
855,-21,5,2854,18,5
856,-21,5,2855,17,5
857,-22,5,2856,15,5
858,-22,5,2857,12,5
859,-23,5,2858,9,5
860,-23,5,2859,7,5
861,-23,5,2860,5,5
862,-24,5,2861,3,5
863,-24,5,2862,2,5
864,-24,5,2863,1,5
865,-25,5,2864,0,5
866,-26,5,2865,-1,5
867,-26,5,2866,-2,5
868,-27,5,2867,-5,5
869,-28,5,2868,-8,5
870,-28,5,2869,-9,5
871,-28,5,2870,-9,5
872,-29,5,2871,-11,5
873,-28,5,2872,-12,5
874,-25,5,2873,-12,5
875,-25,5,2874,-13,5
876,-28,5,2875,-15,5
877,-28,5,2876,-15,5
878,-28,5,2877,-15,5
879,-28,5,2878,-16,5
880,-28,5,2879,-17,5
881,-28,5,2880,-19,5
882,-28,5,2881,-19,5
883,-27,5,2882,-19,5
884,-27,5,2883,-20,5
885,-27,5,2884,-21,5
886,-26,5,2885,-22,5
887,-26,5,2886,-21,5
888,-26,5,2887,-20,5
889,-25,5,2888,-20,5
890,-25,5,2889,-20,5
891,-25,5,2890,-21,5
892,-25,5,2891,-22,5
893,-24,5,2892,-23,5
894,-24,5,2893,-24,5
895,-26,5,2894,-24,5
896,-26,5,2895,-24,5
897,-26,5,2896,-26,5
898,-24,5,2897,-25,5
899,-23,5,2898,-24,5
900,-23,5,2899,-24,5
901,-24,5,2900,-25,5
902,-23,5,2901,-27,5
903,-22,5,2902,-27,5
904,-21,5,2903,-27,5
905,-19,5,2904,-27,5
906,-19,5,2905,-28,5
907,-20,5,2906,-28,5
908,-21,5,2907,-28,5
909,-22,5,2908,-28,5
910,-21,5,2909,-28,5
911,-19,5,2910,-27,5
912,-19,5,2911,-27,5
913,-18,5,2912,-26,5
914,-19,5,2913,-26,5
915,-19,5,2914,-27,5
916,-19,5,2915,-28,5
917,-18,5,2916,-29,5
918,-18,5,2917,-29,5
919,-19,5,2918,-29,5
920,-17,5,2919,-29,5
921,-17,5,2920,-27,5
922,-16,5,2921,-26,5
923,-17,5,2922,-26,5
924,-17,5,2923,-26,5
925,-17,5,2924,-25,5
926,-18,5,2925,-24,5
927,-16,5,2926,-24,5
928,-15,5,2927,-24,5
929,-13,5,2928,-24,5
930,-13,5,2929,-24,5
931,-13,5,2930,-25,5
932,-12,5,2931,-24,5
933,-13,5,2932,-22,5
934,-13,5,2933,-22,5
935,-13,5,2934,-23,5
936,-13,5,2935,-22,5
937,-13,5,2936,-20,5
938,-13,5,2937,-19,5
939,-14,5,2938,-18,5
940,-15,5,2939,-18,5
941,-16,5,2940,-18,5
942,-16,5,2941,-18,5
943,-16,5,2942,-17,5
944,-15,5,2943,-16,5
945,-15,5,2944,-16,5
946,-16,5,2945,-16,5
947,-15,5,2946,-16,5
948,-16,5,2947,-15,5
949,-16,5,2948,-15,5
950,-16,5,2949,-13,5
951,-16,5,2950,-12,5
952,-16,5,2951,-12,5
953,-17,5,2952,-11,5
954,-18,5,2953,-13,5
955,-17,5,2954,-15,5
956,-16,5,2955,-15,5
957,-15,5,2956,-14,5
958,-15,5,2957,-14,5
959,-15,5,2958,-15,5
960,-17,5,2959,-16,5
961,-18,5,2960,-17,5
962,-18,5,2961,-17,5
963,-18,5,2962,-17,5
964,-19,5,2963,-16,5
965,-20,5,2964,-15,5
966,-21,5,2965,-14,5
967,-20,5,2966,-14,5
968,-19,5,2967,-15,5
969,-19,5,2968,-15,5
970,-19,5,2969,-14,5
971,-19,5,2970,-14,5
972,-20,5,2971,-14,5
973,-20,5,2972,-14,5
974,-20,5,2973,-14,5
975,-21,5,2974,-14,5
976,-23,5,2975,-14,5
977,-24,5,2976,-14,5
978,-25,5,2977,-13,5
979,-26,5,2978,-13,5
980,-27,5,2979,-15,5
981,-27,5,2980,-16,5
982,-27,5,2981,-16,5
983,-26,5,2982,-17,5
984,-25,5,2983,-17,5
985,-24,5,2984,-17,5
986,-24,5,2985,-17,5
987,-25,5,2986,-17,5
988,-26,5,2987,-17,5
989,-26,5,2988,-16,5
990,-27,5,2989,-16,5
991,-28,5,2990,-16,5
992,-28,5,2991,-15,5
993,-29,5,2992,-14,5
994,-28,5,2993,-15,5
995,-29,5,2994,-15,5
996,-29,5,2995,-16,5
997,-29,5,2996,-17,5
998,-29,5,2997,-18,5
999,-29,5,2998,-19,5
1000,-29,5,2999,-19,5
1001,-29,5,3000,-18,5
1002,-29,5,3001,-21,5
1003,-29,5,3002,-22,5
1004,-29,5,3003,-21,5
1005,-27,5,3004,-22,5
1006,-26,5,3005,-22,5
1007,-26,5,3006,-21,5
1008,-28,5,3007,-20,5
1009,-27,5,3008,-19,5
1010,-26,5,3009,-18,5
1011,-25,5,3010,-17,5
1012,-25,5,3011,-17,5
1013,-25,5,3012,-17,5
1014,-26,5,3013,-18,5
1015,-28,5,3014,-19,5
1016,-29,5,3015,-19,5
1017,-29,5,3016,-18,5
1018,-29,5,3017,-18,5
1019,-29,5,3018,-18,5
1020,-29,5,3019,-19,5
1021,-29,5,3020,-19,5
1022,-29,5,3021,-20,5
1023,-29,5,3022,-20,5
1024,-29,5,3023,-19,5
1025,-29,5,3024,-18,5
1026,-28,5,3025,-18,5
1027,-29,5,3026,-18,5
1028,-29,5,3027,-17,5
1029,-29,5,3028,-17,5
1030,-29,5,3029,-17,5
1031,-29,5,3030,-17,5
1032,-28,5,3031,-18,5
1033,-26,5,3032,-18,5
1034,-26,5,3033,-18,5
1035,-27,5,3034,-16,5
1036,-28,5,3035,-15,5
1037,-28,5,3036,-15,5
1038,-27,5,3037,-16,5
1039,-27,5,3038,-18,5
1040,-29,5,3039,-19,5
1041,-29,5,3040,-19,5
1042,-29,5,3041,-19,5
1043,-29,5,3042,-19,5
1044,-29,5,3043,-19,5
1045,-29,5,3044,-18,5
1046,-29,5,3045,-18,5
1047,-29,5,3046,-18,5
1048,-29,5,3047,-17,5
1049,-29,5,3048,-17,5
1050,-29,5,3049,-17,5
1051,-29,5,3050,-17,5
1052,-29,5,3051,-17,5
1053,-28,5,3052,-17,5
1054,-29,5,3053,-17,5
1055,-29,5,3054,-17,5
1056,-29,5,3055,-17,5
1057,-28,5,3056,-18,5
1058,-28,5,3057,-19,5
1059,-28,5,3058,-17,5
1060,-27,5,3059,-16,5
1061,-26,5,3060,-16,5
1062,-25,5,3061,-16,5
1063,-24,5,3062,-16,5
1064,-24,5,3063,-17,5
1065,-24,5,3064,-17,5
1066,-24,5,3065,-17,5
1067,-25,5,3066,-17,5
1068,-25,5,3067,-18,5
1069,-25,5,3068,-20,5
1070,-25,5,3069,-20,5
1071,-26,5,3070,-19,5
1072,-26,5,3071,-18,5
1073,-26,5,3072,-18,5
1074,-26,5,3073,-17,5
1075,-26,5,3074,-17,5
1076,-25,5,3075,-16,5
1077,-24,5,3076,-16,5
1078,-23,5,3077,-17,5
1079,-22,5,3078,-17,5
1080,-22,5,3079,-18,5
1081,-21,5,3080,-18,5
1082,-20,5,3081,-17,5
1083,-19,5,3082,-18,5
1084,-18,5,3083,-19,5
1085,-18,5,3084,-19,5
1086,-20,5,3085,-19,5
1087,-20,5,3086,-19,5
1088,-20,5,3087,-18,5
1089,-19,5,3088,-18,5
1090,-19,5,3089,-18,5
1091,-18,5,3090,-18,5
1092,-18,5,3091,-18,5
1093,-16,5,3092,-17,5
1094,-14,5,3093,-16,5
1095,-12,5,3094,-16,5
1096,-8,5,3095,-17,5
1097,-5,5,3096,-17,5
1098,-3,5,3097,-17,5
1099,-1,5,3098,-17,5
1100,-1,5,3099,-17,5
1101,-1,5,3100,-17,5
1102,-1,5,3101,-17,5
1103,-2,5,3102,-18,5
1104,-5,5,3103,-18,5
1105,-9,5,3104,-18,5
1106,-13,5,3105,-18,5
1107,-15,5,3106,-18,5
1108,-15,5,3107,-17,5
1109,-15,5,3108,-17,5
1110,-17,5,3109,-16,5
1111,-18,5,3110,-16,5
1112,-18,5,3111,-16,5
1113,-18,5,3112,-15,5
1114,-18,5,3113,-15,5
1115,-19,5,3114,-13,5
1116,-18,5,3115,-12,5
1117,-19,5,3116,-12,5
1118,-20,5,3117,-11,5
1119,-22,5,3118,-11,5
1120,-22,5,3119,-11,5
1121,-22,5,3120,-11,5
1122,-23,5,3121,-11,5
1123,-24,5,3122,-12,5
1124,-24,5,3123,-11,5
1125,-24,5,3124,-11,5
1126,-25,5,3125,-11,5
1127,-25,5,3126,-12,5
1128,-24,5,3127,-12,5
1129,-25,5,3128,-11,5
1130,-25,5,3129,-11,5
1131,-25,5,3130,-12,5
1132,-25,5,3131,-11,5
1133,-25,5,3132,-10,5
1134,-23,5,3133,-10,5
1135,-23,5,3134,-10,5
1136,-24,5,3135,-9,5
1137,-25,5,3136,-8,5
1138,-26,5,3137,-8,5
1139,-26,5,3138,-9,5
1140,-27,5,3139,-10,5
1141,-27,5,3140,-10,5
1142,-26,5,3141,-9,5
1143,-26,5,3142,-8,5
1144,-28,5,3143,-8,5
1145,-29,5,3144,-8,5
1146,-29,5,3145,-9,5
1147,-28,5,3146,-8,5
1148,-27,5,3147,-8,5
1149,-26,5,3148,-8,5
1150,-25,5,3149,-6,5
1151,-24,5,3150,-4,5
1152,-24,5,3151,-1,5
1153,-21,5,3152,-1,5
1154,-19,5,3153,-2,5
1155,-16,5,3154,-4,5
1156,-15,5,3155,-4,5
1157,-13,5,3156,-7,5
1158,-9,5,3157,-9,5
1159,4,5,3158,-10,5
1160,26,5,3159,-12,5
1161,52,5,3160,-13,5
1162,84,5,3161,-16,5
1163,120,5,3162,-18,5
1164,157,5,3163,-18,5
1165,168,5,3164,-19,5
1166,168,5,3165,-19,5
1167,168,5,3166,-17,5
1168,168,5,3167,-17,5
1169,168,5,3168,-17,5
1170,168,5,3169,-18,5
1171,168,5,3170,-18,5
1172,168,5,3171,-19,5
1173,163,5,3172,-21,5
1174,99,5,3173,-21,5
1175,49,5,3174,-21,5
1176,9,5,3175,-22,5
1177,-18,5,3176,-22,5
1178,-29,5,3177,-22,5
1179,-29,5,3178,-22,5
1180,-29,5,3179,-21,5
1181,-29,5,3180,-20,5
1182,-29,5,3181,-19,5
1183,-29,5,3182,-19,5
1184,-29,5,3183,-19,5
1185,-29,5,3184,-19,5
1186,-29,5,3185,-18,5
1187,-29,5,3186,-19,5
1188,-29,5,3187,-21,5
1189,-27,5,3188,-21,5
1190,-25,5,3189,-19,5
1191,-23,5,3190,-18,5
1192,-22,5,3191,-16,5
1193,-22,5,3192,-14,5
1194,-21,5,3193,-12,5
1195,-22,5,3194,-11,5
1196,-20,5,3195,-6,5
1197,-21,5,3196,6,5
1198,-21,5,3197,23,5
1199,-20,5,3198,44,5
1200,-19,5,3199,73,5
1201,-19,5,3200,110,5
1202,-20,5,3201,150,5
1203,-19,5,3202,168,5
1204,-18,5,3203,168,5
1205,-18,5,3204,168,5
1206,-18,5,3205,168,5
1207,-18,5,3206,168,5
1208,-18,5,3207,168,5
1209,-17,5,3208,168,5
1210,-17,5,3209,168,5
1211,-17,5,3210,168,5
1212,-17,5,3211,147,5
1213,-18,5,3212,99,5
1214,-19,5,3213,58,5
1215,-18,5,3214,25,5
1216,-18,5,3215,-2,5
1217,-18,5,3216,-20,5
1218,-18,5,3217,-28,5
1219,-17,5,3218,-29,5
1220,-16,5,3219,-29,5
1221,-16,5,3220,-28,5
1222,-17,5,3221,-26,5
1223,-17,5,3222,-24,5
1224,-17,5,3223,-23,5
1225,-18,5,3224,-24,5
1226,-17,5,3225,-23,5
1227,-16,5,3226,-22,5
1228,-16,5,3227,-21,5
1229,-15,5,3228,-20,5
1230,-13,5,3229,-19,5
1231,-12,5,3230,-19,5
1232,-12,5,3231,-21,5
1233,-12,5,3232,-20,5
1234,-13,5,3233,-20,5
1235,-13,5,3234,-20,5
1236,-12,5,3235,-19,5
1237,-11,5,3236,-18,5
1238,-12,5,3237,-17,5
1239,-13,5,3238,-17,5
1240,-15,5,3239,-18,5
1241,-14,5,3240,-18,5
1242,-14,5,3241,-19,5
1243,-13,5,3242,-20,5
1244,-12,5,3243,-20,5
1245,-12,5,3244,-20,5
1246,-12,5,3245,-20,5
1247,-12,5,3246,-19,5
1248,-13,5,3247,-19,5
1249,-13,5,3248,-18,5
1250,-12,5,3249,-18,5
1251,-12,5,3250,-17,5
1252,-12,5,3251,-18,5
1253,-12,5,3252,-18,5
1254,-11,5,3253,-17,5
1255,-9,5,3254,-16,5
1256,-8,5,3255,-15,5
1257,-7,5,3256,-15,5
1258,-8,5,3257,-15,5
1259,-7,5,3258,-15,5
1260,-5,5,3259,-15,5
1261,-3,5,3260,-16,5
1262,-2,5,3261,-15,5
1263,-2,5,3262,-14,5
1264,-2,5,3263,-15,5
1265,-2,5,3264,-15,5
1266,-2,5,3265,-14,5
1267,-1,5,3266,-13,5
1268,-1,5,3267,-13,5
1269,-1,5,3268,-14,5
1270,0,5,3269,-14,5
1271,1,5,3270,-14,5
1272,2,5,3271,-15,5
1273,2,5,3272,-17,5
1274,3,5,3273,-15,5
1275,3,5,3274,-15,5
1276,4,5,3275,-15,5
1277,5,5,3276,-14,5
1278,6,5,3277,-14,5
1279,7,5,3278,-12,5
1280,9,5,3279,-10,5
1281,11,5,3280,-9,5
1282,12,5,3281,-9,5
1283,13,5,3282,-9,5
1284,15,5,3283,-10,5
1285,16,5,3284,-11,5
1286,17,5,3285,-12,5
1287,18,5,3286,-13,5
1288,20,5,3287,-13,5
1289,21,5,3288,-14,5
1290,23,5,3289,-14,5
1291,25,5,3290,-14,5
1292,27,5,3291,-12,5
1293,28,5,3292,-10,5
1294,30,5,3293,-10,5
1295,31,5,3294,-10,5
1296,31,5,3295,-10,5
1297,32,5,3296,-9,5
1298,33,5,3297,-9,5
1299,34,5,3298,-8,5
1300,35,5,3299,-7,5
1301,37,5,3300,-7,5
1302,37,5,3301,-7,5
1303,37,5,3302,-7,5
1304,40,5,3303,-8,5
1305,41,5,3304,-7,5
1306,42,5,3305,-5,5
1307,43,5,3306,-4,5
1308,43,5,3307,-5,5
1309,43,5,3308,-6,5
1310,42,5,3309,-4,5
1311,42,5,3310,-3,5
1312,42,5,3311,-2,5
1313,42,5,3312,0,5
1314,40,5,3313,0,5
1315,39,5,3314,2,5
1316,39,5,3315,3,5
1317,40,5,3316,5,5
1318,39,5,3317,6,5
1319,38,5,3318,7,5
1320,38,5,3319,7,5
1321,37,5,3320,7,5
1322,36,5,3321,7,5
1323,34,5,3322,8,5
1324,33,5,3323,10,5
1325,31,5,3324,12,5
1326,30,5,3325,13,5
1327,28,5,3326,14,5
1328,25,5,3327,15,5
1329,23,5,3328,17,5
1330,20,5,3329,18,5
1331,18,5,3330,19,5
1332,17,5,3331,20,5
1333,15,5,3332,21,5
1334,13,5,3333,24,5
1335,10,5,3334,27,5
1336,8,5,3335,29,5
1337,6,5,3336,30,5
1338,4,5,3337,32,5
1339,2,5,3338,33,5
1340,0,5,3339,35,5
1341,0,5,3340,36,5
1342,-2,5,3341,37,5
1343,-4,5,3342,37,5
1344,-6,5,3343,37,5
1345,-8,5,3344,38,5
1346,-8,5,3345,39,5
1347,-10,5,3346,40,5
1348,-11,5,3347,40,5
1349,-12,5,3348,40,5
1350,-13,5,3349,40,5
1351,-15,5,3350,39,5
1352,-15,5,3351,39,5
1353,-16,5,3352,40,5
1354,-16,5,3353,41,5
1355,-18,5,3354,40,5
1356,-19,5,3355,40,5
1357,-20,5,3356,38,5
1358,-19,5,3357,38,5
1359,-19,5,3358,38,5
1360,-18,5,3359,37,5
1361,-18,5,3360,35,5
1362,-20,5,3361,33,5
1363,-21,5,3362,30,5
1364,-21,5,3363,27,5
1365,-22,5,3364,26,5
1366,-23,5,3365,25,5
1367,-24,5,3366,23,5
1368,-25,5,3367,21,5
1369,-26,5,3368,18,5
1370,-25,5,3369,14,5
1371,-25,5,3370,12,5
1372,-26,5,3371,11,5
1373,-26,5,3372,9,5
1374,-26,5,3373,8,5
1375,-27,5,3374,7,5
1376,-28,5,3375,6,5
1377,-27,5,3376,4,5
1378,-27,5,3377,0,5
1379,-28,5,3378,-2,5
1380,-29,5,3379,-3,5
1381,-29,5,3380,-4,5
1382,-28,5,3381,-5,5
1383,-25,5,3382,-7,5
1384,-24,5,3383,-9,5
1385,-23,5,3384,-9,5
1386,-24,5,3385,-9,5
1387,-25,5,3386,-10,5
1388,-27,5,3387,-12,5
1389,-27,5,3388,-13,5
1390,-27,5,3389,-15,5
1391,-27,5,3390,-15,5
1392,-27,5,3391,-17,5
1393,-26,5,3392,-18,5
1394,-26,5,3393,-19,5
1395,-24,5,3394,-20,5
1396,-23,5,3395,-21,5
1397,-23,5,3396,-21,5
1398,-22,5,3397,-21,5
1399,-22,5,3398,-21,5
1400,-23,5,3399,-20,5
1401,-24,5,3400,-20,5
1402,-24,5,3401,-20,5
1403,-23,5,3402,-20,5
1404,-21,5,3403,-20,5
1405,-19,5,3404,-20,5
1406,-19,5,3405,-20,5
1407,-19,5,3406,-22,5
1408,-19,5,3407,-23,5
1409,-19,5,3408,-24,5
1410,-19,5,3409,-25,5
1411,-19,5,3410,-25,5
1412,-18,5,3411,-25,5
1413,-16,5,3412,-25,5
1414,-15,5,3413,-26,5
1415,-15,5,3414,-26,5
1416,-16,5,3415,-25,5
1417,-18,5,3416,-25,5
1418,-17,5,3417,-25,5
1419,-17,5,3418,-26,5
1420,-17,5,3419,-27,5
1421,-16,5,3420,-27,5
1422,-15,5,3421,-26,5
1423,-14,5,3422,-26,5
1424,-14,5,3423,-27,5
1425,-14,5,3424,-29,5
1426,-14,5,3425,-28,5
1427,-14,5,3426,-28,5
1428,-13,5,3427,-27,5
1429,-12,5,3428,-28,5
1430,-13,5,3429,-28,5
1431,-15,5,3430,-28,5
1432,-15,5,3431,-28,5
1433,-15,5,3432,-28,5
1434,-16,5,3433,-29,5
1435,-18,5,3434,-29,5
1436,-17,5,3435,-29,5
1437,-17,5,3436,-29,5
1438,-16,5,3437,-29,5
1439,-16,5,3438,-29,5
1440,-16,5,3439,-29,5
1441,-15,5,3440,-29,5
1442,-16,5,3441,-29,5
1443,-16,5,3442,-29,5
1444,-15,5,3443,-29,5
1445,-17,5,3444,-29,5
1446,-18,5,3445,-29,5
1447,-19,5,3446,-29,5
1448,-18,5,3447,-29,5
1449,-17,5,3448,-28,5
1450,-17,5,3449,-27,5
1451,-16,5,3450,-27,5
1452,-16,5,3451,-27,5
1453,-17,5,3452,-29,5
1454,-17,5,3453,-29,5
1455,-18,5,3454,-29,5
1456,-18,5,3455,-29,5
1457,-17,5,3456,-29,5
1458,-17,5,3457,-29,5
1459,-17,5,3458,-29,5
1460,-18,5,3459,-29,5
1461,-19,5,3460,-28,5
1462,-19,5,3461,-27,5
1463,-18,5,3462,-25,5
1464,-17,5,3463,-24,5
1465,-16,5,3464,-24,5
1466,-17,5,3465,-24,5
1467,-18,5,3466,-23,5
1468,-18,5,3467,-23,5
1469,-19,5,3468,-24,5
1470,-20,5,3469,-25,5
1471,-20,5,3470,-26,5
1472,-20,5,3471,-27,5
1473,-19,5,3472,-26,5
1474,-19,5,3473,-24,5
1475,-18,5,3474,-23,5
1476,-20,5,3475,-23,5
1477,-20,5,3476,-22,5
1478,-21,5,3477,-22,5
1479,-21,5,3478,-23,5
1480,-19,5,3479,-24,5
1481,-18,5,3480,-23,5
1482,-18,5,3481,-23,5
1483,-18,5,3482,-24,5
1484,-18,5,3483,-25,5
1485,-20,5,3484,-25,5
1486,-21,5,3485,-25,5
1487,-22,5,3486,-25,5
1488,-22,5,3487,-24,5
1489,-22,5,3488,-25,5
1490,-21,5,3489,-27,5
1491,-22,5,3490,-28,5
1492,-23,5,3491,-28,5
1493,-23,5,3492,-29,5
1494,-21,5,3493,-29,5
1495,-21,5,3494,-29,5
1496,-22,5,3495,-27,5
1497,-23,5,3496,-25,5
1498,-22,5,3497,-24,5
1499,-20,5,3498,-24,5
1500,-18,5,3499,-25,5
1501,-18,5,3500,-26,5
1502,-19,5,3501,-27,5
1503,-19,5,3502,-27,5
1504,-18,5,3503,-27,5
1505,-18,5,3504,-27,5
1506,-18,5,3505,-28,5
1507,-20,5,3506,-28,5
1508,-21,5,3507,-27,5
1509,-21,5,3508,-26,5
1510,-21,5,3509,-27,5
1511,-21,5,3510,-27,5
1512,-21,5,3511,-27,5
1513,-21,5,3512,-26,5
1514,-20,5,3513,-27,5
1515,-20,5,3514,-28,5
1516,-21,5,3515,-29,5
1517,-21,5,3516,-29,5
1518,-21,5,3517,-29,5
1519,-20,5,3518,-29,5
1520,-19,5,3519,-29,5
1521,-19,5,3520,-28,5
1522,-19,5,3521,-27,5
1523,-19,5,3522,-28,5
1524,-18,5,3523,-28,5
1525,-17,5,3524,-28,5
1526,-17,5,3525,-28,5
1527,-18,5,3526,-28,5
1528,-19,5,3527,-27,5
1529,-20,5,3528,-27,5
1530,-20,5,3529,-27,5
1531,-19,5,3530,-27,5
1532,-18,5,3531,-25,5
1533,-18,5,3532,-24,5
1534,-20,5,3533,-25,5
1535,-20,5,3534,-25,5
1536,-21,5,3535,-25,5
1537,-20,5,3536,-25,5
1538,-20,5,3537,-25,5
1539,-20,5,3538,-25,5
1540,-20,5,3539,-25,5
1541,-20,5,3540,-26,5
1542,-21,5,3541,-25,5
1543,-20,5,3542,-25,5
1544,-19,5,3543,-25,5
1545,-20,5,3544,-25,5
1546,-20,5,3545,-24,5
1547,-20,5,3546,-23,5
1548,-19,5,3547,-22,5
1549,-20,5,3548,-22,5
1550,-21,5,3549,-22,5
1551,-21,5,3550,-21,5
1552,-21,5,3551,-21,5
1553,-21,5,3552,-22,5
1554,-21,5,3553,-23,5
1555,-20,5,3554,-23,5
1556,-19,5,3555,-23,5
1557,-19,5,3556,-22,5
1558,-20,5,3557,-22,5
1559,-20,5,3558,-21,5
1560,-19,5,3559,-20,5
1561,-19,5,3560,-20,5
1562,-19,5,3561,-21,5
1563,-19,5,3562,-21,5
1564,-18,5,3563,-20,5
1565,-18,5,3564,-20,5
1566,-18,5,3565,-19,5
1567,-18,5,3566,-19,5
1568,-18,5,3567,-19,5
1569,-18,5,3568,-19,5
1570,-17,5,3569,-20,5
1571,-16,5,3570,-21,5
1572,-16,5,3571,-21,5
1573,-16,5,3572,-20,5
1574,-18,5,3573,-21,5
1575,-18,5,3574,-21,5
1576,-18,5,3575,-21,5
1577,-18,5,3576,-21,5
1578,-17,5,3577,-22,5
1579,-17,5,3578,-22,5
1580,-16,5,3579,-22,5
1581,-15,5,3580,-22,5
1582,-15,5,3581,-22,5
1583,-16,5,3582,-21,5
1584,-15,5,3583,-21,5
1585,-13,5,3584,-22,5
1586,-12,5,3585,-23,5
1587,-11,5,3586,-22,5
1588,-13,5,3587,-22,5
1589,-14,5,3588,-22,5
1590,-14,5,3589,-22,5
1591,-15,5,3590,-22,5
1592,-15,5,3591,-21,5
1593,-16,5,3592,-22,5
1594,-16,5,3593,-23,5
1595,-15,5,3594,-23,5
1596,-14,5,3595,-23,5
1597,-12,5,3596,-24,5
1598,-12,5,3597,-24,5
1599,-13,5,3598,-22,5
1600,-15,5,3599,-22,5
1601,-15,5,3600,-23,5
1602,-15,5,3601,-22,5
1603,-15,5,3602,-22,5
1604,-14,5,3603,-23,5
1605,-12,5,3604,-24,5
1606,-10,5,3605,-23,5
1607,-9,5,3606,-23,5
1608,-7,5,3607,-22,5
1609,-6,5,3608,-22,5
1610,-5,5,3609,-22,5
1611,-3,5,3610,-23,5
1612,-3,5,3611,-24,5
1613,-4,5,3612,-24,5
1614,-5,5,3613,-24,5
1615,-4,5,3614,-25,5
1616,-5,5,3615,-24,5
1617,-4,5,3616,-23,5
1618,-4,5,3617,-22,5
1619,-5,5,3618,-22,5
1620,-8,5,3619,-21,5
1621,-10,5,3620,-21,5
1622,-11,5,3621,-23,5
1623,-13,5,3622,-23,5
1624,-15,5,3623,-21,5
1625,-16,5,3624,-21,5
1626,-17,5,3625,-21,5
1627,-18,5,3626,-21,5
1628,-18,5,3627,-22,5
1629,-18,5,3628,-21,5
1630,-17,5,3629,-22,5
1631,-18,5,3630,-22,5
1632,-21,5,3631,-23,5
1633,-21,5,3632,-22,5
1634,-21,5,3633,-20,5
1635,-20,5,3634,-19,5
1636,-20,5,3635,-19,5
1637,-20,5,3636,-19,5
1638,-21,5,3637,-20,5
1639,-21,5,3638,-20,5
1640,-21,5,3639,-20,5
1641,-21,5,3640,-19,5
1642,-21,5,3641,-18,5
1643,-22,5,3642,-18,5
1644,-22,5,3643,-18,5
1645,-22,5,3644,-18,5
1646,-23,5,3645,-18,5
1647,-21,5,3646,-17,5
1648,-20,5,3647,-16,5
1649,-20,5,3648,-17,5
1650,-18,5,3649,-18,5
1651,-18,5,3650,-17,5
1652,-18,5,3651,-17,5
1653,-18,5,3652,-16,5
1654,-17,5,3653,-17,5
1655,-16,5,3654,-17,5
1656,-15,5,3655,-18,5
1657,-13,5,3656,-18,5
1658,-9,5,3657,-16,5
1659,-6,5,3658,-15,5
1660,4,5,3659,-13,5
1661,22,5,3660,-11,5
1662,44,5,3661,-10,5
1663,72,5,3662,-9,5
1664,107,5,3663,-9,5
1665,146,5,3664,-10,5
1666,168,5,3665,-9,5
1667,168,5,3666,-9,5
1668,168,5,3667,-8,5
1669,168,5,3668,-9,5
1670,168,5,3669,-10,5
1671,168,5,3670,-12,5
1672,168,5,3671,-14,5
1673,168,5,3672,-16,5
1674,168,5,3673,-17,5
1675,154,5,3674,-19,5
1676,100,5,3675,-21,5
1677,56,5,3676,-22,5
1678,20,5,3677,-24,5
1679,-5,5,3678,-24,5
1680,-23,5,3679,-25,5
1681,-29,5,3680,-27,5
1682,-29,5,3681,-26,5
1683,-29,5,3682,-26,5
1684,-29,5,3683,-25,5
1685,-29,5,3684,-25,5
1686,-29,5,3685,-24,5
1687,-28,5,3686,-25,5
1688,-25,5,3687,-26,5
1689,-23,5,3688,-27,5
1690,-20,5,3689,-27,5
1691,-19,5,3690,-26,5
1692,-18,5,3691,-25,5
1693,-18,5,3692,-25,5
1694,-16,5,3693,-25,5
1695,-16,5,3694,-24,5
1696,-18,5,3695,-24,5
1697,-18,5,3696,-24,5
1698,-18,5,3697,-24,5
1699,-18,5,3698,-25,5
1700,-17,5,3699,-26,5
1701,-18,5,3700,-26,5
1702,-17,5,3701,-26,5
1703,-16,5,3702,-26,5
1704,-15,5,3703,-27,5
1705,-15,5,3704,-27,5
1706,-15,5,3705,-25,5
1707,-14,5,3706,-24,5
1708,-14,5,3707,-21,5
1709,-14,5,3708,-18,5
1710,-15,5,3709,-16,5
1711,-16,5,3710,-14,5
1712,-15,5,3711,-4,5
1713,-15,5,3712,17,5
1714,-15,5,3713,43,5
1715,-16,5,3714,75,5
1716,-16,5,3715,111,5
1717,-17,5,3716,148,5
1718,-16,5,3717,168,5
1719,-14,5,3718,168,5
1720,-13,5,3719,168,5
1721,-12,5,3720,168,5
1722,-12,5,3721,168,5
1723,-12,5,3722,168,5
1724,-12,5,3723,168,5
1725,-13,5,3724,168,5
1726,-12,5,3725,168,5
1727,-12,5,3726,121,5
1728,-13,5,3727,69,5
1729,-13,5,3728,28,5
1730,-12,5,3729,-2,5
1731,-12,5,3730,-23,5
1732,-12,5,3731,-29,5
1733,-11,5,3732,-29,5
1734,-11,5,3733,-29,5
1735,-12,5,3734,-29,5
1736,-13,5,3735,-29,5
1737,-13,5,3736,-29,5
1738,-13,5,3737,-29,5
1739,-12,5,3738,-29,5
1740,-13,5,3739,-29,5
1741,-13,5,3740,-29,5
1742,-11,5,3741,-29,5
1743,-10,5,3742,-29,5
1744,-11,5,3743,-29,5
1745,-13,5,3744,-28,5
1746,-13,5,3745,-25,5
1747,-12,5,3746,-24,5
1748,-12,5,3747,-22,5
1749,-14,5,3748,-20,5
1750,-14,5,3749,-18,5
1751,-13,5,3750,-18,5
1752,-12,5,3751,-19,5
1753,-11,5,3752,-21,5
1754,-11,5,3753,-22,5
1755,-11,5,3754,-21,5
1756,-11,5,3755,-20,5
1757,-11,5,3756,-20,5
1758,-11,5,3757,-21,5
1759,-10,5,3758,-21,5
1760,-10,5,3759,-22,5
1761,-10,5,3760,-21,5
1762,-11,5,3761,-20,5
1763,-10,5,3762,-20,5
1764,-9,5,3763,-19,5
1765,-8,5,3764,-19,5
1766,-7,5,3765,-20,5
1767,-5,5,3766,-20,5
1768,-4,5,3767,-20,5
1769,-2,5,3768,-19,5
1770,-1,5,3769,-17,5
1771,-1,5,3770,-16,5
1772,-2,5,3771,-16,5
1773,-2,5,3772,-16,5
1774,0,5,3773,-17,5
1775,1,5,3774,-17,5
1776,2,5,3775,-15,5
1777,2,5,3776,-13,5
1778,4,5,3777,-13,5
1779,5,5,3778,-13,5
1780,5,5,3779,-14,5
1781,6,5,3780,-14,5
1782,6,5,3781,-15,5
1783,7,5,3782,-16,5
1784,9,5,3783,-18,5
1785,11,5,3784,-18,5
1786,13,5,3785,-17,5
1787,12,5,3786,-16,5
1788,13,5,3787,-15,5
1789,13,5,3788,-14,5
1790,16,5,3789,-14,5
1791,18,5,3790,-14,5
1792,19,5,3791,-15,5
1793,22,5,3792,-15,5
1794,26,5,3793,-15,5
1795,28,5,3794,-14,5
1796,29,5,3795,-15,5
1797,29,5,3796,-15,5
1798,30,5,3797,-14,5
1799,30,5,3798,-13,5
1800,32,5,3799,-13,5
1801,34,5,3800,-13,5
1802,34,5,3801,-12,5
1803,35,5,3802,-13,5
1804,36,5,3803,-13,5
1805,37,5,3804,-12,5
1806,38,5,3805,-11,5
1807,39,5,3806,-10,5
1808,41,5,3807,-11,5
1809,42,5,3808,-12,5
1810,43,5,3809,-11,5
1811,44,5,3810,-10,5
1812,42,5,3811,-8,5
1813,39,5,3812,-8,5
1814,39,5,3813,-8,5
1815,38,5,3814,-8,5
1816,39,5,3815,-7,5
1817,40,5,3816,-5,5
1818,40,5,3817,-5,5
1819,40,5,3818,-4,5
1820,38,5,3819,-3,5
1821,36,5,3820,-3,5
1822,34,5,3821,-3,5
1823,34,5,3822,-1,5
1824,33,5,3823,0,5
1825,32,5,3824,0,5
1826,30,5,3825,1,5
1827,27,5,3826,3,5
1828,25,5,3827,3,5
1829,24,5,3828,2,5
1830,23,5,3829,3,5
1831,22,5,3830,4,5
1832,20,5,3831,6,5
1833,17,5,3832,7,5
1834,14,5,3833,9,5
1835,13,5,3834,9,5
1836,11,5,3835,9,5
1837,8,5,3836,10,5
1838,6,5,3837,12,5
1839,4,5,3838,13,5
1840,1,5,3839,15,5
1841,0,5,3840,17,5
1842,-2,5,3841,19,5
1843,-4,5,3842,21,5
1844,-6,5,3843,22,5
1845,-8,5,3844,23,5
1846,-10,5,3845,25,5
1847,-10,5,3846,26,5
1848,-10,5,3847,27,5
1849,-11,5,3848,28,5
1850,-12,5,3849,30,5
1851,-14,5,3850,31,5
1852,-16,5,3851,33,5
1853,-16,5,3852,34,5
1854,-17,5,3853,36,5
1855,-18,5,3854,38,5
1856,-17,5,3855,40,5
1857,-17,5,3856,41,5
1858,-17,5,3857,42,5
1859,-18,5,3858,44,5
1860,-19,5,3859,44,5
1861,-19,5,3860,43,5
1862,-20,5,3861,43,5
1863,-21,5,3862,43,5
1864,-22,5,3863,42,5
1865,-23,5,3864,42,5
1866,-23,5,3865,43,5
1867,-23,5,3866,42,5
1868,-23,5,3867,42,5
1869,-22,5,3868,42,5
1870,-22,5,3869,41,5
1871,-23,5,3870,42,5
1872,-22,5,3871,42,5
1873,-22,5,3872,41,5
1874,-23,5,3873,39,5
1875,-24,5,3874,38,5
1876,-24,5,3875,36,5
1877,-23,5,3876,35,5
1878,-23,5,3877,34,5
1879,-24,5,3878,31,5
1880,-26,5,3879,28,5
1881,-25,5,3880,26,5
1882,-25,5,3881,25,5
1883,-26,5,3882,22,5
1884,-27,5,3883,20,5
1885,-28,5,3884,19,5
1886,-28,5,3885,16,5
1887,-28,5,3886,13,5
1888,-28,5,3887,11,5
1889,-27,5,3888,9,5
1890,-27,5,3889,7,5
1891,-28,5,3890,4,5
1892,-29,5,3891,2,5
1893,-29,5,3892,1,5
1894,-29,5,3893,0,5
1895,-29,5,3894,-2,5
1896,-28,5,3895,-4,5
1897,-28,5,3896,-7,5
1898,-29,5,3897,-8,5
1899,-29,5,3898,-9,5
1900,-29,5,3899,-9,5
1901,-29,5,3900,-12,5
1902,-29,5,3901,-13,5
1903,-29,5,3902,-14,5
1904,-28,5,3903,-16,5
1905,-27,5,3904,-16,5
1906,-27,5,3905,-14,5
1907,-27,5,3906,-14,5
1908,-26,5,3907,-13,5
1909,-25,5,3908,-15,5
1910,-25,5,3909,-15,5
1911,-24,5,3910,-16,5
1912,-23,5,3911,-16,5
1913,-23,5,3912,-17,5
1914,-24,5,3913,-19,5
1915,-26,5,3914,-21,5
1916,-25,5,3915,-21,5
1917,-24,5,3916,-21,5
1918,-24,5,3917,-21,5
1919,-24,5,3918,-21,5
1920,-23,5,3919,-21,5
1921,-22,5,3920,-21,5
1922,-22,5,3921,-21,5
1923,-22,5,3922,-21,5
1924,-21,5,3923,-22,5
1925,-20,5,3924,-23,5
1926,-19,5,3925,-24,5
1927,-18,5,3926,-25,5
1928,-18,5,3927,-26,5
1929,-18,5,3928,-27,5
1930,-17,5,3929,-28,5
1931,-16,5,3930,-28,5
1932,-16,5,3931,-28,5
1933,-17,5,3932,-28,5
1934,-18,5,3933,-28,5
1935,-18,5,3934,-28,5
1936,-18,5,3935,-29,5
1937,-19,5,3936,-29,5
1938,-18,5,3937,-29,5
1939,-18,5,3938,-29,5
1940,-19,5,3939,-29,5
1941,-19,5,3940,-28,5
1942,-18,5,3941,-27,5
1943,-16,5,3942,-26,5
1944,-16,5,3943,-27,5
1945,-15,5,3944,-28,5
1946,-15,5,3945,-27,5
1947,-16,5,3946,-26,5
1948,-17,5,3947,-25,5
1949,-16,5,3948,-25,5
1950,-15,5,3949,-25,5
1951,-14,5,3950,-26,5
1952,-15,5,3951,-27,5
1953,-17,5,3952,-27,5
1954,-19,5,3953,-26,5
1955,-19,5,3954,-25,5
1956,-19,5,3955,-23,5
1957,-19,5,3956,-22,5
1958,-19,5,3957,-22,5
1959,-19,5,3958,-21,5
1960,-19,5,3959,-21,5
1961,-20,5,3960,-21,5
1962,-20,5,3961,-21,5
1963,-20,5,3962,-20,5
1964,-20,5,3963,-19,5
1965,-19,5,3964,-19,5
1966,-18,5,3965,-19,5
1967,-18,5,3966,-17,5
1968,-18,5,3967,-16,5
1969,-18,5,3968,-16,5
1970,-19,5,3969,-16,5
1971,-19,5,3970,-16,5
1972,-19,5,3971,-16,5
1973,-19,5,3972,-17,5
1974,-20,5,3973,-17,5
1975,-20,5,3974,-17,5
1976,-19,5,3975,-16,5
1977,-19,5,3976,-15,5
1978,-19,5,3977,-15,5
1979,-19,5,3978,-16,5
1980,-20,5,3979,-17,5
1981,-20,5,3980,-17,5
1982,-20,5,3981,-16,5
1983,-20,5,3982,-15,5
1984,-21,5,3983,-15,5
1985,-20,5,3984,-14,5
1986,-20,5,3985,-14,5
1987,-19,5,3986,-14,5
1988,-19,5,3987,-14,5
1989,-19,5,3988,-14,5
1990,-19,5,3989,-14,5
1991,-19,5,3990,-14,5
1992,-19,5,3991,-15,5
1993,-19,5,3992,-17,5
1994,-20,5,3993,-17,5
1995,-20,5,3994,-17,5
1996,-19,5,3995,-16,5
1997,-19,5,3996,-15,5
1998,-19,5,3997,-15,5
1999,-19,5,3998,-15,5
2000,-21,5,3999,-17,5
2001,-21,5,4000,-18,5
2002,-21,5,4001,-19,5
2003,-20,5,4002,-19,5
2004,-21,5,4003,-18,5
2005,-23,5,4004,-18,5
2006,-22,5,4005,-19,5
2007,-21,5,4006,-18,5
2008,-21,5,4007,-19,5
2009,-22,5,4008,-18,5
2010,-22,5,4009,-18,5
2011,-21,5,4010,-17,5
2012,-20,5,4011,-17,5
2013,-20,5,4012,-17,5
2014,-21,5,4013,-17,5
2015,-22,5,4014,-18,5
2016,-22,5,4015,-19,5
2017,-21,5,4016,-20,5
2018,-21,5,4017,-20,5
2019,-20,5,4018,-20,5
2020,-21,5,4019,-20,5
2021,-21,5,4020,-20,5
2022,-19,5,4021,-21,5
2023,-19,5,4022,-21,5
2024,-20,5,4023,-21,5
2025,-21,5,4024,-21,5
2026,-22,5,4025,-22,5
2027,-21,5,4026,-22,5
2028,-20,5,4027,-22,5
2029,-19,5,4028,-23,5
2030,-18,5,4029,-22,5
2031,-17,5,4030,-22,5
2032,-17,5,4031,-23,5
2033,-19,5,4032,-23,5
2034,-20,5,4033,-24,5
2035,-22,5,4034,-23,5
2036,-20,5,4035,-22,5
2037,-19,5,4036,-23,5
2038,-19,5,4037,-24,5
2039,-21,5,4038,-24,5
2040,-21,5,4039,-24,5
2041,-21,5,4040,-24,5
2042,-22,5,4041,-24,5
2043,-22,5,4042,-26,5
2044,-21,5,4043,-27,5
2045,-21,5,4044,-27,5
2046,-20,5,4045,-26,5
2047,-20,5,4046,-24,5
2048,-19,5,4047,-24,5
2049,-20,5,4048,-25,5
2050,-20,5,4049,-24,5
2051,-20,5,4050,-24,5
2052,-20,5,4051,-24,5
2053,-21,5,4052,-25,5
2054,-21,5,4053,-24,5
2055,-21,5,4054,-24,5
2056,-21,5,4055,-24,5
2057,-23,5,4056,-24,5
2058,-21,5,4057,-24,5
2059,-20,5,4058,-25,5
2060,-19,5,4059,-24,5
2061,-19,5,4060,-24,5
2062,-20,5,4061,-24,5
2063,-22,5,4062,-23,5
2064,-23,5,4063,-23,5
2065,-23,5,4064,-24,5
2066,-22,5,4065,-22,5
2067,-22,5,4066,-20,5
2068,-21,5,4067,-20,5
2069,-20,5,4068,-19,5
2070,-20,5,4069,-20,5
2071,-19,5,4070,-21,5
2072,-19,5,4071,-23,5
2073,-20,5,4072,-24,5
2074,-20,5,4073,-25,5
2075,-21,5,4074,-24,5
2076,-21,5,4075,-24,5
2077,-19,5,4076,-25,5
2078,-18,5,4077,-25,5
2079,-18,5,4078,-25,5
2080,-18,5,4079,-23,5
2081,-18,5,4080,-22,5
2082,-18,5,4081,-22,5
2083,-19,5,4082,-21,5
2084,-18,5,4083,-20,5
2085,-19,5,4084,-20,5
2086,-19,5,4085,-20,5
2087,-19,5,4086,-21,5
2088,-19,5,4087,-20,5
2089,-20,5,4088,-19,5
2090,-20,5,4089,-18,5
2091,-20,5,4090,-18,5
2092,-20,5,4091,-18,5
2093,-20,5,4092,-17,5
2094,-20,5,4093,-16,5
2095,-18,5,4094,-16,5
2096,-18,5,4095,-17,5
2097,-18,5,4096,-19,5
2098,-18,5,4097,-21,5
2099,-18,5,4098,-22,5
2100,-19,5,4099,-22,5
2101,-19,5,4100,-23,5
2102,-18,5,4101,-23,5
2103,-17,5,4102,-23,5
2104,-16,5,4103,-22,5
2105,-16,5,4104,-20,5
2106,-15,5,4105,-19,5
2107,-15,5,4106,-19,5
2108,-14,5,4107,-19,5
2109,-14,5,4108,-18,5
2110,-13,5,4109,-16,5
2111,-13,5,4110,-16,5
2112,-13,5,4111,-18,5
2113,-13,5,4112,-20,5
2114,-12,5,4113,-20,5
2115,-11,5,4114,-20,5
2116,-11,5,4115,-19,5
2117,-11,5,4116,-19,5
2118,-10,5,4117,-19,5
2119,-10,5,4118,-19,5
2120,-10,5,4119,-18,5
2121,-10,5,4120,-16,5
2122,-10,5,4121,-15,5
2123,-10,5,4122,-15,5
2124,-10,5,4123,-15,5
2125,-10,5,4124,-16,5
2126,-8,5,4125,-16,5
2127,-5,5,4126,-16,5
2128,-3,5,4127,-17,5
2129,-3,5,4128,-18,5
2130,-3,5,4129,-18,5
2131,-3,5,4130,-18,5
2132,-5,5,4131,-17,5
2133,-5,5,4132,-16,5
2134,-6,5,4133,-14,5
2135,-7,5,4134,-12,5
2136,-9,5,4135,-12,5
2137,-11,5,4136,-12,5
2138,-13,5,4137,-12,5
2139,-15,5,4138,-13,5
2140,-16,5,4139,-12,5
2141,-17,5,4140,-12,5
2142,-18,5,4141,-12,5
2143,-19,5,4142,-12,5
2144,-20,5,4143,-11,5
2145,-21,5,4144,-11,5
2146,-21,5,4145,-12,5
2147,-21,5,4146,-13,5
2148,-21,5,4147,-15,5
2149,-21,5,4148,-15,5
2150,-21,5,4149,-14,5
2151,-20,5,4150,-13,5
2152,-20,5,4151,-12,5
2153,-20,5,4152,-12,5
2154,-20,5,4153,-11,5
2155,-20,5,4154,-10,5
2156,-21,5,4155,-9,5
2157,-21,5,4156,-9,5
2158,-21,5,4157,-8,5
2159,-22,5,4158,-8,5
2160,-22,5,4159,-9,5
2161,-22,5,4160,-10,5
2162,-21,5,4161,-9,5
2163,-21,5,4162,-7,5
2164,-21,5,4163,-7,5
2165,-22,5,4164,-6,5
2166,-20,5,4165,-5,5
2167,-17,5,4166,-4,5
2168,-17,5,4167,-3,5
2169,-17,5,4168,-3,5
2170,-18,5,4169,-3,5
2171,-18,5,4170,-2,5
2172,-16,5,4171,0,5
2173,-13,5,4172,0,5
2174,-10,5,4173,0,5
2175,-4,5,4174,-1,5
2176,6,5,4175,-4,5
2177,24,5,4176,-7,5
2178,45,5,4177,-12,5
2179,73,5,4178,-14,5
2180,107,5,4179,-15,5
2181,146,5,4180,-16,5
2182,168,5,4181,-17,5
2183,168,5,4182,-18,5
2184,168,5,4183,-19,5
2185,168,5,4184,-19,5
2186,168,5,4185,-19,5
2187,168,5,4186,-19,5
2188,168,5,4187,-18,5
2189,168,5,4188,-18,5
2190,168,5,4189,-18,5
2191,147,5,4190,-18,5
2192,96,5,4191,-18,5
2193,53,5,4192,-19,5
2194,19,5,4193,-19,5
2195,-6,5,4194,-18,5
2196,-22,5,4195,-18,5
2197,-29,5,4196,-19,5
2198,-29,5,4197,-20,5
2199,-29,5,4198,-20,5
2200,-29,5,4199,-21,5
2201,-29,5,4200,-20,5
2202,-29,5,4201,-18,5
2203,-27,5,4202,-17,5
2204,-25,5,4203,-17,5
2205,-23,5,4204,-19,5
2206,-22,5,4205,-20,5
2207,-21,5,4206,-19,5
2208,-20,5,4207,-19,5
2209,-19,5,4208,-18,5
2210,-19,5,4209,-17,5
2211,-18,5,4210,-15,5
2212,-17,5,4211,-14,5
2213,-17,5,4212,-12,5
2214,-18,5,4213,-10,5
2215,-18,5,4214,-8,5
2216,-19,5,4215,-1,5
2217,-19,5,4216,13,5
2218,-19,5,4217,33,5
2219,-19,5,4218,58,5
2220,-19,5,4219,90,5
2221,-18,5,4220,127,5
2222,-17,5,4221,165,5
2223,-17,5,4222,168,5
2224,-16,5,4223,168,5
2225,-16,5,4224,168,5
2226,-17,5,4225,168,5
2227,-17,5,4226,168,5
2228,-17,5,4227,168,5
2229,-17,5,4228,168,5
2230,-17,5,4229,168,5
2231,-16,5,4230,168,5
2232,-15,5,4231,132,5
2233,-15,5,4232,82,5
2234,-14,5,4233,41,5
2235,-14,5,4234,9,5
2236,-13,5,4235,-14,5
2237,-14,5,4236,-27,5
2238,-13,5,4237,-29,5
2239,-13,5,4238,-29,5
2240,-13,5,4239,-29,5
2241,-13,5,4240,-28,5
2242,-14,5,4241,-25,5
2243,-14,5,4242,-23,5
2244,-15,5,4243,-21,5
2245,-14,5,4244,-19,5
2246,-12,5,4245,-18,5
2247,-11,5,4246,-20,5
2248,-11,5,4247,-20,5
2249,-13,5,4248,-18,5
2250,-15,5,4249,-18,5
2251,-15,5,4250,-18,5
2252,-17,5,4251,-18,5
2253,-15,5,4252,-19,5
2254,-15,5,4253,-20,5
2255,-14,5,4254,-20,5
2256,-15,5,4255,-19,5
2257,-14,5,4256,-18,5
2258,-14,5,4257,-19,5
2259,-13,5,4258,-18,5
2260,-13,5,4259,-17,5
2261,-14,5,4260,-17,5
2262,-15,5,4261,-17,5
2263,-14,5,4262,-18,5
2264,-12,5,4263,-17,5
2265,-11,5,4264,-16,5
2266,-11,5,4265,-16,5
2267,-11,5,4266,-16,5
2268,-11,5,4267,-15,5
2269,-10,5,4268,-15,5
2270,-10,5,4269,-16,5
2271,-10,5,4270,-15,5
2272,-10,5,4271,-14,5
2273,-10,5,4272,-14,5
2274,-10,5,4273,-14,5
2275,-10,5,4274,-14,5
2276,-10,5,4275,-15,5
2277,-10,5,4276,-14,5
2278,-11,5,4277,-14,5
2279,-12,5,4278,-14,5
2280,-10,5,4279,-14,5
2281,-9,5,4280,-14,5
2282,-7,5,4281,-14,5
2283,-6,5,4282,-14,5
2284,-4,5,4283,-13,5
2285,-4,5,4284,-13,5
2286,-4,5,4285,-13,5
2287,-2,5,4286,-13,5
2288,-1,5,4287,-13,5
2289,0,5,4288,-14,5
2290,0,5,4289,-14,5
2291,0,5,4290,-14,5
2292,1,5,4291,-15,5
2293,3,5,4292,-14,5
2294,3,5,4293,-14,5
2295,4,5,4294,-14,5
2296,5,5,4295,-14,5
2297,5,5,4296,-13,5
2298,6,5,4297,-11,5
2299,9,5,4298,-11,5
2300,10,5,4299,-12,5
2301,12,5,4300,-14,5
2302,12,5,4301,-14,5
2303,12,5,4302,-13,5
2304,14,5,4303,-12,5
2305,15,5,4304,-12,5
2306,16,5,4305,-12,5
2307,17,5,4306,-12,5
2308,19,5,4307,-11,5
2309,20,5,4308,-12,5
2310,21,5,4309,-12,5
2311,22,5,4310,-12,5
2312,23,5,4311,-12,5
2313,24,5,4312,-11,5
2314,26,5,4313,-9,5
2315,29,5,4314,-8,5
2316,31,5,4315,-8,5
2317,32,5,4316,-8,5
2318,34,5,4317,-8,5
2319,35,5,4318,-9,5
2320,35,5,4319,-8,5
2321,37,5,4320,-6,5
2322,39,5,4321,-4,5
2323,40,5,4322,-2,5
2324,40,5,4323,-2,5
2325,41,5,4324,-3,5
2326,42,5,4325,-4,5
2327,41,5,4326,-3,5
2328,40,5,4327,-2,5
2329,39,5,4328,0,5
2330,40,5,4329,1,5
2331,41,5,4330,2,5
2332,40,5,4331,2,5
2333,39,5,4332,2,5
2334,39,5,4333,3,5
2335,38,5,4334,4,5
2336,37,5,4335,4,5
2337,35,5,4336,5,5
2338,35,5,4337,5,5
2339,34,5,4338,6,5
2340,33,5,4339,8,5
2341,31,5,4340,8,5
2342,29,5,4341,9,5
2343,26,5,4342,10,5
2344,25,5,4343,12,5
2345,22,5,4344,14,5
2346,20,5,4345,16,5
2347,18,5,4346,18,5
2348,16,5,4347,20,5
2349,15,5,4348,21,5
2350,14,5,4349,23,5
2351,11,5,4350,24,5
2352,8,5,4351,26,5
2353,5,5,4352,28,5
2354,3,5,4353,28,5
2355,1,5,4354,28,5
2356,0,5,4355,32,5
2357,0,5,4356,34,5
2358,-2,5,4357,36,5
2359,-3,5,4358,37,5
2360,-5,5,4359,40,5
2361,-6,5,4360,41,5
2362,-7,5,4361,42,5
2363,-9,5,4362,43,5
2364,-11,5,4363,43,5
2365,-12,5,4364,43,5
2366,-14,5,4365,43,5
2367,-15,5,4366,43,5
2368,-16,5,4367,44,5
2369,-17,5,4368,44,5
2370,-18,5,4369,44,5
2371,-19,5,4370,44,5
2372,-19,5,4371,43,5
2373,-20,5,4372,44,5
2374,-20,5,4373,45,5
2375,-20,5,4374,44,5
2376,-20,5,4375,43,5
2377,-21,5,4376,42,5
2378,-21,5,4377,41,5
2379,-21,5,4378,40,5
2380,-21,5,4379,38,5
2381,-21,5,4380,37,5
2382,-21,5,4381,35,5
2383,-22,5,4382,33,5
2384,-22,5,4383,30,5
2385,-24,5,4384,28,5
2386,-25,5,4385,25,5
2387,-25,5,4386,24,5
2388,-24,5,4387,23,5
2389,-25,5,4388,21,5
2390,-25,5,4389,19,5
2391,-26,5,4390,16,5
2392,-26,5,4391,12,5
2393,-26,5,4392,10,5
2394,-26,5,4393,7,5
2395,-27,5,4394,5,5
2396,-27,5,4395,2,5
2397,-28,5,4396,0,5
2398,-29,5,4397,0,5
2399,-29,5,4398,-2,5
2400,-29,5,4399,-4,5
2401,-29,5,4400,-4,5
2402,-29,5,4401,-4,5
2403,-29,5,4402,-5,5
2404,-29,5,4403,-7,5
2405,-29,5,4404,-8,5
2406,-29,5,4405,-11,5
2407,-29,5,4406,-13,5
2408,-29,5,4407,-14,5
2409,-29,5,4408,-15,5
2410,-29,5,4409,-16,5
2411,-29,5,4410,-16,5
2412,-29,5,4411,-16,5
2413,-29,5,4412,-16,5
2414,-29,5,4413,-18,5
2415,-29,5,4414,-18,5
2416,-29,5,4415,-17,5
2417,-29,5,4416,-17,5
2418,-29,5,4417,-18,5
2419,-29,5,4418,-18,5
2420,-28,5,4419,-18,5
2421,-28,5,4420,-19,5
2422,-29,5,4421,-20,5
2423,-29,5,4422,-21,5
2424,-29,5,4423,-21,5
2425,-29,5,4424,-20,5
2426,-29,5,4425,-20,5
2427,-29,5,4426,-22,5
2428,-29,5,4427,-23,5
2429,-28,5,4428,-22,5
2430,-28,5,4429,-21,5
2431,-28,5,4430,-21,5
2432,-27,5,4431,-22,5
2433,-27,5,4432,-23,5
2434,-27,5,4433,-23,5
2435,-25,5,4434,-24,5
2436,-23,5,4435,-24,5
2437,-21,5,4436,-23,5
2438,-21,5,4437,-22,5
2439,-21,5,4438,-23,5
2440,-21,5,4439,-25,5
2441,-21,5,4440,-26,5
2442,-22,5,4441,-26,5
2443,-22,5,4442,-26,5
2444,-21,5,4443,-26,5
2445,-21,5,4444,-27,5
2446,-22,5,4445,-27,5
2447,-22,5,4446,-27,5
2448,-22,5,4447,-26,5
2449,-23,5,4448,-26,5
2450,-22,5,4449,-27,5
2451,-21,5,4450,-27,5
2452,-21,5,4451,-26,5
2453,-20,5,4452,-25,5
2454,-21,5,4453,-25,5
2455,-20,5,4454,-26,5
2456,-18,5,4455,-26,5
2457,-16,5,4456,-27,5
2458,-16,5,4457,-28,5
2459,-16,5,4458,-26,5
2460,-16,5,4459,-25,5
2461,-18,5,4460,-25,5
2462,-20,5,4461,-25,5
2463,-22,5,4462,-24,5
2464,-22,5,4463,-24,5
2465,-23,5,4464,-24,5
2466,-23,5,4465,-24,5
2467,-21,5,4466,-24,5
2468,-20,5,4467,-23,5
2469,-19,5,4468,-23,5
2470,-18,5,4469,-24,5
2471,-17,5,4470,-23,5
2472,-17,5,4471,-22,5
2473,-18,5,4472,-22,5
2474,-19,5,4473,-21,5
2475,-19,5,4474,-20,5
2476,-19,5,4475,-20,5
2477,-19,5,4476,-20,5
2478,-22,5,4477,-20,5
2479,-23,5,4478,-20,5
2480,-24,5,4479,-20,5
2481,-23,5,4480,-21,5
2482,-22,5,4481,-22,5
2483,-22,5,4482,-21,5
2484,-22,5,4483,-18,5
2485,-22,5,4484,-17,5
2486,-21,5,4485,-17,5
2487,-20,5,4486,-17,5
2488,-20,5,4487,-17,5
2489,-21,5,4488,-16,5
2490,-21,5,4489,-16,5
2491,-22,5,4490,-17,5
2492,-22,5,4491,-17,5
2493,-21,5,4492,-17,5
2494,-21,5,4493,-17,5
2495,-21,5,4494,-18,5
2496,-20,5,4495,-19,5
2497,-19,5,4496,-18,5
2498,-20,5,4497,-18,5
2499,-21,5,4498,-18,5
2500,-22,5,4499,-19,5
2501,-23,5,4500,-19,5
2502,-24,5,4501,-17,5
2503,-24,5,4502,-17,5
2504,-24,5,4503,-17,5
2505,-23,5,4504,-17,5
2506,-23,5,4505,-17,5
2507,-24,5,4506,-18,5
2508,-25,5,4507,-17,5
2509,-24,5,4508,-16,5
2510,-23,5,4509,-15,5
2511,-23,5,4510,-15,5
2512,-23,5,4511,-15,5
2513,-23,5,4512,-15,5
2514,-22,5,4513,-16,5
2515,-22,5,4514,-16,5
2516,-21,5,4515,-16,5
2517,-21,5,4516,-16,5
2518,-22,5,4517,-17,5
2519,-23,5,4518,-16,5
2520,-23,5,4519,-17,5
2521,-23,5,4520,-16,5
2522,-23,5,4521,-16,5
2523,-23,5,4522,-17,5
2524,-22,5,4523,-19,5
2525,-23,5,4524,-20,5
2526,-25,5,4525,-20,5
2527,-25,5,4526,-20,5
2528,-24,5,4527,-20,5
2529,-23,5,4528,-18,5
2530,-24,5,4529,-17,5
2531,-24,5,4530,-17,5
2532,-24,5,4531,-18,5
2533,-23,5,4532,-18,5
2534,-22,5,4533,-17,5
2535,-20,5,4534,-16,5
2536,-20,5,4535,-18,5
2537,-20,5,4536,-19,5
2538,-19,5,4537,-19,5
2539,-20,5,4538,-21,5
2540,-22,5,4539,-21,5
2541,-22,5,4540,-21,5
2542,-22,5,4541,-21,5
2543,-20,5,4542,-21,5
2544,-19,5,4543,-19,5
2545,-20,5,4544,-20,5
2546,-21,5,4545,-21,5
2547,-21,5,4546,-20,5
2548,-20,5,4547,-19,5
2549,-20,5,4548,-18,5
2550,-21,5,4549,-18,5
2551,-20,5,4550,-18,5
2552,-19,5,4551,-18,5
2553,-19,5,4552,-18,5
2554,-20,5,4553,-17,5
2555,-20,5,4554,-17,5
2556,-20,5,4555,-19,5
2557,-20,5,4556,-20,5
2558,-21,5,4557,-20,5
2559,-21,5,4558,-20,5
2560,-21,5,4559,-21,5
2561,-20,5,4560,-22,5
2562,-20,5,4561,-22,5
2563,-19,5,4562,-22,5
2564,-19,5,4563,-20,5
2565,-18,5,4564,-19,5
2566,-18,5,4565,-19,5
2567,-18,5,4566,-19,5
2568,-18,5,4567,-19,5
2569,-17,5,4568,-20,5
2570,-16,5,4569,-20,5
2571,-15,5,4570,-20,5
2572,-16,5,4571,-19,5
2573,-17,5,4572,-18,5
2574,-17,5,4573,-17,5
2575,-17,5,4574,-17,5
2576,-17,5,4575,-18,5
2577,-17,5,4576,-18,5
2578,-17,5,4577,-18,5
2579,-18,5,4578,-17,5
2580,-17,5,4579,-17,5
2581,-17,5,4580,-18,5
2582,-17,5,4581,-19,5
2583,-17,5,4582,-19,5
2584,-18,5,4583,-20,5
2585,-19,5,4584,-20,5
2586,-19,5,4585,-21,5
2587,-19,5,4586,-20,5
2588,-18,5,4587,-19,5
2589,-17,5,4588,-18,5
2590,-17,5,4589,-17,5
2591,-17,5,4590,-17,5
2592,-17,5,4591,-18,5
2593,-18,5,4592,-18,5
2594,-17,5,4593,-17,5
2595,-17,5,4594,-15,5
2596,-17,5,4595,-15,5
2597,-18,5,4596,-16,5
2598,-19,5,4597,-17,5
2599,-19,5,4598,-18,5
2600,-18,5,4599,-17,5
2601,-17,5,4600,-17,5
2602,-17,5,4601,-18,5
2603,-17,5,4602,-19,5
2604,-17,5,4603,-20,5
2605,-17,5,4604,-21,5
2606,-17,5,4605,-20,5
2607,-16,5,4606,-20,5
2608,-16,5,4607,-20,5
2609,-16,5,4608,-19,5
2610,-17,5,4609,-18,5
2611,-17,5,4610,-18,5
2612,-17,5,4611,-18,5
2613,-17,5,4612,-18,5
2614,-17,5,4613,-18,5
2615,-17,5,4614,-18,5
2616,-16,5,4615,-20,5
2617,-16,5,4616,-21,5
2618,-16,5,4617,-21,5
2619,-16,5,4618,-21,5
2620,-15,5,4619,-21,5
2621,-15,5,4620,-20,5
2622,-15,5,4621,-19,5
2623,-16,5,4622,-18,5
2624,-16,5,4623,-18,5
2625,-16,5,4624,-19,5
2626,-16,5,4625,-18,5
2627,-15,5,4626,-18,5
2628,-14,5,4627,-18,5
2629,-15,5,4628,-19,5
2630,-15,5,4629,-18,5
2631,-12,5,4630,-17,5
2632,-11,5,4631,-17,5
2633,-12,5,4632,-18,5
2634,-12,5,4633,-20,5
2635,-12,5,4634,-19,5
2636,-12,5,4635,-18,5
2637,-11,5,4636,-18,5
2638,-10,5,4637,-19,5
2639,-9,5,4638,-19,5
2640,-9,5,4639,-18,5
2641,-8,5,4640,-18,5
2642,-8,5,4641,-19,5
2643,-9,5,4642,-19,5
2644,-11,5,4643,-18,5
2645,-13,5,4644,-18,5
2646,-14,5,4645,-18,5
2647,-15,5,4646,-19,5
2648,-16,5,4647,-19,5
2649,-20,5,4648,-19,5
2650,-23,5,4649,-18,5
2651,-24,5,4650,-17,5
2652,-26,5,4651,-17,5
2653,-26,5,4652,-18,5
2654,-26,5,4653,-16,5
2655,-27,5,4654,-15,5
2656,-26,5,4655,-13,5
2657,-26,5,4656,-12,5
2658,-25,5,4657,-12,5
2659,-24,5,4658,-13,5
2660,-24,5,4659,-15,5
2661,-24,5,4660,-16,5
2662,-25,5,4661,-16,5
2663,-26,5,4662,-15,5
2664,-28,5,4663,-14,5
2665,-26,5,4664,-13,5
2666,-26,5,4665,-12,5
2667,-26,5,4666,-13,5
2668,-26,5,4667,-13,5
2669,-27,5,4668,-13,5
2670,-28,5,4669,-12,5
2671,-28,5,4670,-12,5
2672,-28,5,4671,-12,5
2673,-28,5,4672,-11,5
2674,-27,5,4673,-10,5
2675,-27,5,4674,-10,5
2676,-27,5,4675,-10,5
2677,-26,5,4676,-12,5
2678,-26,5,4677,-12,5
2679,-24,5,4678,-12,5
2680,-23,5,4679,-12,5
2681,-22,5,4680,-11,5
2682,-20,5,4681,-10,5
2683,-17,5,4682,-10,5
2684,-12,5,4683,-9,5
2685,2,5,4684,-9,5
2686,23,5,4685,-7,5
2687,50,5,4686,-5,5
2688,84,5,4687,-6,5
2689,121,5,4688,-6,5
2690,159,5,4689,-5,5
2691,168,5,4690,-6,5
2692,168,5,4691,-6,5
2693,168,5,4692,-7,5
2694,168,5,4693,-9,5
2695,168,5,4694,-11,5
2696,168,5,4695,-13,5
2697,168,5,4696,-14,5
2698,168,5,4697,-15,5
2699,165,5,4698,-17,5
2700,103,5,4699,-20,5
2701,54,5,4700,-22,5
2702,13,5,4701,-24,5
2703,-15,5,4702,-25,5
2704,-29,5,4703,-24,5
2705,-29,5,4704,-22,5
2706,-29,5,4705,-20,5
2707,-29,5,4706,-19,5
2708,-29,5,4707,-19,5
2709,-29,5,4708,-20,5
2710,-29,5,4709,-21,5
2711,-29,5,4710,-22,5
2712,-29,5,4711,-23,5
2713,-29,5,4712,-22,5
2714,-29,5,4713,-23,5
2715,-29,5,4714,-25,5
2716,-29,5,4715,-24,5
2717,-29,5,4716,-23,5
2718,-29,5,4717,-23,5
2719,-29,5,4718,-22,5
2720,-27,5,4719,-22,5
2721,-26,5,4720,-21,5
2722,-25,5,4721,-20,5
2723,-25,5,4722,-22,5
2724,-26,5,4723,-23,5
2725,-26,5,4724,-23,5
2726,-26,5,4725,-21,5
2727,-25,5,4726,-21,5
2728,-26,5,4727,-20,5
2729,-27,5,4728,-20,5
2730,-27,5,4729,-19,5
2731,-27,5,4730,-17,5
2732,-28,5,4731,-15,5
2733,-28,5,4732,-10,5
2734,-28,5,4733,-1,5
2735,-26,5,4734,14,5
2736,-24,5,4735,34,5
2737,-24,5,4736,61,5
2738,-24,5,4737,96,5
2739,-24,5,4738,136,5
2740,-23,5,4739,168,5
2741,-22,5,4740,168,5
2742,-22,5,4741,168,5
2743,-22,5,4742,168,5
2744,-22,5,4743,168,5
2745,-23,5,4744,168,5
2746,-23,5,4745,168,5
2747,-23,5,4746,168,5
2748,-24,5,4747,168,5
2749,-23,5,4748,168,5
2750,-22,5,4749,117,5
2751,-22,5,4750,71,5
2752,-21,5,4751,33,5
2753,-21,5,4752,5,5
2754,-21,5,4753,-15,5
2755,-20,5,4754,-26,5
2756,-20,5,4755,-29,5
2757,-19,5,4756,-29,5
2758,-19,5,4757,-29,5
2759,-19,5,4758,-29,5
2760,-21,5,4759,-29,5
2761,-21,5,4760,-28,5
2762,-19,5,4761,-27,5
2763,-18,5,4762,-27,5
2764,-18,5,4763,-26,5
2765,-18,5,4764,-25,5
2766,-18,5,4765,-24,5
2767,-19,5,4766,-25,5
2768,-19,5,4767,-23,5
2769,-18,5,4768,-23,5
2770,-18,5,4769,-23,5
2771,-17,5,4770,-23,5
2772,-16,5,4771,-22,5
2773,-16,5,4772,-22,5
2774,-15,5,4773,-21,5
2775,-14,5,4774,-22,5
2776,-14,5,4775,-21,5
2777,-15,5,4776,-21,5
2778,-15,5,4777,-21,5
2779,-16,5,4778,-21,5
2780,-15,5,4779,-22,5
2781,-14,5,4780,-22,5
2782,-13,5,4781,-22,5
2783,-13,5,4782,-21,5
2784,-14,5,4783,-21,5
2785,-14,5,4784,-21,5
2786,-13,5,4785,-19,5
2787,-11,5,4786,-19,5
2788,-9,5,4787,-18,5
2789,-9,5,4788,-17,5
2790,-9,5,4789,-18,5
2791,-9,5,4790,-18,5
2792,-8,5,4791,-18,5
2793,-7,5,4792,-18,5
2794,-7,5,4793,-17,5
2795,-5,5,4794,-15,5
2796,-4,5,4795,-14,5
2797,-3,5,4796,-13,5
2798,-3,5,4797,-13,5
2799,-2,5,4798,-12,5
2800,0,5,4799,-11,5
2801,2,5,4800,-12,5
2802,3,5,4801,-13,5
2803,4,5,4802,-14,5
2804,5,5,4803,-14,5
2805,6,5,4804,-13,5
2806,6,5,4805,-12,5
2807,7,5,4806,-11,5
2808,8,5,4807,-12,5
2809,10,5,4808,-12,5
2810,12,5,4809,-12,5
2811,12,5,4810,-12,5
2812,12,5,4811,-11,5
2813,13,5,4812,-10,5
2814,14,5,4813,-10,5
2815,16,5,4814,-10,5
2816,18,5,4815,-10,5
2817,20,5,4816,-11,5
2818,21,5,4817,-11,5
2819,22,5,4818,-11,5
2820,25,5,4819,-11,5
2821,26,5,4820,-11,5
2822,28,5,4821,-12,5
2823,30,5,4822,-12,5
2824,31,5,4823,-13,5
2825,32,5,4824,-14,5
2826,32,5,4825,-13,5
2827,34,5,4826,-11,5
2828,35,5,4827,-10,5
2829,35,5,4828,-8,5
2830,36,5,4829,-8,5
2831,37,5,4830,-7,5
2832,36,5,4831,-8,5
2833,37,5,4832,-8,5
2834,37,5,4833,-9,5
2835,38,5,4834,-10,5
2836,38,5,4835,-10,5
2837,38,5,4836,-10,5
2838,39,5,4837,-11,5
2839,39,5,4838,-11,5
2840,40,5,4839,-10,5
2841,40,5,4840,-10,5
2842,40,5,4841,-8,5
2843,40,5,4842,-7,5
2844,39,5,4843,-8,5
2845,38,5,4844,-8,5
2846,36,5,4845,-10,5
2847,34,5,4846,-10,5
2848,33,5,4847,-9,5
2849,31,5,4848,-9,5
2850,27,5,4849,-8,5
2851,25,5,4850,-8,5
2852,22,5,4851,-8,5
2853,21,5,4852,-7,5
2854,19,5,4853,-7,5
2855,18,5,4854,-6,5
2856,17,5,4855,-3,5
2857,15,5,4856,-2,5
2858,12,5,4857,-1,5
2859,9,5,4858,0,5
2860,7,5,4859,1,5
2861,5,5,4860,1,5
2862,3,5,4861,2,5
2863,2,5,4862,3,5
2864,1,5,4863,5,5
2865,0,5,4864,6,5
2866,-1,5,4865,6,5
2867,-2,5,4866,7,5
2868,-5,5,4867,7,5
2869,-8,5,4868,8,5
2870,-9,5,4869,9,5
2871,-9,5,4870,10,5
2872,-11,5,4871,11,5
2873,-12,5,4872,13,5
2874,-12,5,4873,15,5
2875,-13,5,4874,16,5
2876,-15,5,4875,18,5
2877,-15,5,4876,20,5
2878,-15,5,4877,22,5
2879,-16,5,4878,23,5
2880,-17,5,4879,25,5
2881,-19,5,4880,27,5
2882,-19,5,4881,30,5
2883,-19,5,4882,32,5
2884,-20,5,4883,32,5
2885,-21,5,4884,33,5
2886,-22,5,4885,35,5
2887,-21,5,4886,38,5
2888,-20,5,4887,40,5
2889,-20,5,4888,41,5
2890,-20,5,4889,40,5
2891,-21,5,4890,40,5
2892,-22,5,4891,38,5
2893,-23,5,4892,36,5
2894,-24,5,4893,35,5
2895,-24,5,4894,36,5
2896,-24,5,4895,37,5
2897,-26,5,4896,38,5
2898,-25,5,4897,36,5
2899,-24,5,4898,35,5
2900,-24,5,4899,33,5
2901,-25,5,4900,31,5
2902,-27,5,4901,30,5
2903,-27,5,4902,29,5
2904,-27,5,4903,27,5
2905,-27,5,4904,25,5
2906,-28,5,4905,23,5
2907,-28,5,4906,19,5
2908,-28,5,4907,16,5
2909,-28,5,4908,14,5
2910,-28,5,4909,13,5
2911,-27,5,4910,10,5
2912,-27,5,4911,7,5
2913,-26,5,4912,6,5
2914,-26,5,4913,5,5
2915,-27,5,4914,2,5
2916,-28,5,4915,-1,5
2917,-29,5,4916,-4,5
2918,-29,5,4917,-7,5
2919,-29,5,4918,-9,5
2920,-29,5,4919,-11,5
2921,-27,5,4920,-12,5
2922,-26,5,4921,-14,5
2923,-26,5,4922,-16,5
2924,-26,5,4923,-18,5
2925,-25,5,4924,-18,5
2926,-24,5,4925,-18,5
2927,-24,5,4926,-18,5
2928,-24,5,4927,-18,5
2929,-24,5,4928,-19,5
2930,-24,5,4929,-21,5
2931,-25,5,4930,-21,5
2932,-24,5,4931,-20,5
2933,-22,5,4932,-22,5
2934,-22,5,4933,-23,5
2935,-23,5,4934,-24,5
2936,-22,5,4935,-25,5
2937,-20,5,4936,-26,5
2938,-19,5,4937,-26,5
2939,-18,5,4938,-27,5
2940,-18,5,4939,-27,5
2941,-18,5,4940,-28,5
2942,-18,5,4941,-28,5
2943,-17,5,4942,-28,5
2944,-16,5,4943,-28,5
2945,-16,5,4944,-28,5
2946,-16,5,4945,-28,5
2947,-16,5,4946,-27,5
2948,-15,5,4947,-27,5
2949,-15,5,4948,-28,5
2950,-13,5,4949,-28,5
2951,-12,5,4950,-28,5
2952,-12,5,4951,-28,5
2953,-11,5,4952,-29,5
2954,-13,5,4953,-29,5
2955,-15,5,4954,-29,5
2956,-15,5,4955,-29,5
2957,-14,5,4956,-29,5
2958,-14,5,4957,-29,5
2959,-15,5,4958,-29,5
2960,-16,5,4959,-29,5
2961,-17,5,4960,-29,5
2962,-17,5,4961,-29,5
2963,-17,5,4962,-29,5
2964,-16,5,4963,-29,5
2965,-15,5,4964,-29,5
2966,-14,5,4965,-29,5
2967,-14,5,4966,-29,5
2968,-15,5,4967,-29,5
2969,-15,5,4968,-29,5
2970,-14,5,4969,-29,5
2971,-14,5,4970,-29,5
2972,-14,5,4971,-29,5
2973,-14,5,4972,-29,5
2974,-14,5,4973,-29,5
2975,-14,5,4974,-29,5
2976,-14,5,4975,-29,5
2977,-14,5,4976,-29,5
2978,-13,5,4977,-29,5
2979,-13,5,4978,-29,5
2980,-15,5,4979,-29,5
2981,-16,5,4980,-29,5
2982,-16,5,4981,-29,5
2983,-17,5,4982,-29,5
2984,-17,5,4983,-29,5
2985,-17,5,4984,-29,5
2986,-17,5,4985,-29,5
2987,-17,5,4986,-29,5
2988,-17,5,4987,-29,5
2989,-16,5,4988,-29,5
2990,-16,5,4989,-29,5
2991,-16,5,4990,-29,5
2992,-15,5,4991,-29,5
2993,-14,5,4992,-29,5
2994,-15,5,4993,-29,5
2995,-15,5,4994,-29,5
2996,-16,5,4995,-29,5
2997,-17,5,4996,-29,5
2998,-18,5,4997,-29,5
2999,-19,5,4998,-28,5
3000,-19,5,4999,-27,5
