TS,Reading
1,-2.9
2,-2.6
3,-2.6
4,-2.6
5,-2.6
6,-2.6
7,-2.6
8,-2.6
9,-2.7
10,-2.7
11,-2.7
12,-2.7
13,-2.7
14,-2.6
15,-2.4
16,-2.5
17,-2.7
18,-2.7
19,-2.8
20,-2.8
21,-2.6
22,-2.4
23,-2.6
24,-2.8
25,-2.7
26,-2.8
27,-2.9
28,-2.7
29,-2.6
30,-2.6
31,-2.8
32,-2.8
33,-2.8
34,-2.8
35,-2.8
36,-2.8
37,-2.6
38,-2.6
39,-2.6
40,-2.6
41,-2.8
42,-2.9
43,-2.8
44,-3
45,-2.9
46,-2.6
47,-2.2
48,-2
49,-2
50,-1.9
51,-1.9
52,-1.9
53,-2
54,-2.3
55,-2.1
56,-2
57,-2
58,-1.9
59,-1.7
60,-1.6
61,-1.4
62,-1.4
63,-1.7
64,-1.7
65,-1.7
66,-1.7
67,-1.5
68,-1.5
69,-1.5
70,-1.5
71,-1.5
72,-1.5
73,-1.5
74,-1.6
75,-1.8
76,-2.1
77,-2.1
78,-2.1
79,-2.2
80,-2.2
81,-2.1
82,-2.3
83,-2.3
84,-2.2
85,-2.2
86,-2.3
87,-2.4
88,-2.3
89,-2.3
90,-2.5
91,-2.6
92,-2.5
93,-2.5
94,-2.7
95,-2.9
96,-2.7
97,-2.7
98,-2.8
99,-3
100,-3
101,-3.2
102,-3
103,-3
104,-3.1
105,-3.1
106,-3.1
107,-3.1
108,-3
109,-2.9
110,-2.9
111,-2.8
112,-2.8
113,-2.9
114,-2.9
115,-2.9
116,-2.8
117,-3.1
118,-3.3
119,-3.3
120,-2.9
121,-2.1
122,-1.1
123,0.1
124,1.8
125,4.1
126,7
127,9.5
128,11.2
129,13
130,16.3
131,19.4
132,20.3
133,20.1
134,19
135,17.5
136,13.5
137,8.7
138,3.6
139,-2
140,-9.2
141,-16.3
142,-20.8
143,-22.9
144,-23.7
145,-24.2
146,-24.2
147,-23.4
148,-21.9
149,-20
150,-17.9
151,-15.2
152,-12.6
153,-10.6
154,-8.9
155,-7.7
156,-6.7
157,-5.6
158,-4.8
159,-4
160,-3.5
161,-3
162,-2.8
163,-2.7
164,-2.8
165,-2.5
166,-2.6
167,-2.6
168,-2.4
169,-2.1
170,-2.1
171,-2.1
172,-2.1
173,-2.1
174,-2.1
175,-1.8
176,-1.6
177,-1.8
178,-2
179,-1.9
180,-1.7
181,-1.6
182,-1.7
183,-1.4
184,-1.4
185,-1.5
186,-1.4
187,-1.7
188,-1.6
189,-1.3
190,-1.3
191,-1.2
192,-1
193,-1.1
194,-1.2
195,-1.1
196,-1.1
197,-1.1
198,-1
199,-0.8
200,-0.8
201,-1
202,-1
203,-0.9
204,-0.7
205,-0.6
206,-0.6
207,-0.4
208,0
209,0
210,-0.2
211,-0.1
212,0.1
213,0.1
214,0
215,0
216,0.2
217,0.3
218,0.3
219,0.3
220,0.3
221,0.4
222,0.3
223,0.5
224,0.6
225,0.6
226,0.7
227,0.6
228,0.9
229,1.3
230,1.4
231,1.2
232,1.3
233,1.5
234,1.5
235,1.5
236,1.7
237,1.9
238,2
239,2
240,2
241,2.1
242,2.1
243,2.2
244,2.5
245,2.7
246,2.8
247,2.9
248,3.3
249,3.6
250,3.7
251,3.8
252,3.7
253,3.7
254,3.8
255,4.2
256,4.3
257,4.3
258,4.1
259,4.4
260,4.4
261,4.4
262,4.6
263,4.7
264,4.6
265,4.5
266,4.5
267,4.6
268,4.8
269,4.8
270,4.8
271,4.7
272,4.7
273,4.6
274,4.6
275,4.6
276,4.4
277,4.4
278,4.3
279,4.2
280,4.4
281,4.5
282,4.4
283,4.3
284,4.1
285,4
286,3.8
287,3.6
288,3.2
289,3.3
290,3.3
291,3.1
292,3.1
293,2.9
294,2.4
295,2.1
296,2.1
297,2
298,1.5
299,1.3
300,1.3
301,1.4
302,1.1
303,1
304,0.8
305,0.3
306,-0.1
307,-0.4
308,-0.6
309,-0.6
310,-0.7
311,-0.6
312,-0.7
313,-1
314,-1.4
315,-1.6
316,-1.6
317,-1.6
318,-1.8
319,-2
320,-2.2
321,-2.1
322,-2
323,-2
324,-1.9
325,-1.7
326,-1.7
327,-1.7
328,-1.9
329,-2.1
330,-2.2
331,-2.2
332,-2.4
333,-2.3
334,-2.3
335,-2.3
336,-2.3
337,-2.2
338,-2.2
339,-2.2
340,-2.3
341,-2.6
342,-2.5
343,-2.7
344,-2.6
345,-2.6
346,-2.5
347,-2.4
348,-2.4
349,-2.4
350,-2.5
351,-2.6
352,-2.7
353,-2.5
354,-2.5
355,-2.5
356,-2.4
357,-2.3
358,-2.5
359,-2.6
360,-2.5
361,-2.5
362,-2.6
363,-2.7
364,-2.8
365,-2.7
366,-2.6
367,-2.4
368,-2.4
369,-2.5
370,-2.3
371,-2.2
372,-2.2
373,-2.4
374,-2.5
375,-2.4
376,-2.3
377,-2.2
378,-2
379,-2
380,-2
381,-1.9
382,-1.9
383,-1.8
384,-1.8
385,-2
386,-2
387,-2
388,-1.9
389,-1.8
390,-1.8
391,-1.9
392,-1.9
393,-1.9
394,-1.8
395,-1.7
396,-1.9
397,-1.9
398,-1.9
399,-1.8
400,-1.7
401,-1.8
402,-2
403,-2
404,-2
405,-2
406,-1.8
407,-1.8
408,-2
409,-2
410,-2.1
411,-2
412,-1.9
413,-2
414,-2
415,-2.2
416,-2.2
417,-2.2
418,-2.2
419,-2.1
420,-1.8
421,-1.8
422,-2.1
423,-2.1
424,-2.2
425,-2.4
426,-2.3
427,-2.4
428,-2.3
429,-2.3
430,-2.3
431,-2.4
432,-2.5
433,-2.6
434,-2.7
435,-2.7
436,-2.6
437,-2.5
438,-2.5
439,-2.6
440,-2.5
441,-2.6
442,-2.8
443,-2.9
444,-2.7
445,-2.8
446,-2.7
447,-2.6
448,-2.6
449,-2.8
450,-2.9
451,-2.9
452,-2.8
453,-2.7
454,-2.7
455,-2.8
456,-2.8
457,-2.8
458,-2.9
459,-3.2
460,-3.1
461,-3
462,-2.9
463,-2.8
464,-2.8
465,-2.9
466,-2.7
467,-2.7
468,-2.9
469,-2.9
470,-2.9
471,-2.9
472,-2.9
473,-3
474,-3.1
475,-3.1
476,-3
477,-2.9
478,-3.1
479,-3.2
480,-3.4
481,-3.4
482,-3.2
483,-3.1
484,-2.9
485,-2.8
486,-3
487,-3.1
488,-3.1
489,-2.9
490,-3
491,-2.9
492,-2.9
493,-2.9
494,-3
495,-3.2
496,-3.2
497,-3.1
498,-3.1
499,-3.1
500,-3.1
501,-3.2
502,-3.2
503,-3.2
504,-3.2
505,-3.1
506,-3.1
507,-3.1
508,-3
509,-3
510,-3
511,-3.1
512,-3.1
513,-3
514,-3
515,-3
516,-3.2
517,-3.2
518,-3.2
519,-3.1
520,-3.1
521,-3.3
522,-3.3
523,-3.3
524,-3.3
525,-3.2
526,-3.2
527,-3.2
528,-3.2
529,-3
530,-2.9
531,-2.8
532,-2.7
533,-2.6
534,-2.7
535,-2.6
536,-2.5
537,-2.4
538,-2.2
539,-2.2
540,-2.1
541,-2.3
542,-2.5
543,-2.6
544,-2.5
545,-2.5
546,-2.2
547,-1.9
548,-1.9
549,-2
550,-2
551,-2.3
552,-2.5
553,-2.6
554,-2.3
555,-1.9
556,-1.8
557,-2
558,-2.2
559,-2.4
560,-2.5
561,-2.6
562,-2.8
563,-2.8
564,-2.9
565,-2.9
566,-2.9
567,-2.9
568,-2.8
569,-2.8
570,-3
571,-3.3
572,-3.4
573,-3.5
574,-3.5
575,-3.5
576,-3.4
577,-3.2
578,-3.1
579,-3.2
580,-3.4
581,-3.6
582,-3.5
583,-3.5
584,-3.7
585,-3.7
586,-3.7
587,-3.7
588,-3.6
589,-3.4
590,-3.4
591,-3.7
592,-3.7
593,-3.9
594,-3.8
595,-3.4
596,-3.6
597,-3.8
598,-3.9
599,-3.8
600,-3.6
601,-3.6
602,-3.7
603,-3.7
604,-3.2
605,-2.5
606,-1.7
607,-0.4
608,1.3
609,3.7
610,6.8
611,9.3
612,10.6
613,12.4
614,16.3
615,19.5
616,20.4
617,20.1
618,19.1
619,17
620,12.7
621,7.6
622,2.5
623,-3
624,-11
625,-18.3
626,-22.6
627,-24.6
628,-25.5
629,-25.8
630,-25.3
631,-24.1
632,-22.2
633,-20.1
634,-18
635,-15.1
636,-12.6
637,-10.2
638,-8.4
639,-7.3
640,-6.3
641,-5.6
642,-4.9
643,-4.2
644,-3.8
645,-3.6
646,-3.3
647,-3.2
648,-3
649,-3
650,-2.8
651,-2.8
652,-2.7
653,-2.6
654,-2.7
655,-2.5
656,-2.3
657,-2.3
658,-2.1
659,-2
660,-2
661,-1.9
662,-1.9
663,-1.7
664,-1.7
665,-1.7
666,-1.7
667,-1.7
668,-1.7
669,-1.6
670,-1.6
671,-1.4
672,-1.4
673,-1.5
674,-1.5
675,-1.4
676,-1.3
677,-1.3
678,-1.3
679,-1
680,-0.7
681,-0.6
682,-0.7
683,-0.8
684,-0.9
685,-0.8
686,-0.8
687,-0.9
688,-1
689,-0.9
690,-0.7
691,-0.5
692,-0.4
693,-0.3
694,-0.3
695,-0.3
696,-0.2
697,-0.1
698,-0.2
699,-0.1
700,0
701,0
702,0
703,0.2
704,0.3
705,0.3
706,0.4
707,0.4
708,0.5
709,0.5
710,0.5
711,0.7
712,0.8
713,0.8
714,0.9
715,1.1
716,1.1
717,1.3
718,1.5
719,1.7
720,1.5
721,1.6
722,1.7
723,1.9
724,2.1
725,2
726,2
727,2.3
728,2.4
729,2.6
730,3
731,3.2
732,3.3
733,3.3
734,3.4
735,3.3
736,3.4
737,3.7
738,3.8
739,3.8
740,3.8
741,3.8
742,3.9
743,4
744,4.2
745,4.4
746,4.4
747,4.4
748,4.4
749,4.5
750,4.8
751,4.8
752,4.7
753,4.8
754,4.7
755,4.5
756,4.6
757,4.7
758,4.6
759,4.6
760,4.5
761,4.4
762,4.3
763,4.3
764,4.4
765,4.3
766,4.2
767,3.9
768,3.8
769,3.8
770,3.9
771,3.8
772,3.7
773,3.5
774,3.2
775,2.8
776,2.7
777,2.7
778,2.4
779,2.2
780,2.2
781,2.1
782,1.9
783,1.7
784,1.6
785,1.2
786,1.2
787,1.1
788,0.7
789,0.3
790,0.1
791,0
792,-0.1
793,-0.3
794,-0.6
795,-0.6
796,-0.6
797,-0.8
798,-1.1
799,-1.4
800,-1.5
801,-1.5
802,-1.2
803,-1.3
804,-1.4
805,-1.6
806,-1.9
807,-2
808,-2.2
809,-2.2
810,-2.1
811,-1.9
812,-2
813,-2.1
814,-2.1
815,-2.1
816,-2.1
817,-2.3
818,-2.2
819,-2.1
820,-2.1
821,-2.2
822,-2.3
823,-2.3
824,-2.1
825,-2.2
826,-2.3
827,-2.3
828,-2.3
829,-2.3
830,-2.3
831,-2.4
832,-2.4
833,-2.4
834,-2.3
835,-2.3
836,-2.2
837,-2.2
838,-2.2
839,-2.3
840,-2.3
841,-2.3
842,-2.3
843,-2.2
844,-2.3
845,-2.3
846,-2.1
847,-2
848,-2.1
849,-2
850,-2
851,-2.1
852,-2.3
853,-2.3
854,-2.2
855,-2.2
856,-2.4
857,-2.3
858,-2.2
859,-2.1
860,-1.9
861,-1.8
862,-1.8
863,-2
864,-2.1
865,-2.1
866,-2.1
867,-2.1
868,-2.2
869,-2.2
870,-2.1
871,-1.9
872,-1.8
873,-1.6
874,-1.5
875,-1.7
876,-1.9
877,-1.7
878,-1.7
879,-1.7
880,-1.6
881,-1.5
882,-1.4
883,-1.6
884,-1.8
885,-1.8
886,-1.6
887,-1.6
888,-1.6
889,-1.8
890,-2
891,-1.8
892,-1.8
893,-1.8
894,-1.9
895,-1.9
896,-1.9
897,-1.8
898,-1.8
899,-1.9
900,-1.9
901,-2
902,-2.1
903,-2.2
904,-2.2
905,-2.2
906,-2.2
907,-2.1
908,-2.3
909,-2.2
910,-2.4
911,-2.5
912,-2.6
913,-2.3
914,-2.2
915,-2.2
916,-2.3
917,-2.3
918,-2.4
919,-2.3
920,-2.2
921,-2.2
922,-2.4
923,-2.4
924,-2.4
925,-2.4
926,-2.4
927,-2.4
928,-2.3
929,-2.4
930,-2.5
931,-2.4
932,-2.5
933,-2.7
934,-2.7
935,-2.5
936,-2.5
937,-2.5
938,-2.8
939,-2.7
940,-2.7
941,-2.6
942,-2.7
943,-2.5
944,-2.4
945,-2.5
946,-2.7
947,-2.7
948,-2.7
949,-2.7
950,-2.8
951,-2.5
952,-2.5
953,-2.7
954,-2.7
955,-2.7
956,-2.6
957,-2.6
958,-2.5
959,-2.6
960,-2.7
961,-3
962,-3.1
963,-3
964,-2.9
965,-2.8
966,-2.8
967,-3
968,-3.1
969,-3
970,-2.9
971,-2.8
972,-2.8
973,-2.9
974,-2.9
975,-3.1
976,-2.8
977,-2.6
978,-2.6
979,-2.8
980,-2.6
981,-2.6
982,-2.7
983,-2.7
984,-2.8
985,-3
986,-3
987,-3
988,-3
989,-2.9
990,-2.9
991,-2.8
992,-2.8
993,-2.9
994,-3
995,-2.9
996,-2.9
997,-3
998,-3
999,-2.9
1000,-2.9
1001,-2.7
1002,-2.6
1003,-2.6
1004,-2.8
1005,-3
1006,-2.9
1007,-2.7
1008,-2.7
1009,-3
1010,-3
1011,-3
1012,-2.9
1013,-3.1
1014,-3.4
1015,-3.2
1016,-3.3
1017,-3
1018,-3
1019,-2.9
1020,-2.9
1021,-2.9
1022,-2.7
1023,-2.6
1024,-2.5
1025,-2.4
1026,-2.5
1027,-2.3
1028,-2.2
1029,-2.2
1030,-2.3
1031,-2.1
1032,-1.9
1033,-2.1
1034,-2.4
1035,-2.2
1036,-1.9
1037,-1.9
1038,-1.8
1039,-1.5
1040,-1.4
1041,-1.5
1042,-1.7
1043,-1.9
1044,-1.9
1045,-1.9
1046,-2.1
1047,-2.1
1048,-2.2
1049,-2.4
1050,-2.4
1051,-2.6
1052,-2.7
1053,-2.6
1054,-2.4
1055,-2.2
1056,-2.2
1057,-2.4
1058,-2.5
1059,-2.5
1060,-2.7
1061,-2.9
1062,-2.9
1063,-2.7
1064,-2.9
1065,-2.9
1066,-3.1
1067,-3
1068,-3.1
1069,-3.1
1070,-3.2
1071,-3.2
1072,-3.2
1073,-3.2
1074,-3.3
1075,-3.4
1076,-3.5
1077,-3.4
1078,-3.5
1079,-3.5
1080,-3.4
1081,-3.5
1082,-3.5
1083,-3.5
1084,-3.5
1085,-3.5
1086,-3.6
1087,-3.5
1088,-3.6
1089,-3.4
1090,-3.2
1091,-3.1
1092,-3.3
1093,-3.5
1094,-3.6
1095,-3.5
1096,-2.5
1097,-1.3
1098,-0.1
1099,1.2
1100,3.4
1101,6.4
1102,8.9
1103,10.4
1104,12.5
1105,16.2
1106,19.5
1107,20.5
1108,20.2
1109,19
1110,17.1
1111,12.7
1112,7.8
1113,2.6
1114,-3.2
1115,-11.3
1116,-19
1117,-23.3
1118,-25.1
1119,-25.7
1120,-26.2
1121,-25.8
1122,-24.6
1123,-22.6
1124,-20.5
1125,-17.9
1126,-14.9
1127,-12.4
1128,-10.3
1129,-8.8
1130,-7.7
1131,-6.7
1132,-5.7
1133,-4.9
1134,-4.2
1135,-3.8
1136,-3.4
1137,-3.3
1138,-3.2
1139,-3
1140,-3
1141,-2.9
1142,-2.8
1143,-2.7
1144,-2.7
1145,-2.8
1146,-2.8
1147,-2.7
1148,-2.5
1149,-2.5
1150,-2.7
1151,-2.7
1152,-2.5
1153,-2.4
1154,-2.3
1155,-2.2
1156,-2.2
1157,-1.9
1158,-2.1
1159,-1.9
1160,-1.9
1161,-1.8
1162,-1.9
1163,-1.8
1164,-1.6
1165,-1.5
1166,-1.6
1167,-1.6
1168,-1.3
1169,-1.4
1170,-1.7
1171,-1.6
1172,-1.5
1173,-1.4
1174,-1.3
1175,-1.4
1176,-1.4
1177,-1.3
1178,-1.2
1179,-1
1180,-0.9
1181,-0.9
1182,-0.8
1183,-0.9
1184,-1.1
1185,-1
1186,-0.8
1187,-0.6
1188,-0.6
1189,-0.5
1190,-0.5
1191,-0.3
1192,-0.3
1193,-0.3
1194,-0.3
1195,-0.4
1196,-0.3
1197,-0.3
1198,-0.1
1199,0.1
1200,0.2
1201,0.3
1202,0.4
1203,0.6
1204,0.5
1205,0.4
1206,0.5
1207,0.5
1208,0.7
1209,0.9
1210,1.1
1211,1.2
1212,1.2
1213,1.2
1214,1.2
1215,1.3
1216,1.5
1217,1.8
1218,2
1219,2.1
1220,2
1221,2.1
1222,2.1
1223,2.2
1224,2.3
1225,2.5
1226,2.5
1227,2.5
1228,2.9
1229,3
1230,3.1
1231,3.1
1232,3.2
1233,3.2
1234,3.1
1235,3.3
1236,3.6
1237,3.7
1238,3.8
1239,3.9
1240,3.9
1241,4
1242,4
1243,4
1244,3.9
1245,3.7
1246,3.6
1247,3.8
1248,3.7
1249,3.8
1250,3.9
1251,3.7
1252,3.6
1253,3.6
1254,3.5
1255,3.4
1256,3.4
1257,3.4
1258,3.3
1259,3.5
1260,3.3
1261,3.1
1262,2.8
1263,2.8
1264,2.7
1265,2.5
1266,2.4
1267,2.3
1268,2.1
1269,1.9
1270,1.7
1271,1.5
1272,1.4
1273,1.4
1274,1.3
1275,1
1276,0.4
1277,0.5
1278,0.3
1279,0
1280,-0.3
1281,-0.4
1282,-0.6
1283,-0.7
1284,-0.9
1285,-1
1286,-1
1287,-1.1
1288,-1.6
1289,-1.6
1290,-1.6
1291,-1.6
1292,-1.8
1293,-1.9
1294,-1.8
1295,-2
1296,-2.1
1297,-2.2
1298,-2.2
1299,-2.2
1300,-2.3
1301,-2.3
1302,-2.4
1303,-2.4
1304,-2.6
1305,-2.6
1306,-2.5
1307,-2.7
1308,-2.6
1309,-2.5
1310,-2.5
1311,-2.4
1312,-2.2
1313,-2.5
1314,-2.5
1315,-2.6
1316,-2.7
1317,-2.8
1318,-2.6
1319,-2.4
1320,-2.4
1321,-2.6
1322,-2.7
1323,-2.9
1324,-2.8
1325,-2.8
1326,-2.7
1327,-2.6
1328,-2.5
1329,-2.8
1330,-2.6
1331,-2.5
1332,-2.5
1333,-2.4
1334,-2.4
1335,-2.3
1336,-2.3
1337,-2.4
1338,-2.4
1339,-2.3
1340,-2.4
1341,-2.4
1342,-2.2
1343,-2
1344,-2.1
1345,-2.3
1346,-2.4
1347,-2.4
1348,-2.2
1349,-2
1350,-2.1
1351,-2.1
1352,-2.3
1353,-2.6
1354,-2.5
1355,-2.4
1356,-2.2
1357,-2.1
1358,-1.8
1359,-1.9
1360,-2
1361,-2.1
1362,-2.1
1363,-2.1
1364,-2
1365,-2
1366,-2
1367,-2
1368,-2
1369,-2
1370,-2.1
1371,-2
1372,-2.1
1373,-1.9
1374,-1.7
1375,-1.9
1376,-2
1377,-2.3
1378,-2.3
1379,-2.2
1380,-2
1381,-1.9
1382,-2.1
1383,-2.3
1384,-2.5
1385,-2.2
1386,-2.2
1387,-2.4
1388,-2.4
1389,-2.3
1390,-2.5
1391,-2.7
1392,-2.6
1393,-2.4
1394,-2.4
1395,-2.4
1396,-2.2
1397,-2.3
1398,-2.6
1399,-2.7
1400,-2.7
1401,-2.7
1402,-2.7
1403,-2.7
1404,-2.6
1405,-2.8
1406,-3
1407,-2.9
1408,-2.9
1409,-3
1410,-3.1
1411,-3.1
1412,-3
1413,-2.9
1414,-2.8
1415,-3
1416,-2.9
1417,-2.8
1418,-2.8
1419,-3
1420,-3.1
1421,-3
1422,-3.2
1423,-3.1
1424,-3.1
1425,-3
1426,-3
1427,-2.9
1428,-2.9
1429,-2.9
1430,-3.1
1431,-3.2
1432,-3.3
1433,-3.5
1434,-3.7
1435,-3.5
1436,-3.1
1437,-3
1438,-3
1439,-3.3
1440,-3.4
1441,-3.5
1442,-3.4
1443,-3.3
1444,-3.2
1445,-3.2
1446,-3.3
1447,-3.4
1448,-3.3
1449,-3.3
1450,-3.3
1451,-3.5
1452,-3.4
1453,-3.4
1454,-3.6
1455,-3.4
1456,-3.4
1457,-3.5
1458,-3.5
1459,-3.5
1460,-3.5
1461,-3.2
1462,-3.2
1463,-3.2
1464,-3.3
1465,-3.6
1466,-3.5
1467,-3.4
1468,-3.4
1469,-3.6
1470,-3.4
1471,-3.4
1472,-3.5
1473,-3.6
1474,-3.3
1475,-3.4
1476,-3.4
1477,-3.2
1478,-3.2
1479,-3.1
1480,-3.1
1481,-3.3
1482,-3.5
1483,-3.4
1484,-3.3
1485,-3.3
1486,-3.3
1487,-3.3
1488,-3.5
1489,-3.5
1490,-3.3
1491,-3
1492,-2.9
1493,-2.8
1494,-2.8
1495,-2.7
1496,-2.8
1497,-2.8
1498,-2.8
1499,-2.8
1500,-2.9
1501,-3.1
1502,-2.9
1503,-2.9
1504,-2.8
1505,-2.6
1506,-2.5
1507,-2.4
1508,-2.5
1509,-2.5
1510,-2.4
1511,-2.3
1512,-2.2
1513,-2.3
1514,-2.4
1515,-2.4
1516,-2.4
1517,-2.4
1518,-2.2
1519,-2.3
1520,-2.3
1521,-2.6
1522,-2.9
1523,-3
1524,-3
1525,-3
1526,-3.1
1527,-3.2
1528,-3.1
1529,-3.1
1530,-3.1
1531,-3
1532,-3
1533,-3.1
1534,-3.2
1535,-3.4
1536,-3.5
1537,-3.5
1538,-3.6
1539,-3.8
1540,-3.7
1541,-3.7
1542,-3.7
1543,-3.8
1544,-3.8
1545,-3.8
1546,-3.7
1547,-3.7
1548,-3.9
1549,-3.8
1550,-3.8
1551,-3.8
1552,-3.8
1553,-3.5
1554,-3.6
1555,-3.8
1556,-3.9
1557,-4
1558,-3.8
1559,-3.6
1560,-3.5
1561,-3.4
1562,-3.6
1563,-3.8
1564,-3.6
1565,-3.2
1566,-2.4
1567,-1.5
1568,-0.4
1569,0.9
1570,2.8
1571,5.4
1572,8.1
1573,10
1574,12.3
1575,15.1
1576,18.3
1577,19.1
1578,18.4
1579,17.1
1580,15.5
1581,11.7
1582,7.1
1583,2.3
1584,-2.9
1585,-9.6
1586,-16.7
1587,-21.2
1588,-23.4
1589,-24.4
1590,-25
1591,-25.4
1592,-24.9
1593,-23.9
1594,-22
1595,-19.5
1596,-16.9
1597,-14.6
1598,-12.5
1599,-10.8
1600,-9.2
1601,-7.6
1602,-6.4
1603,-5.5
1604,-4.9
1605,-4.2
1606,-3.7
1607,-3.4
1608,-3.4
1609,-3.5
1610,-3.5
1611,-3.3
1612,-3.1
1613,-3.1
1614,-3
1615,-2.7
1616,-2.5
1617,-2.4
1618,-2.4
1619,-2.4
1620,-2.4
1621,-2.6
1622,-2.6
1623,-2.4
1624,-2.4
1625,-2.5
1626,-2.5
1627,-2.3
1628,-2
1629,-2.1
1630,-2.2
1631,-2
1632,-2.1
1633,-2.3
1634,-2.2
1635,-2
1636,-1.8
1637,-1.9
1638,-2
1639,-1.9
1640,-1.8
1641,-1.7
1642,-1.6
1643,-1.4
1644,-1.3
1645,-1.3
1646,-1.3
1647,-1.3
1648,-1.3
1649,-1.4
1650,-1.4
1651,-1
1652,-0.9
1653,-1.1
1654,-1.1
1655,-1.2
1656,-1
1657,-0.8
1658,-0.7
1659,-0.7
1660,-0.5
1661,-0.2
1662,-0.5
1663,-0.5
1664,-0.3
1665,-0.1
1666,-0.3
1667,-0.2
1668,0
1669,0.1
1670,0.5
1671,0.4
1672,0.4
1673,0.3
1674,0.4
1675,0.6
1676,0.5
1677,0.7
1678,0.7
1679,0.8
1680,1.1
1681,1.3
1682,1.3
1683,1.3
1684,1.4
1685,1.6
1686,1.7
1687,1.7
1688,1.7
1689,1.8
1690,2
1691,2.2
1692,2.3
1693,2.4
1694,2.4
1695,2.4
1696,2.5
1697,2.7
1698,2.8
1699,3.2
1700,3.4
1701,3.4
1702,3.5
1703,3.5
1704,3.5
1705,3.6
1706,3.6
1707,3.8
1708,3.9
1709,3.8
1710,4.1
1711,4.2
1712,4.2
1713,4.2
1714,4
1715,4
1716,3.9
1717,3.7
1718,3.7
1719,3.9
1720,4.1
1721,4
1722,3.9
1723,3.7
1724,3.5
1725,3.3
1726,3.3
1727,3.5
1728,3.5
1729,3.4
1730,3.4
1731,3.1
1732,3.2
1733,2.9
1734,2.7
1735,2.6
1736,2.3
1737,2.2
1738,1.9
1739,1.8
1740,1.7
1741,1.5
1742,1.2
1743,1
1744,0.8
1745,0.6
1746,0.3
1747,0.4
1748,0.5
1749,0.5
1750,0.3
1751,0
1752,-0.3
1753,-0.6
1754,-0.9
1755,-1
1756,-1.1
1757,-1.4
1758,-1.6
1759,-1.6
1760,-1.6
1761,-1.7
1762,-1.8
1763,-1.8
1764,-1.9
1765,-1.9
1766,-2
1767,-2
1768,-2.2
1769,-2.3
1770,-2.2
1771,-2.1
1772,-2.2
1773,-2.3
1774,-2.4
1775,-2.5
1776,-2.5
1777,-2.3
1778,-2.3
1779,-2.5
1780,-2.5
1781,-2.5
1782,-2.6
1783,-2.5
1784,-2.7
1785,-2.7
1786,-2.5
1787,-2.5
1788,-2.6
1789,-2.5
1790,-2.4
1791,-2.4
1792,-2.5
1793,-2.5
1794,-2.6
1795,-2.8
1796,-2.9
1797,-2.6
1798,-2.4
1799,-2.3
1800,-2.3
1801,-2.4
1802,-2.5
1803,-2.5
1804,-2.6
1805,-2.5
1806,-2.6
1807,-2.5
1808,-2.3
1809,-2.2
1810,-2.1
1811,-2.2
1812,-2.2
1813,-2.2
1814,-2.3
1815,-2.3
1816,-2.3
1817,-2.2
1818,-2.2
1819,-2
1820,-1.8
1821,-1.9
1822,-2
1823,-1.8
1824,-1.6
1825,-1.8
1826,-1.6
1827,-1.6
1828,-1.4
1829,-1.4
1830,-1.4
1831,-1.4
1832,-1.6
1833,-1.7
1834,-1.7
1835,-1.6
1836,-1.7
1837,-1.6
1838,-1.5
1839,-1.4
1840,-1.5
1841,-1.7
1842,-1.5
1843,-1.5
1844,-1.7
1845,-1.8
1846,-1.8
1847,-1.7
1848,-1.5
1849,-1.6
1850,-1.6
1851,-1.8
1852,-1.8
1853,-1.7
1854,-1.7
1855,-1.8
1856,-1.7
1857,-1.7
1858,-1.8
1859,-1.7
1860,-1.6
1861,-1.8
1862,-1.8
1863,-1.9
1864,-1.9
1865,-2
1866,-2.2
1867,-2.2
1868,-2.3
1869,-2.3
1870,-2.3
1871,-2.2
1872,-2.2
1873,-2.2
1874,-2.2
1875,-2.2
1876,-2.3
1877,-2.3
1878,-2.4
1879,-2.5
1880,-2.4
1881,-2.3
1882,-2.4
1883,-2.4
1884,-2.2
1885,-2.1
1886,-2.5
1887,-2.5
1888,-2.4
1889,-2.4
1890,-2.5
1891,-2.7
1892,-2.6
1893,-2.7
1894,-3
1895,-3.1
1896,-2.9
1897,-2.9
1898,-2.8
1899,-2.8
1900,-2.8
1901,-2.8
1902,-2.8
1903,-3
1904,-3.2
1905,-3.2
1906,-3
1907,-2.7
1908,-2.6
1909,-2.6
1910,-2.6
1911,-2.7
1912,-2.7
1913,-2.8
1914,-2.8
1915,-2.7
1916,-2.8
1917,-2.8
1918,-3
1919,-3
1920,-3
1921,-2.8
1922,-3
1923,-3
1924,-2.8
1925,-2.9
1926,-3.1
1927,-2.8
1928,-2.8
1929,-2.9
1930,-3
1931,-2.9
1932,-3
1933,-3.1
1934,-3.3
1935,-3
1936,-3
1937,-3.1
1938,-3.3
1939,-3.1
1940,-3.2
1941,-3.1
1942,-3
1943,-3.1
1944,-3.1
1945,-3.1
1946,-3.2
1947,-3.1
1948,-2.9
1949,-2.7
1950,-2.6
1951,-2.8
1952,-2.9
1953,-2.9
1954,-2.9
1955,-3
1956,-3.1
1957,-3.1
1958,-3.1
1959,-2.7
1960,-2.6
1961,-2.6
1962,-2.6
1963,-2.4
1964,-2.3
1965,-2.3
1966,-2.4
1967,-2.4
1968,-2.3
1969,-2.1
1970,-2
1971,-2
1972,-1.9
1973,-1.7
1974,-1.6
1975,-1.8
1976,-1.8
1977,-1.9
1978,-2.1
1979,-1.9
1980,-1.9
1981,-2.1
1982,-2.3
1983,-2.3
1984,-2
1985,-2
1986,-2.1
1987,-2.1
1988,-2.2
1989,-2.2
1990,-2.4
1991,-2.4
1992,-2.4
1993,-2.7
1994,-2.9
1995,-2.8
1996,-2.7
1997,-2.8
1998,-2.8
1999,-3
2000,-3.1
2001,-3.1
2002,-3.3
2003,-3.5
2004,-3.6
2005,-3.5
2006,-3.5
2007,-3.4
2008,-3.4
2009,-3.5
2010,-3.2
2011,-3.2
2012,-3.2
2013,-3.4
2014,-3.6
2015,-3.7
2016,-3.6
2017,-3.5
2018,-3.6
2019,-3.3
2020,-3.3
2021,-3.3
2022,-3.3
2023,-3.4
2024,-3.4
2025,-3.7
2026,-3.6
2027,-3.5
2028,-3.5
2029,-3.4
2030,-3.4
2031,-3.5
2032,-3.1
2033,-2.4
2034,-1.6
2035,-0.6
2036,0.9
2037,3.2
2038,6.2
2039,8.9
2040,10.6
2041,12.3
2042,15.5
2043,18.6
2044,19.5
2045,19.3
2046,18.5
2047,17.2
2048,13.4
2049,8.6
2050,3.8
2051,-1.2
2052,-8.1
2053,-15.8
2054,-20.6
2055,-23.1
2056,-24.1
2057,-24.7
2058,-24.9
2059,-24.2
2060,-22.9
2061,-21.1
2062,-18.9
2063,-15.9
2064,-13.3
2065,-11.4
2066,-9.7
2067,-8.2
2068,-6.9
2069,-5.8
2070,-5
2071,-4.2
2072,-3.9
2073,-3.7
2074,-3.3
2075,-3
2076,-2.8
2077,-2.8
2078,-2.9
2079,-2.9
2080,-2.7
2081,-2.5
2082,-2.5
2083,-2.5
2084,-2.4
2085,-2.4
2086,-2.3
2087,-2.3
2088,-2.3
2089,-2.2
2090,-1.9
2091,-1.9
2092,-2.1
2093,-1.9
2094,-1.9
2095,-1.8
2096,-1.7
2097,-1.8
2098,-1.8
2099,-1.6
2100,-1.6
2101,-1.6
2102,-1.5
2103,-1.4
2104,-1.1
2105,-1.1
2106,-1.2
2107,-1
2108,-1
2109,-1.3
2110,-1.2
2111,-1.1
2112,-1.1
2113,-1
2114,-1.1
2115,-1.1
2116,-1
2117,-0.9
2118,-0.7
2119,-0.6
2120,-0.6
2121,-0.6
2122,-0.6
2123,-0.4
2124,-0.4
2125,-0.5
2126,-0.2
2127,-0.1
2128,-0.1
2129,-0.2
2130,-0.1
2131,0
2132,0.2
2133,0.3
2134,0.2
2135,0.2
2136,0.2
2137,0.3
2138,0.4
2139,0.6
2140,0.6
2141,0.7
2142,0.8
2143,0.9
2144,0.9
2145,1
2146,1.1
2147,1.1
2148,1.2
2149,1.4
2150,1.4
2151,1.6
2152,2
2153,2
2154,2.1
2155,2.3
2156,2.4
2157,2.4
2158,2.8
2159,2.9
2160,2.8
2161,2.8
2162,2.8
2163,2.9
2164,3.1
2165,3.2
2166,3.3
2167,3.6
2168,3.8
2169,3.8
2170,3.9
2171,4
2172,4.1
2173,4.1
2174,4.1
2175,4.3
2176,4.5
2177,4.5
2178,4.5
2179,4.5
2180,4.5
2181,4.4
2182,4.4
2183,4.4
2184,4.4
2185,4.3
2186,4.3
2187,4.3
2188,4.3
2189,4.2
2190,4.3
2191,4
2192,4
2193,3.9
2194,3.8
2195,3.6
2196,3.5
2197,3.3
2198,3.2
2199,3.3
2200,3.5
2201,3.4
2202,3
2203,2.7
2204,2.7
2205,2.7
2206,2.5
2207,2.4
2208,2.2
2209,1.9
2210,1.7
2211,1.3
2212,1.2
2213,1.1
2214,0.9
2215,0.6
2216,0.3
2217,0
2218,0
2219,-0.1
2220,-0.3
2221,-0.5
2222,-0.7
2223,-1
2224,-1.3
2225,-1.3
2226,-1.4
2227,-1.5
2228,-1.5
2229,-1.7
2230,-1.7
2231,-1.7
2232,-1.6
2233,-1.7
2234,-1.7
2235,-1.8
2236,-1.7
2237,-2
2238,-2.1
2239,-2.3
2240,-2.3
2241,-2.2
2242,-2.1
2243,-2.1
2244,-2.2
2245,-2.3
2246,-2.4
2247,-2.3
2248,-2.5
2249,-2.2
2250,-2.2
2251,-2.3
2252,-2.4
2253,-2.3
2254,-2.4
2255,-2.3
2256,-2.4
2257,-2.3
2258,-2.2
2259,-2.3
2260,-2.4
2261,-2.4
2262,-2.5
2263,-2.5
2264,-2.5
2265,-2.5
2266,-2.4
2267,-2.3
2268,-2.2
2269,-2.3
2270,-2.1
2271,-2
2272,-2.1
2273,-2.1
2274,-2.1
2275,-2.1
2276,-2.2
2277,-2.2
2278,-2.3
2279,-2.2
2280,-2.1
2281,-2
2282,-2
2283,-2
2284,-2
2285,-2
2286,-2
2287,-1.9
2288,-1.8
2289,-1.8
2290,-1.7
2291,-1.7
2292,-1.9
2293,-1.8
2294,-1.9
2295,-1.8
2296,-1.8
2297,-1.6
2298,-1.3
2299,-1.3
2300,-1.4
2301,-1.4
2302,-1.5
2303,-1.3
2304,-1.3
2305,-1.4
2306,-1.3
2307,-1.3
2308,-1.4
2309,-1.6
2310,-1.6
2311,-1.6
2312,-1.6
2313,-1.4
2314,-1.3
2315,-1.4
2316,-1.5
2317,-1.5
2318,-1.7
2319,-1.6
2320,-1.5
2321,-1.5
2322,-1.6
2323,-1.8
2324,-1.9
2325,-1.8
2326,-1.6
2327,-1.6
2328,-1.7
2329,-1.5
2330,-1.4
2331,-1.8
2332,-2
2333,-2
2334,-2
2335,-1.7
2336,-1.7
2337,-2
2338,-2.1
2339,-2.2
2340,-2.2
2341,-2.3
2342,-2
2343,-1.9
2344,-1.9
2345,-1.9
2346,-2.1
2347,-2.1
2348,-2
2349,-2.2
2350,-2.3
2351,-2.2
2352,-2.3
2353,-2.4
2354,-2.4
2355,-2.3
2356,-2.3
2357,-2.4
2358,-2.2
2359,-2.2
2360,-2.3
2361,-2.5
2362,-2.5
2363,-2.5
2364,-2.4
2365,-2.4
2366,-2.6
2367,-2.7
2368,-2.8
2369,-2.7
2370,-2.5
2371,-2.8
2372,-2.7
2373,-2.7
2374,-2.7
2375,-2.8
2376,-2.7
2377,-2.5
2378,-2.5
2379,-2.5
2380,-2.5
2381,-2.5
2382,-2.7
2383,-2.7
2384,-2.8
2385,-2.8
2386,-2.7
2387,-2.6
2388,-2.7
2389,-2.9
2390,-2.7
2391,-2.7
2392,-2.9
2393,-3
2394,-2.9
2395,-2.9
2396,-2.8
2397,-2.6
2398,-2.5
2399,-2.6
2400,-2.7
2401,-2.7
2402,-2.8
2403,-2.7
2404,-2.6
2405,-2.7
2406,-2.8
2407,-2.9
2408,-2.8
2409,-2.7
2410,-2.7
2411,-2.7
2412,-2.6
2413,-2.6
2414,-2.7
2415,-2.8
2416,-2.8
2417,-2.8
2418,-2.8
2419,-3
2420,-3
2421,-3
2422,-2.8
2423,-2.5
2424,-2.5
2425,-2.8
2426,-2.8
2427,-2.8
2428,-3
2429,-3
2430,-2.8
2431,-2.6
2432,-2.6
2433,-2.6
2434,-2.6
2435,-2.6
2436,-2.8
2437,-2.7
2438,-2.7
2439,-2.5
2440,-2.3
2441,-2.5
2442,-2.6
2443,-2.9
2444,-2.7
2445,-2.6
2446,-2.1
2447,-1.9
2448,-1.8
2449,-2
2450,-1.9
2451,-2
2452,-1.9
2453,-1.9
2454,-2
2455,-2
2456,-2
2457,-1.8
2458,-1.6
2459,-1.5
2460,-1.6
2461,-1.5
2462,-1.6
2463,-1.8
2464,-2
2465,-2.1
2466,-2.2
2467,-2.1
2468,-2
2469,-1.8
2470,-1.8
2471,-1.9
2472,-2.1
2473,-2.2
2474,-2.3
2475,-2.4
2476,-2.3
2477,-2.3
2478,-2.4
2479,-2.5
2480,-2.4
2481,-2.4
2482,-2.4
2483,-2.6
2484,-2.7
2485,-3
2486,-3.3
2487,-3
2488,-2.9
2489,-3.1
2490,-3.2
2491,-3.1
2492,-3.1
2493,-3.3
2494,-3.3
2495,-3.4
2496,-3.4
2497,-3.4
2498,-3.5
2499,-3.4
2500,-3.2
2501,-3.1
2502,-3.2
2503,-3.2
2504,-3.2
2505,-3.3
2506,-3.4
2507,-3.5
2508,-3.4
2509,-3.4
2510,-3.5
2511,-3.6
2512,-3.6
2513,-3.5
2514,-3.6
2515,-3.5
2516,-3.1
2517,-2.4
2518,-1.8
2519,-0.5
2520,0.9
2521,3
2522,5.9
2523,8.7
2524,10.2
2525,11.9
2526,15.4
2527,19
2528,20.3
2529,20.3
2530,19.5
2531,17.9
2532,14.1
2533,9
2534,3.8
2535,-1.4
2536,-8.5
2537,-16.4
2538,-21.9
2539,-24.8
2540,-25.8
2541,-26.1
2542,-26
2543,-24.9
2544,-23
2545,-20.7
2546,-18.6
2547,-15.7
2548,-12.9
2549,-10.7
2550,-8.9
2551,-7.7
2552,-6.6
2553,-5.7
2554,-4.9
2555,-4.2
2556,-3.8
2557,-3.4
2558,-3.2
2559,-3.2
2560,-2.9
2561,-2.7
2562,-2.7
2563,-2.7
2564,-2.6
2565,-2.7
2566,-2.6
2567,-2.5
2568,-2.5
2569,-2.4
2570,-2.3
2571,-2.3
2572,-2.2
2573,-2.2
2574,-2.1
2575,-2.2
2576,-2.2
2577,-2
2578,-2
2579,-1.9
2580,-1.8
2581,-1.8
2582,-1.9
2583,-2
2584,-1.8
2585,-1.8
2586,-1.8
2587,-1.8
2588,-1.8
2589,-1.8
2590,-1.7
2591,-1.5
2592,-1.4
2593,-1.2
2594,-1.1
2595,-1.1
2596,-1.1
2597,-1.1
2598,-1.1
2599,-1.2
2600,-1.1
2601,-1
2602,-1
2603,-1
2604,-0.9
2605,-0.8
2606,-0.7
2607,-0.5
2608,-0.4
2609,-0.5
2610,-0.6
2611,-0.5
2612,-0.7
2613,-0.7
2614,-0.5
2615,-0.3
2616,0
2617,0
2618,0
2619,0.2
2620,0.3
2621,0.3
2622,0.3
2623,0.3
2624,0.3
2625,0.3
2626,0.5
2627,0.5
2628,0.6
2629,0.9
2630,1
2631,1.1
2632,1.2
2633,1.2
2634,1.3
2635,1.3
2636,1.5
2637,1.5
2638,1.6
2639,1.6
2640,1.8
2641,2.1
2642,2
2643,2
2644,2.5
2645,2.7
2646,2.7
2647,2.9
2648,2.9
2649,3.1
2650,3.2
2651,3.4
2652,3.5
2653,3.3
2654,3.3
2655,3.5
2656,3.6
2657,3.8
2658,3.8
2659,3.9
2660,4
2661,4.1
2662,4.2
2663,4.2
2664,4.2
2665,4
2666,3.9
2667,3.9
2668,3.9
2669,4
2670,4.1
2671,4.1
2672,4.1
2673,4.1
2674,4.1
2675,3.9
2676,3.7
2677,3.5
2678,3.7
2679,3.6
2680,3.5
2681,3.4
2682,3.2
2683,3.1
2684,3.2
2685,3.2
2686,2.9
2687,2.7
2688,2.4
2689,2.3
2690,1.9
2691,1.9
2692,1.8
2693,1.6
2694,1.5
2695,1.2
2696,1
2697,0.9
2698,0.7
2699,0.4
2700,0.1
2701,0.1
2702,-0.2
2703,-0.5
2704,-0.7
2705,-0.8
2706,-0.9
2707,-0.9
2708,-1.2
2709,-1.4
2710,-1.3
2711,-1.8
2712,-1.8
2713,-1.9
2714,-2.1
2715,-2.3
2716,-2.3
2717,-2.5
2718,-2.5
2719,-2.6
2720,-2.5
2721,-2.5
2722,-2.6
2723,-2.7
2724,-2.8
2725,-2.9
2726,-2.7
2727,-2.8
2728,-2.6
2729,-2.6
2730,-2.6
2731,-2.7
2732,-2.7
2733,-2.8
2734,-2.7
2735,-2.7
2736,-2.8
2737,-2.8
2738,-2.7
2739,-2.8
2740,-2.8
2741,-2.9
2742,-3
2743,-3
2744,-3.1
2745,-3.2
2746,-3
2747,-2.8
2748,-2.5
2749,-2.7
2750,-2.6
2751,-2.6
2752,-2.7
2753,-2.6
2754,-2.8
2755,-2.8
2756,-2.7
2757,-2.7
2758,-2.7
2759,-2.6
2760,-2.6
2761,-2.6
2762,-2.6
2763,-2.6
2764,-2.8
2765,-2.7
2766,-2.6
2767,-2.5
2768,-2.7
2769,-2.8
2770,-2.6
2771,-2.5
2772,-2.5
2773,-2.5
2774,-2.2
2775,-2.2
2776,-2.3
2777,-2.3
2778,-2.1
2779,-2.1
2780,-2.3
2781,-2.2
2782,-2.3
2783,-2.5
2784,-2.4
2785,-2.3
2786,-2.3
2787,-2.3
2788,-2.5
2789,-2.3
2790,-2.2
2791,-2.2
2792,-2.2
2793,-2.1
2794,-2.1
2795,-2.3
2796,-2.4
2797,-2.4
2798,-2.5
2799,-2.4
2800,-2.2
2801,-2.2
2802,-2.2
2803,-2.3
2804,-2.4
2805,-2.4
2806,-2.4
2807,-2.3
2808,-2.2
2809,-2.2
2810,-2.4
2811,-2.7
2812,-2.5
2813,-2.6
2814,-2.6
2815,-2.6
2816,-2.7
2817,-2.7
2818,-2.7
2819,-2.7
2820,-2.6
2821,-2.5
2822,-2.5
2823,-2.5
2824,-2.5
2825,-2.7
2826,-2.7
2827,-2.6
2828,-2.5
2829,-2.6
2830,-2.6
2831,-2.8
2832,-2.7
2833,-2.7
2834,-2.8
2835,-2.8
2836,-2.9
2837,-2.9
2838,-3
2839,-3.1
2840,-3.2
2841,-3
2842,-3
2843,-3.2
2844,-3.2
2845,-3
2846,-3.1
2847,-3
2848,-3.1
2849,-3.1
2850,-2.9
2851,-2.9
2852,-2.9
2853,-2.9
2854,-2.9
2855,-3.1
2856,-3.3
2857,-3.4
2858,-3.3
2859,-3.2
2860,-3.3
2861,-3.2
2862,-3.1
2863,-3.1
2864,-3
2865,-3
2866,-3
2867,-3.1
2868,-3.1
2869,-3.3
2870,-3.3
2871,-3.3
2872,-3.3
2873,-3.4
2874,-3.5
2875,-3.4
2876,-3.3
2877,-3.2
2878,-3.2
2879,-3.2
2880,-3.1
2881,-3
2882,-3
2883,-3.1
2884,-3.2
2885,-3.3
2886,-3.3
2887,-3.4
2888,-3.4
2889,-3.2
2890,-3.2
2891,-3.2
2892,-3.2
2893,-3.5
2894,-3.5
2895,-3.4
2896,-3.3
2897,-3.2
2898,-3.2
2899,-3.3
2900,-3.3
2901,-3.5
2902,-3.5
2903,-3.4
2904,-3.4
2905,-3.4
2906,-3.3
2907,-3.3
2908,-3.4
2909,-3.4
2910,-3.2
2911,-3.1
2912,-3.2
2913,-3.3
2914,-3.4
2915,-3.5
2916,-3.3
2917,-3.2
2918,-3.4
2919,-3.5
2920,-3.5
2921,-3.2
2922,-3
2923,-3
2924,-3.1
2925,-3.2
2926,-3.2
2927,-3.1
2928,-3
2929,-2.8
2930,-2.8
2931,-2.9
2932,-2.9
2933,-2.8
2934,-2.6
2935,-2.7
2936,-2.7
2937,-2.7
2938,-2.7
2939,-2.4
2940,-2.2
2941,-2.1
2942,-2.4
2943,-2.3
2944,-2.3
2945,-2.5
2946,-2.5
2947,-2.2
2948,-2.1
2949,-2
2950,-2
2951,-2
2952,-2.3
2953,-2.4
2954,-2.3
2955,-2.3
2956,-2.1
2957,-2.3
2958,-2.5
2959,-2.6
2960,-2.7
2961,-2.9
2962,-2.7
2963,-2.5
2964,-2.6
2965,-2.8
2966,-3
2967,-2.9
2968,-3.1
2969,-3.1
2970,-3.1
2971,-3.3
2972,-3.4
2973,-3.5
2974,-3.6
2975,-3.6
2976,-3.3
2977,-3.3
2978,-3.5
2979,-3.6
2980,-3.8
2981,-3.8
2982,-3.9
2983,-4
2984,-3.9
2985,-3.8
2986,-3.6
2987,-3.6
2988,-3.6
2989,-3.5
2990,-3.4
2991,-3.3
2992,-3.5
2993,-3.6
2994,-3.7
2995,-3.5
2996,-3.5
2997,-3.7
2998,-3.5
2999,-3.4
3000,-3.5
3001,-3.9
3002,-3.8
3003,-3.2
3004,-2.2
3005,-1.1
3006,0.1
3007,1.7
3008,4.3
3009,7.3
3010,9.3
3011,10.8
3012,13.5
3013,17.6
3014,20.1
3015,20.5
3016,20.1
3017,19.2
3018,16.5
3019,11.4
3020,6.3
3021,1.1
3022,-5.1
3023,-13.6
3024,-20.2
3025,-23.7
3026,-24.8
3027,-25.4
3028,-25.7
3029,-25.1
3030,-23.8
3031,-21.8
3032,-19.7
3033,-17
3034,-14.1
3035,-11.8
3036,-9.8
3037,-8.3
3038,-7.1
3039,-6.2
3040,-5.3
3041,-4.6
3042,-3.9
3043,-3.5
3044,-3.3
3045,-3.2
3046,-3.2
3047,-2.9
3048,-2.9
3049,-2.7
3050,-2.6
3051,-2.4
3052,-2.4
3053,-2.4
3054,-2.6
3055,-2.6
3056,-2.5
3057,-2.3
3058,-2.1
3059,-1.9
3060,-1.9
3061,-1.8
3062,-1.8
3063,-1.8
3064,-1.8
3065,-1.9
3066,-1.8
3067,-1.9
3068,-1.8
3069,-1.8
3070,-1.7
3071,-1.5
3072,-1.4
3073,-1.4
3074,-1.3
3075,-1.3
3076,-1.2
3077,-1.3
3078,-1.3
3079,-1.3
3080,-1.2
3081,-1
3082,-0.9
3083,-0.7
3084,-0.8
3085,-0.8
3086,-0.8
3087,-0.7
3088,-1
3089,-0.9
3090,-0.7
3091,-0.6
3092,-0.4
3093,-0.4
3094,-0.5
3095,-0.3
3096,-0.2
3097,-0.3
3098,-0.5
3099,-0.4
3100,-0.2
3101,-0.3
3102,-0.1
3103,-0.1
3104,0
3105,0.3
3106,0.3
3107,0.2
3108,0.4
3109,0.4
3110,0.5
3111,0.6
3112,0.8
3113,0.7
3114,0.7
3115,0.9
3116,1
3117,1.1
3118,1.1
3119,1
3120,1.2
3121,1.2
3122,1.5
3123,1.7
3124,2
3125,2.1
3126,2.2
3127,2.2
3128,2.4
3129,2.4
3130,2.7
3131,2.7
3132,2.7
3133,2.8
3134,2.9
3135,3.1
3136,3.4
3137,3.2
3138,3.5
3139,3.7
3140,3.8
3141,3.9
3142,3.8
3143,3.7
3144,3.9
3145,4.2
3146,4.2
3147,4.1
3148,4.1
3149,4.1
3150,4.2
3151,4.3
3152,4.4
3153,4.4
3154,4.3
3155,4.4
3156,4.7
3157,4.5
3158,4.3
3159,4.2
3160,4.2
3161,4.2
3162,4
3163,4.1
3164,3.8
3165,3.7
3166,3.7
3167,3.7
3168,3.7
3169,3.5
3170,3.2
3171,3
3172,2.7
3173,2.7
3174,2.8
3175,2.7
3176,2.6
3177,2.5
3178,2.1
3179,1.8
3180,1.9
3181,1.7
3182,1.4
3183,1.3
3184,1.1
3185,0.9
3186,0.7
3187,0.6
3188,0.4
3189,0.2
3190,0.1
3191,-0.1
3192,-0.4
3193,-0.6
3194,-0.7
3195,-0.9
3196,-1.1
3197,-1.2
3198,-1.3
3199,-1.4
3200,-1.4
3201,-1.6
3202,-1.8
3203,-1.8
3204,-1.7
3205,-1.7
3206,-1.8
3207,-1.9
3208,-1.9
3209,-2
3210,-2
3211,-2.1
3212,-2.2
3213,-2.1
3214,-1.9
3215,-1.9
3216,-2
3217,-2.1
3218,-1.9
3219,-1.8
3220,-1.8
3221,-1.9
3222,-2.1
3223,-2.2
3224,-2.2
3225,-2.2
3226,-2.2
3227,-2.2
3228,-2.2
3229,-2.2
3230,-2.2
3231,-2.4
3232,-2.5
3233,-2.3
3234,-2.1
3235,-2
3236,-2
3237,-1.9
3238,-2
3239,-2
3240,-1.9
3241,-1.8
3242,-2
3243,-2
3244,-1.9
3245,-2
3246,-1.9
3247,-2
3248,-1.9
3249,-1.8
3250,-1.8
3251,-1.9
3252,-1.7
3253,-1.8
3254,-2
3255,-2
3256,-1.8
3257,-1.8
3258,-1.8
3259,-2
3260,-1.9
3261,-1.6
3262,-1.5
3263,-1.7
3264,-1.7
3265,-1.8
3266,-2
3267,-2.1
3268,-1.9
3269,-1.7
3270,-1.5
3271,-1.4
3272,-1.3
3273,-1.3
3274,-1.3
3275,-1.5
3276,-1.4
3277,-1.4
3278,-1.4
3279,-1.5
3280,-1.6
3281,-1.8
3282,-1.8
3283,-1.7
3284,-1.7
3285,-1.7
3286,-1.6
3287,-1.4
3288,-1.2
3289,-1.3
3290,-1.4
3291,-1.5
3292,-1.6
3293,-1.6
3294,-1.7
3295,-1.6
3296,-1.8
3297,-1.9
3298,-1.8
3299,-1.5
3300,-1.5
3301,-1.7
3302,-1.9
3303,-1.8
3304,-1.8
3305,-1.9
3306,-2.1
3307,-2.2
3308,-2.2
3309,-2.1
3310,-1.9
3311,-2
3312,-1.9
3313,-1.8
3314,-1.9
3315,-2.1
3316,-2
3317,-1.8
3318,-1.9
3319,-2
3320,-2.4
3321,-2.3
3322,-2.3
3323,-2.2
3324,-2.2
3325,-2.3
3326,-2.4
3327,-2.5
3328,-2.4
3329,-2.4
3330,-2.4
3331,-2.5
3332,-2.4
3333,-2.5
3334,-2.4
3335,-2.3
3336,-2.2
3337,-2.1
3338,-2.1
3339,-2.4
3340,-2.4
3341,-2.2
3342,-2.4
3343,-2.5
3344,-2.5
3345,-2.7
3346,-2.7
3347,-2.7
3348,-2.6
3349,-2.5
3350,-2.5
3351,-2.3
3352,-2.3
3353,-2.6
3354,-2.8
3355,-2.9
3356,-2.8
3357,-2.7
3358,-2.6
3359,-2.7
3360,-2.6
3361,-2.6
3362,-2.7
3363,-2.7
3364,-2.7
3365,-2.6
3366,-2.5
3367,-2.6
3368,-2.7
3369,-2.6
3370,-2.4
3371,-2.4
3372,-2.3
3373,-2.6
3374,-2.8
3375,-2.7
3376,-2.6
3377,-2.6
3378,-2.8
3379,-2.9
3380,-2.9
3381,-2.9
3382,-2.8
3383,-2.8
3384,-2.7
3385,-2.7
3386,-2.7
3387,-2.6
3388,-2.6
3389,-2.7
3390,-2.5
3391,-2.6
3392,-2.7
3393,-2.7
3394,-2.7
3395,-2.6
3396,-2.3
3397,-2
3398,-2.1
3399,-1.8
3400,-1.8
3401,-2
3402,-1.9
3403,-1.9
3404,-1.9
3405,-1.9
3406,-2.1
3407,-2
3408,-2
3409,-1.9
3410,-1.5
3411,-1.4
3412,-1.4
3413,-1.4
3414,-1.4
3415,-1.4
3416,-1.3
3417,-1.7
3418,-1.8
3419,-1.9
3420,-1.8
3421,-1.8
3422,-1.7
3423,-1.8
3424,-2.1
3425,-2.3
3426,-2.4
3427,-2.4
3428,-2.4
3429,-2.2
3430,-2.2
3431,-2.3
3432,-2.4
3433,-2.4
3434,-2.5
3435,-2.5
3436,-2.6
3437,-2.8
3438,-2.9
3439,-2.8
3440,-2.7
3441,-2.8
3442,-2.9
3443,-2.9
3444,-2.9
3445,-3.1
3446,-3.3
3447,-3.4
3448,-3.2
3449,-3.2
3450,-3.3
3451,-3.3
3452,-3.3
3453,-3.5
3454,-3.5
3455,-3.5
3456,-3.5
3457,-3.4
3458,-3.4
3459,-3.5
3460,-3.3
3461,-3.3
3462,-3.3
3463,-3.5
3464,-3.5
3465,-3.3
3466,-3.2
3467,-3.2
3468,-2.8
3469,-2.2
3470,-1.3
3471,-0.4
3472,0.7
3473,2.4
3474,4.7
3475,7.9
3476,10.4
3477,12.1
3478,14.8
3479,18.3
3480,19.9
3481,19.6
3482,18.3
3483,16.6
3484,14
3485,9.5
3486,5.2
3487,0.2
3488,-6.3
3489,-14.2
3490,-19.7
3491,-22.5
3492,-23.6
3493,-24.1
3494,-24.5
3495,-24.1
3496,-23.3
3497,-22
3498,-19.8
3499,-17.1
3500,-14.7
3501,-12.3
3502,-10.5
3503,-8.9
3504,-7.6
3505,-6.5
3506,-5.6
3507,-4.8
3508,-4.1
3509,-3.6
3510,-3.3
3511,-3.2
3512,-2.9
3513,-2.9
3514,-2.9
3515,-2.8
3516,-2.7
3517,-2.7
3518,-2.6
3519,-2.6
3520,-2.5
3521,-2.2
3522,-2.1
3523,-2
3524,-2.2
3525,-2.2
3526,-2
3527,-1.9
3528,-1.9
3529,-2
3530,-1.8
3531,-1.6
3532,-1.8
3533,-2
3534,-2.2
3535,-1.9
3536,-1.7
3537,-1.8
3538,-1.9
3539,-1.7
3540,-1.6
3541,-1.4
3542,-1.4
3543,-1.4
3544,-1.1
3545,-1.2
3546,-1.4
3547,-1.3
3548,-1.3
3549,-1.2
3550,-1
3551,-0.8
3552,-0.8
3553,-0.7
3554,-0.6
3555,-0.7
3556,-0.7
3557,-0.7
3558,-0.8
3559,-0.8
3560,-0.5
3561,-0.4
3562,-0.5
3563,-0.5
3564,-0.3
3565,-0.2
3566,-0.2
3567,-0.3
3568,-0.2
3569,0.1
3570,0.3
3571,0.3
3572,0.3
3573,0.3
3574,0.4
3575,0.3
3576,0.4
3577,0.9
3578,1
3579,0.9
3580,1.1
3581,1.3
3582,1.3
3583,1.4
3584,1.6
3585,1.5
3586,1.5
3587,1.6
3588,1.6
3589,1.7
3590,2
3591,2.3
3592,2.3
3593,2.2
3594,2.2
3595,2.4
3596,2.8
3597,3.1
3598,3.3
3599,3.5
3600,3.5
3601,3.6
3602,3.6
3603,3.7
3604,3.7
3605,3.7
3606,3.7
3607,3.9
3608,4.1
3609,4.2
3610,4.2
3611,4.2
3612,4.1
3613,4.1
3614,4.2
3615,4.1
3616,4.1
3617,4.1
3618,4.4
3619,4.5
3620,4.6
3621,4.6
3622,4.3
3623,4
3624,4
3625,4
3626,3.8
3627,3.9
3628,3.9
3629,3.8
3630,3.7
3631,3.5
3632,3.4
3633,3.3
3634,3.3
3635,3.2
3636,2.9
3637,2.7
3638,2.6
3639,2.6
3640,2.5
3641,2.4
3642,2.2
3643,2.3
3644,2.1
3645,1.8
3646,1.5
3647,1.3
3648,1.1
3649,1.1
3650,0.8
3651,0.4
3652,0.5
3653,0.2
3654,0.1
3655,-0.2
3656,-0.4
3657,-0.5
3658,-0.7
3659,-1.1
3660,-1.1
3661,-1.3
3662,-1.3
3663,-1.3
3664,-1.5
3665,-1.7
3666,-1.9
3667,-1.8
3668,-1.7
3669,-1.7
3670,-1.7
3671,-1.9
3672,-2.1
3673,-2.2
3674,-2.3
3675,-2.4
3676,-2.5
3677,-2.5
3678,-2.4
3679,-2.4
3680,-2.2
3681,-2.2
3682,-2.3
3683,-2.5
3684,-2.6
3685,-2.5
3686,-2.5
3687,-2.5
3688,-2.2
3689,-2.2
3690,-2.1
3691,-2.3
3692,-2.5
3693,-2.6
3694,-2.5
3695,-2.4
3696,-2.6
3697,-2.4
3698,-2.4
3699,-2.4
3700,-2.4
3701,-2.4
3702,-2.3
3703,-2.2
3704,-2
3705,-2.2
3706,-2.1
3707,-2.4
3708,-2.5
3709,-2.3
3710,-2.1
3711,-2.1
3712,-2.2
3713,-2.2
3714,-2.1
3715,-2.3
3716,-2.1
3717,-1.9
3718,-1.8
3719,-1.9
3720,-2.1
3721,-2
3722,-1.8
3723,-1.8
3724,-1.9
3725,-2
3726,-1.9
3727,-1.7
3728,-1.6
3729,-1.6
3730,-1.5
3731,-1.5
3732,-1.6
3733,-1.4
3734,-1.4
3735,-1.5
3736,-1.7
3737,-1.6
3738,-1.5
3739,-1.4
3740,-1.4
3741,-1.4
3742,-1.5
3743,-1.4
3744,-1.5
3745,-1.5
3746,-1.6
3747,-1.6
3748,-1.6
3749,-1.5
3750,-1.2
3751,-1.2
3752,-1.4
3753,-1.6
3754,-1.5
3755,-1.7
3756,-1.8
3757,-1.8
3758,-1.5
3759,-1.5
3760,-1.6
3761,-1.7
3762,-1.6
3763,-1.8
3764,-1.8
3765,-1.8
3766,-1.7
3767,-1.8
3768,-1.9
3769,-2
3770,-1.9
3771,-1.9
3772,-1.9
3773,-1.8
3774,-1.8
3775,-1.9
3776,-2
3777,-2
3778,-2.1
3779,-2.3
3780,-2.4
3781,-2.4
3782,-2.4
3783,-2.4
3784,-2.5
3785,-2.4
3786,-2.4
3787,-2.4
3788,-2.4
3789,-2.4
3790,-2.4
3791,-2.5
3792,-2.6
3793,-2.4
3794,-2.4
3795,-2.4
3796,-2.5
3797,-2.7
3798,-2.6
3799,-2.5
3800,-2.6
3801,-2.6
3802,-2.6
3803,-2.6
3804,-2.7
3805,-2.8
3806,-2.7
3807,-2.8
3808,-2.8
3809,-2.7
3810,-2.7
3811,-2.8
3812,-2.8
3813,-2.8
3814,-2.9
3815,-2.9
3816,-2.8
3817,-2.6
3818,-2.6
3819,-2.7
3820,-2.8
3821,-2.6
3822,-2.6
3823,-2.6
3824,-2.6
3825,-2.7
3826,-2.8
3827,-2.8
3828,-2.6
3829,-2.6
3830,-2.6
3831,-2.9
3832,-3
3833,-2.9
3834,-3.1
3835,-3.1
3836,-2.9
3837,-2.9
3838,-2.9
3839,-2.9
3840,-3
3841,-3
3842,-3.1
3843,-3
3844,-3.1
3845,-3.1
3846,-3
3847,-3
3848,-3.1
3849,-3.3
3850,-3.2
3851,-2.9
3852,-3
3853,-2.9
3854,-2.9
3855,-3
3856,-2.7
3857,-2.7
3858,-2.4
3859,-2.3
3860,-2.4
3861,-2.4
3862,-2.2
3863,-2.5
3864,-2.6
3865,-2.4
3866,-2.5
3867,-2.6
3868,-2.4
3869,-2.3
3870,-2.3
3871,-2.4
3872,-2.3
3873,-2.3
3874,-2
3875,-2
3876,-2
3877,-2
3878,-2
3879,-2.1
3880,-2.2
3881,-2.2
3882,-2
3883,-2
3884,-1.9
3885,-1.8
3886,-1.8
3887,-2.1
3888,-2.3
3889,-2.4
3890,-2.5
3891,-2.4
3892,-2.5
3893,-2.6
3894,-2.8
3895,-2.7
3896,-2.7
3897,-2.8
3898,-2.8
3899,-2.9
3900,-3.1
3901,-3.2
3902,-3.5
3903,-3.4
3904,-3.3
3905,-3.2
3906,-3.4
3907,-3.5
3908,-3.4
3909,-3.5
3910,-3.3
3911,-3.3
3912,-3.4
3913,-3.6
3914,-3.7
3915,-3.8
3916,-3.6
3917,-3.6
3918,-3.7
3919,-3.5
3920,-3.3
3921,-3.3
3922,-3.4
3923,-3.5
3924,-3.6
3925,-3.4
3926,-3.3
3927,-3.2
3928,-3.4
3929,-3.5
3930,-3.7
3931,-3.4
3932,-2.7
3933,-2
3934,-0.6
3935,0.8
3936,2.9
3937,5.8
3938,8.4
3939,10
3940,11.9
3941,15.6
3942,19.2
3943,20.4
3944,20.2
3945,19.4
3946,18.1
3947,14.5
3948,9.9
3949,5.2
3950,0
3951,-7.1
3952,-14.9
3953,-20.2
3954,-23
3955,-24.1
3956,-24.7
3957,-24.8
3958,-24.1
3959,-22.6
3960,-20.4
3961,-18.2
3962,-15.7
3963,-13.4
3964,-11.5
3965,-9.6
3966,-8
3967,-6.8
3968,-5.9
3969,-5.1
3970,-4.4
3971,-3.8
3972,-3.5
3973,-3.5
3974,-3.2
3975,-3.2
3976,-3.2
3977,-3.1
3978,-3.1
3979,-2.9
3980,-2.9
3981,-2.6
3982,-2.5
3983,-2.5
3984,-2.5
3985,-2.4
3986,-2.2
3987,-2.2
3988,-2.3
3989,-2
3990,-2
3991,-2
3992,-2.3
3993,-2
3994,-1.9
3995,-1.9
3996,-1.8
3997,-1.8
3998,-1.7
3999,-1.7
4000,-1.7
4001,-1.8
4002,-1.6
4003,-1.5
4004,-1.4
4005,-1.6
4006,-1.5
4007,-1.5
4008,-1.6
4009,-1.4
4010,-1.2
4011,-1.2
4012,-1.2
4013,-1.2
4014,-1.4
4015,-1.4
4016,-1.2
4017,-1
4018,-1
4019,-0.9
4020,-1
4021,-0.9
4022,-0.6
4023,-0.6
4024,-0.5
4025,-0.5
4026,-0.3
4027,-0.2
4028,-0.4
4029,-0.6
4030,-0.4
4031,-0.4
4032,-0.2
4033,-0.1
4034,0
4035,0
4036,0.1
4037,0.3
4038,0.4
4039,0.5
4040,0.6
4041,0.5
4042,0.6
4043,0.7
4044,0.8
4045,1
4046,1.1
4047,1.2
4048,1.4
4049,1.5
4050,1.5
4051,1.5
4052,1.6
4053,1.7
4054,2.1
4055,2.2
4056,2.2
4057,2.2
4058,2.6
4059,2.7
4060,2.9
4061,3
4062,2.8
4063,2.8
4064,3.1
4065,3.3
4066,3.3
4067,3.5
4068,3.4
4069,3.5
4070,3.6
4071,3.7
4072,3.8
4073,4
4074,4
4075,4
4076,4
4077,3.9
4078,4
4079,4.1
4080,4.1
4081,4.1
4082,3.9
4083,4
4084,4.2
4085,4.1
4086,3.8
4087,3.9
4088,3.9
4089,3.7
4090,3.7
4091,3.7
4092,3.6
4093,3.4
4094,3.1
4095,3.1
4096,3.1
4097,3
4098,3
4099,3
4100,3
4101,2.9
4102,2.6
4103,2.4
4104,2.1
4105,1.9
4106,1.8
4107,1.8
4108,1.6
4109,1.6
4110,1.5
4111,1.2
4112,0.9
4113,0.7
4114,0.5
4115,0.2
4116,0
4117,0
4118,-0.5
4119,-0.6
4120,-0.8
4121,-1
4122,-1
4123,-1
4124,-1.2
4125,-1.4
4126,-1.7
4127,-1.8
4128,-1.9
4129,-1.9
4130,-2.1
4131,-2
4132,-1.9
4133,-2
4134,-2.1
4135,-2.2
4136,-2.4
4137,-2.2
4138,-2.2
4139,-2.3
4140,-2.4
4141,-2.4
4142,-2.5
4143,-2.5
4144,-2.5
4145,-2.4
4146,-2.3
4147,-2.4
4148,-2.5
4149,-2.5
4150,-2.4
4151,-2.7
4152,-2.8
4153,-2.8
4154,-2.8
4155,-2.7
4156,-2.7
4157,-2.8
4158,-2.8
4159,-2.8
4160,-2.6
4161,-2.3
4162,-2.3
4163,-2.3
4164,-2.4
4165,-2.6
4166,-2.6
4167,-2.6
4168,-2.6
4169,-2.5
4170,-2.4
4171,-2.5
4172,-2.5
4173,-2.5
4174,-2.2
4175,-2.1
4176,-2.1
4177,-2.1
4178,-2
4179,-2
4180,-2.3
4181,-2.3
4182,-2.4
4183,-2.3
4184,-2.2
4185,-2.3
4186,-2.3
4187,-2.1
4188,-2.1
4189,-2.2
4190,-2.2
4191,-2.2
4192,-2.1
4193,-2
4194,-2
4195,-2
4196,-1.8
4197,-1.8
4198,-1.7
4199,-1.8
4200,-1.6
4201,-1.6
4202,-1.8
4203,-1.8
4204,-1.8
4205,-1.8
4206,-1.9
4207,-1.8
4208,-1.7
4209,-1.6
4210,-1.6
4211,-1.7
4212,-1.7
4213,-1.5
4214,-1.5
4215,-1.4
4216,-1.4
4217,-1.6
4218,-1.5
4219,-1.6
4220,-1.8
4221,-1.7
4222,-1.9
4223,-1.7
4224,-1.8
4225,-1.8
4226,-1.9
4227,-2.1
4228,-2
4229,-2
4230,-2
4231,-2.1
4232,-2.2
4233,-2.3
4234,-2.1
4235,-2.1
4236,-2
4237,-2.2
4238,-2.4
4239,-2.4
4240,-2.4
4241,-2.4
4242,-2.4
4243,-2.4
4244,-2.5
4245,-2.6
4246,-2.4
4247,-2.3
4248,-2.3
4249,-2.4
4250,-2.6
4251,-2.6
4252,-2.6
4253,-2.7
4254,-2.8
4255,-2.7
4256,-2.7
4257,-2.7
4258,-2.6
4259,-2.7
4260,-2.7
4261,-2.8
4262,-2.7
4263,-2.6
4264,-2.6
4265,-2.8
4266,-2.8
4267,-2.9
4268,-2.9
4269,-2.9
4270,-2.9
4271,-2.9
4272,-3
4273,-3
4274,-3
4275,-3
4276,-2.9
4277,-3
4278,-3.2
4279,-3
4280,-2.9
4281,-2.8
4282,-2.7
4283,-2.8
4284,-3
4285,-3
4286,-3
4287,-3
4288,-3
4289,-2.9
4290,-2.8
4291,-3.1
4292,-3
4293,-3.2
4294,-3.2
4295,-3.1
4296,-3.1
4297,-3.2
4298,-3
4299,-2.9
4300,-3.1
4301,-3.2
4302,-3.2
4303,-3.1
4304,-3
4305,-3
4306,-3
4307,-3
4308,-2.9
4309,-3
4310,-3
4311,-3
4312,-3
4313,-3.1
4314,-3
4315,-3
4316,-2.9
4317,-3.1
4318,-2.9
4319,-2.9
4320,-2.9
4321,-3
4322,-2.9
4323,-2.8
4324,-2.9
4325,-3.1
4326,-3
4327,-3
4328,-2.9
4329,-2.9
4330,-2.8
4331,-2.7
4332,-2.5
4333,-2.2
4334,-2.2
4335,-2.3
4336,-2.3
4337,-2.3
4338,-2.1
4339,-2.1
4340,-2
4341,-1.8
4342,-1.7
4343,-1.7
4344,-1.9
4345,-1.9
4346,-1.7
4347,-1.7
4348,-1.8
4349,-2
4350,-2.2
4351,-2.3
4352,-2.2
4353,-1.9
4354,-1.9
4355,-1.9
4356,-2.1
4357,-2.4
4358,-2.5
4359,-2.7
4360,-2.6
4361,-2.6
4362,-2.6
4363,-2.6
4364,-2.6
4365,-2.5
4366,-2.5
4367,-2.5
4368,-2.7
4369,-2.7
4370,-2.9
4371,-3.1
4372,-3
4373,-2.9
4374,-3
4375,-3.1
4376,-3.2
4377,-3.3
4378,-3.2
4379,-3.3
4380,-3.3
4381,-3.4
4382,-3.2
4383,-3.3
4384,-3.3
4385,-3.4
4386,-3.4
4387,-3.4
4388,-3.4
4389,-3.4
4390,-3.4
4391,-3.3
4392,-3.3
4393,-3.5
4394,-3.5
4395,-3.4
4396,-3.3
4397,-3.2
4398,-3.2
4399,-3.6
4400,-3.6
4401,-2.9
4402,-2.3
4403,-1.2
4404,0
4405,2
4406,4.7
4407,7.7
4408,9.5
4409,10.7
4410,13.4
4411,17.6
4412,20
4413,20.4
4414,20.1
4415,18.9
4416,16.6
4417,12
4418,7.1
4419,1.5
4420,-4.6
4421,-12.5
4422,-19
4423,-23
4424,-24.5
4425,-25.2
4426,-25.6
4427,-24.8
4428,-23.4
4429,-21.5
4430,-19.6
4431,-17
4432,-14
4433,-11.6
4434,-9.6
4435,-8.2
4436,-7.2
4437,-6.3
4438,-5.3
4439,-4.6
4440,-3.9
4441,-3.5
4442,-3.5
4443,-3.2
4444,-3.1
4445,-3.1
4446,-2.9
4447,-2.8
4448,-2.5
4449,-2.1
4450,-2
4451,-2.1
4452,-2.2
4453,-2.3
4454,-2.2
4455,-2.2
4456,-2.1
4457,-2.1
4458,-2.2
4459,-2.3
4460,-2
4461,-2
4462,-2
4463,-2
4464,-2
4465,-2.1
4466,-1.9
4467,-1.9
4468,-1.8
4469,-1.6
4470,-1.5
4471,-1.7
4472,-1.6
4473,-1.4
4474,-1.3
4475,-1.4
4476,-1.4
4477,-1.5
4478,-1.5
4479,-1.4
4480,-1.2
4481,-0.9
4482,-1
4483,-1.2
4484,-1.2
4485,-1.1
4486,-1
4487,-1.1
4488,-0.7
4489,-0.5
4490,-0.6
4491,-0.5
4492,-0.5
4493,-0.3
4494,-0.4
4495,-0.6
4496,-0.4
4497,-0.2
4498,-0.2
4499,-0.1
4500,0
4501,0.1
4502,0
4503,0.1
4504,0.4
4505,0.6
4506,0.5
4507,0.5
4508,0.4
4509,0.6
4510,0.9
4511,1.1
4512,1.2
4513,1.2
4514,1.2
4515,1.1
4516,1
4517,1
4518,1.1
4519,1.3
4520,1.6
4521,1.7
4522,2
4523,2
4524,1.8
4525,1.9
4526,2.2
4527,2.3
4528,2.5
4529,2.7
4530,3
4531,3
4532,3.2
4533,3.2
4534,3.2
4535,3.1
4536,3.1
4537,3.3
4538,3.6
4539,3.6
4540,3.7
4541,3.8
4542,4
4543,4
4544,4
4545,3.9
4546,3.7
4547,3.8
4548,4
4549,4.2
4550,4.2
4551,3.9
4552,4
4553,4
4554,4
4555,4.1
4556,4.1
4557,4.1
4558,3.9
4559,3.7
4560,3.7
4561,3.7
4562,3.7
4563,3.7
4564,3.6
4565,3.3
4566,3.1
4567,3.1
4568,3.2
4569,3
4570,3
4571,3
4572,2.8
4573,2.6
4574,2.3
4575,1.9
4576,1.7
4577,1.5
4578,1.4
4579,1.4
4580,1.4
4581,1.2
4582,1.1
4583,0.7
4584,0.6
4585,0.4
4586,0.1
4587,-0.1
4588,-0.5
4589,-0.7
4590,-0.8
4591,-0.9
4592,-1
4593,-1.1
4594,-1.2
4595,-1.4
4596,-1.4
4597,-1.4
4598,-1.6
4599,-1.7
4600,-1.7
4601,-1.6
4602,-1.6
4603,-1.9
4604,-2
4605,-2.1
4606,-2.3
4607,-2.4
4608,-2.3
4609,-2.2
4610,-2.2
4611,-2.3
4612,-2.4
4613,-2.3
4614,-2.4
4615,-2.5
4616,-2.7
4617,-2.8
4618,-2.6
4619,-2.6
4620,-2.6
4621,-2.4
4622,-2.1
4623,-2.2
4624,-2.4
4625,-2.3
4626,-2.4
4627,-2.5
4628,-2.5
4629,-2.3
4630,-2.3
4631,-2.3
4632,-2.3
4633,-2.5
4634,-2.4
4635,-2.4
4636,-2.5
4637,-2.3
4638,-2.3
4639,-2.3
4640,-2.2
4641,-2.2
4642,-2.4
4643,-2.4
4644,-2.4
4645,-2.3
4646,-2.1
4647,-2.2
4648,-2.1
4649,-2.1
4650,-2
4651,-2
4652,-2.2
4653,-2.2
4654,-2.1
4655,-2.3
4656,-2.3
4657,-2
4658,-1.8
4659,-1.6
4660,-1.8
4661,-1.9
4662,-2.1
4663,-2.1
4664,-1.9
4665,-1.7
4666,-1.7
4667,-1.7
4668,-1.8
4669,-1.9
4670,-1.8
4671,-1.9
4672,-1.9
4673,-2
4674,-1.8
4675,-1.7
4676,-1.7
4677,-1.7
4678,-1.8
4679,-1.9
4680,-1.8
4681,-1.7
4682,-1.6
4683,-1.7
4684,-1.8
4685,-2
4686,-1.9
4687,-1.8
4688,-1.8
4689,-2
4690,-1.8
4691,-1.9
4692,-1.8
4693,-1.9
4694,-1.9
4695,-1.9
4696,-2.1
4697,-2.2
4698,-2.3
4699,-2.4
4700,-2.2
4701,-2.1
4702,-2.1
4703,-2.1
4704,-2.2
4705,-2.2
4706,-2.3
4707,-2.3
4708,-2.3
4709,-2.2
4710,-2.2
4711,-2.3
4712,-2.3
4713,-2.5
4714,-2.7
4715,-2.7
4716,-2.7
4717,-2.6
4718,-2.4
4719,-2.5
4720,-2.6
4721,-2.4
4722,-2.4
4723,-2.5
4724,-2.6
4725,-2.8
4726,-3
4727,-3
4728,-2.8
4729,-2.8
4730,-2.9
4731,-2.8
4732,-2.8
4733,-2.9
4734,-3
4735,-2.9
4736,-2.7
4737,-2.6
4738,-2.6
4739,-2.8
4740,-2.8
4741,-2.8
4742,-2.8
4743,-2.8
4744,-2.8
4745,-3
4746,-3.1
4747,-2.9
4748,-2.9
4749,-3
4750,-3
4751,-3.2
4752,-3.1
4753,-3
4754,-3.1
4755,-3.1
4756,-2.8
4757,-2.6
4758,-2.6
4759,-2.8
4760,-3
4761,-3.2
4762,-3.1
4763,-3.1
4764,-3
4765,-3
4766,-3
4767,-3.1
4768,-3.2
4769,-3.1
4770,-3
4771,-3
4772,-3
4773,-3.2
4774,-3.1
4775,-3.1
4776,-3.2
4777,-3.1
4778,-3.1
4779,-3.2
4780,-3.3
4781,-3.2
4782,-2.9
4783,-3.1
4784,-3.3
4785,-3.3
4786,-3.2
4787,-3
4788,-3
4789,-3.1
4790,-3
4791,-3
4792,-3.2
4793,-3.2
4794,-3
4795,-3
4796,-3.1
4797,-2.9
4798,-2.7
4799,-2.6
4800,-2.7
4801,-2.6
4802,-2.6
4803,-2.5
4804,-2.4
4805,-2.2
4806,-2.4
4807,-2.2
4808,-2.2
4809,-2.1
4810,-2.1
4811,-2.1
4812,-2.2
4813,-2.2
4814,-2.2
4815,-2.2
4816,-2.1
4817,-1.9
4818,-1.8
4819,-1.9
4820,-2.1
4821,-2.1
4822,-2.3
4823,-2.5
4824,-2.3
4825,-2.3
4826,-2.5
4827,-2.6
4828,-2.6
4829,-2.8
4830,-2.9
4831,-3
4832,-3.1
4833,-3
4834,-3
4835,-3
4836,-3
4837,-2.9
4838,-3
4839,-3.2
4840,-3.5
4841,-3.7
4842,-3.6
4843,-3.5
4844,-3.3
4845,-3.5
4846,-3.5
4847,-3.5
4848,-3.7
4849,-3.7
4850,-3.8
4851,-3.5
4852,-3.5
4853,-3.6
4854,-3.7
4855,-3.7
4856,-3.7
4857,-3.8
4858,-3.7
4859,-3.4
4860,-3.5
4861,-3.8
4862,-3.8
4863,-3.5
4864,-3.6
4865,-3.7
4866,-3.6
4867,-3.7
4868,-3.8
4869,-3.7
4870,-3.5
4871,-3.3
4872,-2.7
4873,-1.8
4874,-0.5
4875,0.7
4876,2.7
4877,5.7
4878,8.3
4879,9.8
4880,12.2
4881,15.9
4882,19.2
4883,20.2
4884,19.8
4885,18.4
4886,16.4
4887,11.9
4888,7.2
4889,2.1
4890,-3.9
4891,-11.9
4892,-19.3
4893,-23.6
4894,-25.4
4895,-26.2
4896,-26.8
4897,-26.3
4898,-25.1
4899,-23.1
4900,-21.1
4901,-18.9
4902,-15.7
4903,-13
4904,-10.8
4905,-9.2
4906,-8.1
4907,-6.8
4908,-6.2
4909,-5.4
4910,-4.5
4911,-4
4912,-3.7
4913,-3.7
4914,-3.8
4915,-3.8
4916,-3.6
4917,-3.4
4918,-3.2
4919,-3.2
4920,-3.1
4921,-2.8
4922,-2.8
4923,-2.9
4924,-2.9
4925,-2.9
4926,-3.1
4927,-2.9
4928,-2.9
4929,-2.9
4930,-2.6
4931,-2.6
4932,-2.4
4933,-2.4
4934,-2.6
4935,-2.7
4936,-2.7
4937,-2.7
4938,-2.6
4939,-2.4
4940,-2.1
4941,-2.2
4942,-2.2
4943,-2.1
4944,-2.1
4945,-2.2
4946,-2.3
4947,-2.2
4948,-2.1
4949,-1.9
4950,-1.9
4951,-2.1
4952,-2.1
4953,-2.1
4954,-1.9
4955,-1.8
4956,-1.6
4957,-1.6
4958,-1.5
4959,-1.5
4960,-1.3
4961,-1.2
4962,-1.2
4963,-1.2
4964,-1.2
4965,-1.3
4966,-1.2
4967,-1
4968,-1
4969,-1
4970,-0.8
4971,-0.7
4972,-0.9
4973,-0.7
4974,-0.4
4975,-0.3
4976,-0.3
4977,-0.5
4978,-0.5
4979,-0.4
4980,-0.2
4981,-0.1
4982,0
4983,0.2
4984,0.4
4985,0.4
4986,0.5
4987,0.8
4988,1
4989,0.9
4990,0.8
4991,0.8
4992,0.8
4993,1.1
4994,1.2
4995,1.3
4996,1.3
4997,1.5
4998,1.7
4999,1.9
5000,2.1
