TS,Reading,Flag,TS2,Reading2,Flag2
1,3,5,2000,-2,5
2,1,5,2001,-2,5
3,1,5,2002,-2,5
4,0,5,2003,-2,5
5,1,5,2004,-5,5
6,1,5,2005,-5,5
7,2,5,2006,-5,5
8,4,5,2007,-5,5
9,2,5,2008,-5,5
10,1,5,2009,-3,5
11,1,5,2010,-3,5
12,1,5,2011,-3,5
13,1,5,2012,-2,5
14,2,5,2013,-2,5
15,4,5,2014,-2,5
16,4,5,2015,-2,5
17,4,5,2016,-2,5
18,2,5,2017,-2,5
19,2,5,2018,-2,5
20,2,5,2019,-2,5
21,3,5,2020,-2,5
22,3,5,2021,-1,5
23,3,5,2022,0,5
24,5,5,2023,1,5
25,3,5,2024,0,5
26,2,5,2025,-1,5
27,3,5,2026,0,5
28,5,5,2027,-2,5
29,4,5,2028,-2,5
30,4,5,2029,-1,5
31,3,5,2030,1,5
32,2,5,2031,2,5
33,0,5,2032,1,5
34,0,5,2033,1,5
35,2,5,2034,0,5
36,1,5,2035,2,5
37,3,5,2036,1,5
38,7,5,2037,-1,5
39,10,5,2038,-3,5
40,11,5,2039,-5,5
41,10,5,2040,-6,5
42,5,5,2041,-4,5
43,2,5,2042,-3,5
44,0,5,2043,-1,5
45,-1,5,2044,2,5
46,-1,5,2045,4,5
47,3,5,2046,2,5
48,6,5,2047,1,5
49,7,5,2048,-1,5
50,5,5,2049,-1,5
51,1,5,2050,-2,5
52,-2,5,2051,-4,5
53,-1,5,2052,-4,5
54,1,5,2053,0,5
55,1,5,2054,2,5
56,1,5,2055,3,5
57,3,5,2056,3,5
58,6,5,2057,0,5
59,4,5,2058,-2,5
60,3,5,2059,-2,5
61,3,5,2060,-3,5
62,3,5,2061,-3,5
63,4,5,2062,-3,5
64,4,5,2063,-3,5
65,3,5,2064,-2,5
66,2,5,2065,-1,5
67,1,5,2066,-2,5
68,1,5,2067,-2,5
69,0,5,2068,-3,5
70,0,5,2069,-5,5
71,1,5,2070,-4,5
72,1,5,2071,-2,5
73,2,5,2072,-1,5
74,4,5,2073,-1,5
75,3,5,2074,0,5
76,1,5,2075,0,5
77,0,5,2076,2,5
78,-3,5,2077,1,5
79,-3,5,2078,0,5
80,-4,5,2079,0,5
81,-4,5,2080,0,5
82,-4,5,2081,1,5
83,-5,5,2082,1,5
84,-4,5,2083,0,5
85,-5,5,2084,-2,5
86,-6,5,2085,-3,5
87,-6,5,2086,-1,5
88,-8,5,2087,-3,5
89,-9,5,2088,-3,5
90,-9,5,2089,-2,5
91,-7,5,2090,0,5
92,-3,5,2091,0,5
93,2,5,2092,0,5
94,3,5,2093,0,5
95,0,5,2094,-1,5
96,0,5,2095,-1,5
97,3,5,2096,-3,5
98,6,5,2097,-4,5
99,7,5,2098,-6,5
100,5,5,2099,-7,5
101,5,5,2100,-7,5
102,6,5,2101,-7,5
103,5,5,2102,-7,5
104,6,5,2103,-7,5
105,5,5,2104,-7,5
106,5,5,2105,-8,5
107,4,5,2106,-8,5
108,5,5,2107,-10,5
109,6,5,2108,-12,5
110,6,5,2109,-12,5
111,8,5,2110,-11,5
112,7,5,2111,-10,5
113,6,5,2112,-10,5
114,8,5,2113,-9,5
115,9,5,2114,-7,5
116,11,5,2115,-10,5
117,12,5,2116,-12,5
118,11,5,2117,-10,5
119,12,5,2118,-9,5
120,11,5,2119,-8,5
121,11,5,2120,-7,5
122,10,5,2121,-4,5
123,10,5,2122,-3,5
124,10,5,2123,-4,5
125,10,5,2124,-5,5
126,9,5,2125,-4,5
127,7,5,2126,-1,5
128,7,5,2127,3,5
129,6,5,2128,7,5
130,5,5,2129,10,5
131,4,5,2130,9,5
132,4,5,2131,4,5
133,5,5,2132,2,5
134,5,5,2133,0,5
135,7,5,2134,-2,5
136,9,5,2135,-2,5
137,11,5,2136,-2,5
138,14,5,2137,-2,5
139,14,5,2138,-2,5
140,14,5,2139,1,5
141,12,5,2140,3,5
142,12,5,2141,5,5
143,11,5,2142,5,5
144,6,5,2143,5,5
145,7,5,2144,3,5
146,5,5,2145,4,5
147,-3,5,2146,4,5
148,-10,5,2147,3,5
149,-17,5,2148,3,5
150,-17,5,2149,4,5
151,-17,5,2150,5,5
152,-17,5,2151,5,5
153,-17,5,2152,2,5
154,-5,5,2153,1,5
155,5,5,2154,1,5
156,10,5,2155,2,5
157,8,5,2156,1,5
158,-2,5,2157,2,5
159,0,5,2158,2,5
160,11,5,2159,2,5
161,14,5,2160,3,5
162,14,5,2161,4,5
163,14,5,2162,2,5
164,14,5,2163,1,5
165,14,5,2164,0,5
166,14,5,2165,0,5
167,12,5,2166,3,5
168,12,5,2167,3,5
169,13,5,2168,2,5
170,12,5,2169,2,5
171,10,5,2170,1,5
172,9,5,2171,0,5
173,9,5,2172,2,5
174,8,5,2173,4,5
175,9,5,2174,5,5
176,7,5,2175,3,5
177,2,5,2176,1,5
178,-1,5,2177,-3,5
179,-1,5,2178,-8,5
180,-1,5,2179,-12,5
181,0,5,2180,-17,5
182,0,5,2181,-17,5
183,1,5,2182,-17,5
184,1,5,2183,-17,5
185,2,5,2184,-16,5
186,3,5,2185,-8,5
187,5,5,2186,2,5
188,5,5,2187,10,5
189,5,5,2188,14,5
190,5,5,2189,10,5
191,3,5,2190,9,5
192,2,5,2191,14,5
193,1,5,2192,14,5
194,-1,5,2193,14,5
195,-2,5,2194,14,5
196,0,5,2195,14,5
197,-1,5,2196,14,5
198,1,5,2197,14,5
199,-1,5,2198,14,5
200,1,5,2199,13,5
201,0,5,2200,9,5
202,0,5,2201,5,5
203,1,5,2202,3,5
204,1,5,2203,2,5
205,1,5,2204,1,5
206,2,5,2205,-1,5
207,1,5,2206,-1,5
208,0,5,2207,0,5
209,2,5,2208,0,5
210,1,5,2209,2,5
211,1,5,2210,2,5
212,2,5,2211,1,5
213,2,5,2212,0,5
214,2,5,2213,1,5
215,0,5,2214,1,5
216,-2,5,2215,1,5
217,-2,5,2216,1,5
218,-2,5,2217,0,5
219,-4,5,2218,-1,5
220,-4,5,2219,-2,5
221,-6,5,2220,1,5
222,-6,5,2221,1,5
223,-6,5,2222,1,5
224,-6,5,2223,1,5
225,-6,5,2224,1,5
226,-6,5,2225,-1,5
227,-5,5,2226,-3,5
228,-5,5,2227,-3,5
229,-4,5,2228,-3,5
230,-3,5,2229,-4,5
231,-3,5,2230,-3,5
232,-4,5,2231,-2,5
233,-4,5,2232,0,5
234,-3,5,2233,1,5
235,-3,5,2234,-1,5
236,-3,5,2235,-1,5
237,-3,5,2236,-3,5
238,-1,5,2237,-3,5
239,1,5,2238,-5,5
240,0,5,2239,-4,5
241,-1,5,2240,-3,5
242,-3,5,2241,-3,5
243,-1,5,2242,-4,5
244,-1,5,2243,-3,5
245,-1,5,2244,-3,5
246,-1,5,2245,-3,5
247,0,5,2246,-4,5
248,-1,5,2247,-5,5
249,-3,5,2248,-4,5
250,-4,5,2249,-5,5
251,-4,5,2250,-6,5
252,-3,5,2251,-5,5
253,-4,5,2252,-3,5
254,-4,5,2253,-1,5
255,-3,5,2254,-1,5
256,-1,5,2255,-3,5
257,-2,5,2256,-5,5
258,-2,5,2257,-6,5
259,-2,5,2258,-4,5
260,-2,5,2259,-4,5
261,-1,5,2260,-5,5
262,-2,5,2261,-5,5
263,-3,5,2262,-4,5
264,-4,5,2263,-2,5
265,-3,5,2264,-2,5
266,-3,5,2265,-2,5
267,-2,5,2266,0,5
268,0,5,2267,0,5
269,3,5,2268,0,5
270,3,5,2269,-1,5
271,3,5,2270,-2,5
272,2,5,2271,-3,5
273,-1,5,2272,-5,5
274,-4,5,2273,-5,5
275,-5,5,2274,-7,5
276,-5,5,2275,-7,5
277,-3,5,2276,-7,5
278,-3,5,2277,-6,5
279,-3,5,2278,-7,5
280,-5,5,2279,-6,5
281,-6,5,2280,-4,5
282,-5,5,2281,-3,5
283,-5,5,2282,-2,5
284,-5,5,2283,-1,5
285,-5,5,2284,-1,5
286,-4,5,2285,-1,5
287,-2,5,2286,-2,5
288,-1,5,2287,-3,5
289,-2,5,2288,-3,5
290,-1,5,2289,-4,5
291,1,5,2290,-6,5
292,2,5,2291,-7,5
293,2,5,2292,-8,5
294,1,5,2293,-8,5
295,-2,5,2294,-6,5
296,-3,5,2295,-2,5
297,-4,5,2296,0,5
298,-6,5,2297,1,5
299,-7,5,2298,1,5
300,-7,5,2299,2,5
301,-7,5,2300,1,5
302,-5,5,2301,-2,5
303,-5,5,2302,-3,5
304,-5,5,2303,-4,5
305,-7,5,2304,-3,5
306,-8,5,2305,-2,5
307,-7,5,2306,-3,5
308,-7,5,2307,-4,5
309,-4,5,2308,-5,5
310,-2,5,2309,-6,5
311,-2,5,2310,-6,5
312,-3,5,2311,-5,5
313,-3,5,2312,-4,5
314,-3,5,2313,-3,5
315,-4,5,2314,-1,5
316,-5,5,2315,0,5
317,-6,5,2316,0,5
318,-5,5,2317,-1,5
319,-4,5,2318,-2,5
320,-2,5,2319,-5,5
321,-1,5,2320,-4,5
322,-2,5,2321,-3,5
323,-3,5,2322,-4,5
324,-4,5,2323,-3,5
325,-5,5,2324,-1,5
326,-5,5,2325,1,5
327,-7,5,2326,0,5
328,-7,5,2327,-3,5
329,-8,5,2328,-3,5
330,-6,5,2329,-2,5
331,-6,5,2330,-2,5
332,-7,5,2331,-4,5
333,-6,5,2332,-4,5
334,-4,5,2333,-4,5
335,-3,5,2334,-4,5
336,-2,5,2335,-2,5
337,0,5,2336,-3,5
338,0,5,2337,-4,5
339,-1,5,2338,-2,5
340,-1,5,2339,-2,5
341,-1,5,2340,-4,5
342,0,5,2341,-5,5
343,-1,5,2342,-6,5
344,-3,5,2343,-6,5
345,-5,5,2344,-5,5
346,-6,5,2345,-4,5
347,-8,5,2346,-3,5
348,-9,5,2347,-2,5
349,-9,5,2348,-1,5
350,-8,5,2349,0,5
351,-5,5,2350,-1,5
352,-5,5,2351,-3,5
353,-5,5,2352,-3,5
354,-4,5,2353,-2,5
355,-2,5,2354,-3,5
356,-3,5,2355,-2,5
357,-5,5,2356,-1,5
358,-8,5,2357,0,5
359,-8,5,2358,0,5
360,-7,5,2359,0,5
361,-6,5,2360,0,5
362,-8,5,2361,2,5
363,-8,5,2362,2,5
364,-9,5,2363,2,5
365,-8,5,2364,-1,5
366,-6,5,2365,-3,5
367,-5,5,2366,-4,5
368,-3,5,2367,-4,5
369,-3,5,2368,-4,5
370,-5,5,2369,-4,5
371,-6,5,2370,-3,5
372,-8,5,2371,0,5
373,-11,5,2372,3,5
374,-10,5,2373,4,5
375,-8,5,2374,4,5
376,-9,5,2375,5,5
377,-9,5,2376,6,5
378,-9,5,2377,4,5
379,-5,5,2378,2,5
380,-3,5,2379,2,5
381,-4,5,2380,1,5
382,-7,5,2381,2,5
383,-6,5,2382,4,5
384,-7,5,2383,4,5
385,-6,5,2384,2,5
386,-7,5,2385,2,5
387,-6,5,2386,2,5
388,-7,5,2387,1,5
389,-7,5,2388,-2,5
390,-8,5,2389,-3,5
391,-9,5,2390,-2,5
392,-9,5,2391,-2,5
393,-9,5,2392,0,5
394,-10,5,2393,3,5
395,-9,5,2394,5,5
396,-7,5,2395,6,5
397,-6,5,2396,4,5
398,-7,5,2397,0,5
399,-7,5,2398,-5,5
400,-4,5,2399,-7,5
401,-5,5,2400,-6,5
402,-3,5,2401,-5,5
403,-4,5,2402,-2,5
404,-4,5,2403,1,5
405,-7,5,2404,2,5
406,-7,5,2405,2,5
407,-6,5,2406,0,5
408,-6,5,2407,-3,5
409,-7,5,2408,-5,5
410,-8,5,2409,-3,5
411,-8,5,2410,-3,5
412,-8,5,2411,-2,5
413,-8,5,2412,-3,5
414,-10,5,2413,-3,5
415,-10,5,2414,-2,5
416,-10,5,2415,-3,5
417,-9,5,2416,-2,5
418,-7,5,2417,-2,5
419,-3,5,2418,-4,5
420,-2,5,2419,-3,5
421,-3,5,2420,-2,5
422,-5,5,2421,-3,5
423,-6,5,2422,-3,5
424,-7,5,2423,-2,5
425,-7,5,2424,-3,5
426,-7,5,2425,-4,5
427,-8,5,2426,-4,5
428,-5,5,2427,-3,5
429,-7,5,2428,-3,5
430,-8,5,2429,-4,5
431,-8,5,2430,-4,5
432,-6,5,2431,-3,5
433,-6,5,2432,-3,5
434,-6,5,2433,-4,5
435,-5,5,2434,-5,5
436,-4,5,2435,-4,5
437,-3,5,2436,-5,5
438,-4,5,2437,-3,5
439,-6,5,2438,-3,5
440,-6,5,2439,-3,5
441,-7,5,2440,-3,5
442,-7,5,2441,-4,5
443,-9,5,2442,-6,5
444,-11,5,2443,-2,5
445,-9,5,2444,-1,5
446,-8,5,2445,0,5
447,-6,5,2446,-2,5
448,-7,5,2447,-4,5
449,-7,5,2448,-4,5
450,-8,5,2449,-4,5
451,-7,5,2450,-3,5
452,-5,5,2451,-4,5
453,-3,5,2452,-3,5
454,-3,5,2453,-3,5
455,-3,5,2454,-2,5
456,-5,5,2455,-2,5
457,-7,5,2456,-1,5
458,-7,5,2457,0,5
459,-7,5,2458,-1,5
460,-7,5,2459,-2,5
461,-7,5,2460,-4,5
462,-9,5,2461,-4,5
463,-9,5,2462,-4,5
464,-9,5,2463,-4,5
465,-10,5,2464,-4,5
466,-7,5,2465,-4,5
467,-6,5,2466,-2,5
468,-5,5,2467,0,5
469,-3,5,2468,-1,5
470,-3,5,2469,0,5
471,-4,5,2470,1,5
472,-5,5,2471,2,5
473,-3,5,2472,2,5
474,-4,5,2473,3,5
475,-4,5,2474,4,5
476,-3,5,2475,4,5
477,-3,5,2476,2,5
478,-1,5,2477,-2,5
479,-1,5,2478,-5,5
480,-1,5,2479,-5,5
481,-2,5,2480,-4,5
482,-3,5,2481,-1,5
483,-4,5,2482,-1,5
484,-4,5,2483,1,5
485,-5,5,2484,2,5
486,-4,5,2485,3,5
487,-4,5,2486,3,5
488,-3,5,2487,1,5
489,-3,5,2488,0,5
490,-4,5,2489,0,5
491,-4,5,2490,0,5
492,-3,5,2491,0,5
493,-5,5,2492,0,5
494,-5,5,2493,0,5
495,-4,5,2494,3,5
496,-3,5,2495,4,5
497,-1,5,2496,2,5
498,-2,5,2497,1,5
499,-5,5,2498,-1,5
500,-6,5,2499,-1,5
501,-6,5,2500,-2,5
502,-5,5,2501,-1,5
503,-5,5,2502,1,5
504,-4,5,2503,1,5
505,-5,5,2504,0,5
506,-6,5,2505,-1,5
507,-6,5,2506,-2,5
508,-6,5,2507,-1,5
509,-4,5,2508,-1,5
510,-3,5,2509,0,5
511,-2,5,2510,1,5
512,-2,5,2511,0,5
513,-3,5,2512,1,5
514,-5,5,2513,3,5
515,-7,5,2514,4,5
516,-6,5,2515,5,5
517,-6,5,2516,4,5
518,-4,5,2517,3,5
519,-4,5,2518,0,5
520,-4,5,2519,0,5
521,-5,5,2520,2,5
522,-4,5,2521,2,5
523,-3,5,2522,3,5
524,-1,5,2523,4,5
525,-1,5,2524,4,5
526,-2,5,2525,2,5
527,-3,5,2526,-2,5
528,-4,5,2527,0,5
529,-3,5,2528,0,5
530,-4,5,2529,1,5
531,-5,5,2530,2,5
532,-3,5,2531,2,5
533,-1,5,2532,2,5
534,-2,5,2533,5,5
535,-3,5,2534,4,5
536,-5,5,2535,2,5
537,-6,5,2536,2,5
538,-5,5,2537,3,5
539,-7,5,2538,2,5
540,-8,5,2539,0,5
541,-7,5,2540,0,5
542,-5,5,2541,3,5
543,-5,5,2542,5,5
544,-6,5,2543,6,5
545,-4,5,2544,5,5
546,-4,5,2545,3,5
547,-4,5,2546,5,5
548,-4,5,2547,4,5
549,-3,5,2548,3,5
550,-3,5,2549,3,5
551,-3,5,2550,5,5
552,-2,5,2551,6,5
553,-2,5,2552,6,5
554,-2,5,2553,5,5
555,-3,5,2554,5,5
556,-5,5,2555,5,5
557,-4,5,2556,5,5
558,-3,5,2557,4,5
559,-1,5,2558,4,5
560,0,5,2559,3,5
561,0,5,2560,4,5
562,-1,5,2561,5,5
563,-1,5,2562,3,5
564,-3,5,2563,2,5
565,-5,5,2564,2,5
566,-6,5,2565,3,5
567,-6,5,2566,5,5
568,-6,5,2567,5,5
569,-5,5,2568,6,5
570,-4,5,2569,7,5
571,-4,5,2570,9,5
572,-3,5,2571,9,5
573,-4,5,2572,8,5
574,-5,5,2573,7,5
575,-7,5,2574,6,5
576,-8,5,2575,6,5
577,-9,5,2576,8,5
578,-9,5,2577,6,5
579,-9,5,2578,6,5
580,-8,5,2579,5,5
581,-8,5,2580,3,5
582,-7,5,2581,4,5
583,-6,5,2582,5,5
584,-5,5,2583,4,5
585,-6,5,2584,4,5
586,-8,5,2585,5,5
587,-11,5,2586,5,5
588,-10,5,2587,5,5
589,-10,5,2588,4,5
590,-11,5,2589,4,5
591,-12,5,2590,3,5
592,-12,5,2591,4,5
593,-14,5,2592,5,5
594,-16,5,2593,5,5
595,-17,5,2594,7,5
596,-15,5,2595,7,5
597,-13,5,2596,6,5
598,-11,5,2597,3,5
599,-11,5,2598,1,5
600,-10,5,2599,-1,5
601,-9,5,2600,-3,5
602,-7,5,2601,-4,5
603,-4,5,2602,-3,5
604,-3,5,2603,-2,5
605,-4,5,2604,-3,5
606,-2,5,2605,-2,5
607,-2,5,2606,-1,5
608,-1,5,2607,-1,5
609,-2,5,2608,-4,5
610,0,5,2609,-5,5
611,1,5,2610,-6,5
612,0,5,2611,-6,5
613,0,5,2612,-7,5
614,1,5,2613,-8,5
615,1,5,2614,-9,5
616,0,5,2615,-10,5
617,0,5,2616,-10,5
618,0,5,2617,-10,5
619,0,5,2618,-11,5
620,-1,5,2619,-12,5
621,-1,5,2620,-10,5
622,0,5,2621,-10,5
623,2,5,2622,-11,5
624,2,5,2623,-12,5
625,3,5,2624,-12,5
626,1,5,2625,-11,5
627,-1,5,2626,-10,5
628,-2,5,2627,-9,5
629,-4,5,2628,-13,5
630,-5,5,2629,-14,5
631,-4,5,2630,-12,5
632,-3,5,2631,-10,5
633,-2,5,2632,-8,5
634,-1,5,2633,-6,5
635,0,5,2634,-5,5
636,0,5,2635,-5,5
637,1,5,2636,-4,5
638,-1,5,2637,-5,5
639,-1,5,2638,-3,5
640,-1,5,2639,0,5
641,1,5,2640,1,5
642,2,5,2641,1,5
643,2,5,2642,1,5
644,3,5,2643,-1,5
645,3,5,2644,-2,5
646,2,5,2645,-2,5
647,1,5,2646,0,5
648,1,5,2647,-1,5
649,1,5,2648,-1,5
650,2,5,2649,-2,5
651,2,5,2650,-4,5
652,2,5,2651,-5,5
653,1,5,2652,-4,5
654,0,5,2653,-2,5
655,-3,5,2654,0,5
656,-6,5,2655,-1,5
657,-10,5,2656,-2,5
658,-17,5,2657,-1,5
659,-17,5,2658,1,5
660,-17,5,2659,1,5
661,-17,5,2660,2,5
662,-17,5,2661,1,5
663,-17,5,2662,-2,5
664,-16,5,2663,-3,5
665,-5,5,2664,-4,5
666,4,5,2665,-4,5
667,7,5,2666,-3,5
668,4,5,2667,-2,5
669,5,5,2668,-4,5
670,11,5,2669,-5,5
671,14,5,2670,-6,5
672,14,5,2671,-5,5
673,14,5,2672,-5,5
674,14,5,2673,-4,5
675,13,5,2674,-4,5
676,10,5,2675,-3,5
677,9,5,2676,-3,5
678,8,5,2677,-4,5
679,8,5,2678,-3,5
680,7,5,2679,-1,5
681,5,5,2680,-3,5
682,5,5,2681,-5,5
683,4,5,2682,-5,5
684,3,5,2683,-7,5
685,0,5,2684,-11,5
686,-1,5,2685,-13,5
687,-2,5,2686,-15,5
688,-5,5,2687,-14,5
689,-6,5,2688,-16,5
690,-5,5,2689,-17,5
691,-4,5,2690,-17,5
692,-4,5,2691,-17,5
693,-4,5,2692,-17,5
694,-1,5,2693,-17,5
695,1,5,2694,-15,5
696,1,5,2695,-8,5
697,0,5,2696,-3,5
698,-1,5,2697,-5,5
699,0,5,2698,-8,5
700,-1,5,2699,-3,5
701,-2,5,2700,6,5
702,-3,5,2701,10,5
703,-3,5,2702,12,5
704,-4,5,2703,11,5
705,-2,5,2704,9,5
706,-2,5,2705,6,5
707,-3,5,2706,4,5
708,-4,5,2707,3,5
709,-8,5,2708,2,5
710,-9,5,2709,-2,5
711,-8,5,2710,-4,5
712,-7,5,2711,-4,5
713,-5,5,2712,-5,5
714,-5,5,2713,-6,5
715,-5,5,2714,-7,5
716,-4,5,2715,-7,5
717,-3,5,2716,-7,5
718,-4,5,2717,-9,5
719,-4,5,2718,-10,5
720,-4,5,2719,-8,5
721,-4,5,2720,-6,5
722,-5,5,2721,-5,5
723,-4,5,2722,-5,5
724,-2,5,2723,-6,5
725,-1,5,2724,-8,5
726,-1,5,2725,-10,5
727,-4,5,2726,-10,5
728,-5,5,2727,-10,5
729,-7,5,2728,-12,5
730,-7,5,2729,-13,5
731,-6,5,2730,-12,5
732,-7,5,2731,-13,5
733,-8,5,2732,-14,5
734,-8,5,2733,-12,5
735,-7,5,2734,-10,5
736,-7,5,2735,-9,5
737,-6,5,2736,-9,5
738,-8,5,2737,-11,5
739,-10,5,2738,-9,5
740,-8,5,2739,-8,5
741,-7,5,2740,-7,5
742,-7,5,2741,-7,5
743,-6,5,2742,-6,5
744,-6,5,2743,-8,5
745,-7,5,2744,-9,5
746,-6,5,2745,-9,5
747,-4,5,2746,-8,5
748,-3,5,2747,-9,5
749,-4,5,2748,-9,5
750,-6,5,2749,-8,5
751,-7,5,2750,-7,5
752,-8,5,2751,-7,5
753,-8,5,2752,-8,5
754,-9,5,2753,-9,5
755,-9,5,2754,-8,5
756,-9,5,2755,-8,5
757,-7,5,2756,-7,5
758,-7,5,2757,-5,5
759,-9,5,2758,-6,5
760,-7,5,2759,-9,5
761,-7,5,2760,-10,5
762,-8,5,2761,-9,5
763,-11,5,2762,-9,5
764,-11,5,2763,-10,5
765,-11,5,2764,-12,5
766,-10,5,2765,-13,5
767,-9,5,2766,-11,5
768,-8,5,2767,-12,5
769,-6,5,2768,-10,5
770,-5,5,2769,-8,5
771,-5,5,2770,-9,5
772,-7,5,2771,-9,5
773,-5,5,2772,-9,5
774,-5,5,2773,-8,5
775,-6,5,2774,-8,5
776,-7,5,2775,-8,5
777,-7,5,2776,-8,5
778,-5,5,2777,-9,5
779,-6,5,2778,-11,5
780,-7,5,2779,-9,5
781,-9,5,2780,-10,5
782,-10,5,2781,-10,5
783,-7,5,2782,-10,5
784,-7,5,2783,-10,5
785,-8,5,2784,-9,5
786,-8,5,2785,-8,5
787,-10,5,2786,-8,5
788,-10,5,2787,-8,5
789,-10,5,2788,-7,5
790,-11,5,2789,-7,5
791,-11,5,2790,-8,5
792,-10,5,2791,-8,5
793,-9,5,2792,-7,5
794,-9,5,2793,-7,5
795,-7,5,2794,-6,5
796,-6,5,2795,-7,5
797,-8,5,2796,-8,5
798,-8,5,2797,-8,5
799,-7,5,2798,-8,5
800,-7,5,2799,-8,5
801,-9,5,2800,-6,5
802,-11,5,2801,-5,5
803,-12,5,2802,-5,5
804,-14,5,2803,-3,5
805,-14,5,2804,-3,5
806,-14,5,2805,-6,5
807,-14,5,2806,-8,5
808,-14,5,2807,-8,5
809,-16,5,2808,-7,5
810,-16,5,2809,-7,5
811,-13,5,2810,-5,5
812,-13,5,2811,-4,5
813,-12,5,2812,-4,5
814,-13,5,2813,-5,5
815,-14,5,2814,-6,5
816,-14,5,2815,-5,5
817,-14,5,2816,-6,5
818,-14,5,2817,-8,5
819,-14,5,2818,-9,5
820,-12,5,2819,-8,5
821,-9,5,2820,-6,5
822,-10,5,2821,-5,5
823,-11,5,2822,-4,5
824,-11,5,2823,-2,5
825,-11,5,2824,-3,5
826,-10,5,2825,-4,5
827,-8,5,2826,-6,5
828,-7,5,2827,-5,5
829,-4,5,2828,-6,5
830,-5,5,2829,-5,5
831,-6,5,2830,-5,5
832,-6,5,2831,-6,5
833,-5,5,2832,-5,5
834,-4,5,2833,-4,5
835,-5,5,2834,-5,5
836,-4,5,2835,-5,5
837,-2,5,2836,-5,5
838,-1,5,2837,-4,5
839,-1,5,2838,-2,5
840,-1,5,2839,-1,5
841,0,5,2840,0,5
842,0,5,2841,-1,5
843,-3,5,2842,-2,5
844,-4,5,2843,-4,5
845,-7,5,2844,-5,5
846,-8,5,2845,-5,5
847,-7,5,2846,-5,5
848,-8,5,2847,-5,5
849,-6,5,2848,-5,5
850,-5,5,2849,-7,5
851,-5,5,2850,-7,5
852,-5,5,2851,-9,5
853,-6,5,2852,-9,5
854,-7,5,2853,-9,5
855,-7,5,2854,-7,5
856,-7,5,2855,-7,5
857,-6,5,2856,-6,5
858,-4,5,2857,-6,5
859,-3,5,2858,-6,5
860,-1,5,2859,-7,5
861,-2,5,2860,-7,5
862,-4,5,2861,-7,5
863,-4,5,2862,-8,5
864,-3,5,2863,-7,5
865,-2,5,2864,-5,5
866,-4,5,2865,-3,5
867,-4,5,2866,-3,5
868,-5,5,2867,-5,5
869,-5,5,2868,-5,5
870,-4,5,2869,-5,5
871,-3,5,2870,-6,5
872,-4,5,2871,-7,5
873,-3,5,2872,-7,5
874,0,5,2873,-6,5
875,-1,5,2874,-6,5
876,-3,5,2875,-6,5
877,-4,5,2876,-7,5
878,-5,5,2877,-7,5
879,-4,5,2878,-6,5
880,-6,5,2879,-4,5
881,-5,5,2880,-3,5
882,-5,5,2881,-3,5
883,-5,5,2882,-3,5
884,-5,5,2883,-3,5
885,-5,5,2884,-5,5
886,-3,5,2885,-6,5
887,-2,5,2886,-4,5
888,-3,5,2887,-3,5
889,-5,5,2888,-3,5
890,-6,5,2889,-3,5
891,-7,5,2890,-3,5
892,-8,5,2891,-6,5
893,-7,5,2892,-7,5
894,-5,5,2893,-6,5
895,-5,5,2894,-5,5
896,-3,5,2895,-4,5
897,-3,5,2896,-4,5
898,-3,5,2897,-4,5
899,-5,5,2898,-4,5
900,-6,5,2899,-5,5
901,-8,5,2900,-5,5
902,-11,5,2901,-6,5
903,-11,5,2902,-5,5
904,-10,5,2903,-4,5
905,-7,5,2904,-5,5
906,-7,5,2905,-5,5
907,-6,5,2906,-6,5
908,-5,5,2907,-6,5
909,-5,5,2908,-7,5
910,-4,5,2909,-8,5
911,-4,5,2910,-7,5
912,-5,5,2911,-7,5
913,-7,5,2912,-7,5
914,-7,5,2913,-5,5
915,-9,5,2914,-5,5
916,-10,5,2915,-7,5
917,-9,5,2916,-9,5
918,-8,5,2917,-9,5
919,-8,5,2918,-10,5
920,-7,5,2919,-10,5
921,-6,5,2920,-9,5
922,-6,5,2921,-7,5
923,-6,5,2922,-7,5
924,-6,5,2923,-7,5
925,-7,5,2924,-7,5
926,-9,5,2925,-6,5
927,-8,5,2926,-5,5
928,-6,5,2927,-6,5
929,-5,5,2928,-8,5
930,-5,5,2929,-9,5
931,-3,5,2930,-9,5
932,-4,5,2931,-9,5
933,-2,5,2932,-8,5
934,-1,5,2933,-7,5
935,0,5,2934,-5,5
936,0,5,2935,-4,5
937,0,5,2936,-4,5
938,-1,5,2937,-5,5
939,-3,5,2938,-5,5
940,-6,5,2939,-6,5
941,-9,5,2940,-7,5
942,-9,5,2941,-7,5
943,-8,5,2942,-7,5
944,-7,5,2943,-6,5
945,-7,5,2944,-6,5
946,-6,5,2945,-6,5
947,-5,5,2946,-6,5
948,-5,5,2947,-7,5
949,-6,5,2948,-7,5
950,-5,5,2949,-6,5
951,-4,5,2950,-5,5
952,-2,5,2951,-3,5
953,0,5,2952,-1,5
954,-1,5,2953,-3,5
955,-1,5,2954,-4,5
956,-1,5,2955,-4,5
957,-1,5,2956,-4,5
958,-1,5,2957,-7,5
959,-2,5,2958,-7,5
960,-3,5,2959,-9,5
961,-3,5,2960,-10,5
962,-4,5,2961,-10,5
963,-2,5,2962,-8,5
964,-2,5,2963,-7,5
965,-3,5,2964,-5,5
966,-5,5,2965,-2,5
967,-4,5,2966,-2,5
968,-3,5,2967,-4,5
969,-4,5,2968,-5,5
970,-3,5,2969,-7,5
971,-3,5,2970,-7,5
972,-5,5,2971,-5,5
973,-4,5,2972,-4,5
974,-3,5,2973,-3,5
975,-4,5,2974,-3,5
976,-5,5,2975,-1,5
977,-7,5,2976,0,5
978,-6,5,2977,0,5
979,-6,5,2978,1,5
980,-5,5,2979,-1,5
981,-5,5,2980,-2,5
982,-7,5,2981,-5,5
983,-5,5,2982,-6,5
984,-4,5,2983,-6,5
985,-3,5,2984,-5,5
986,-2,5,2985,-4,5
987,-4,5,2986,-3,5
988,-4,5,2987,-2,5
989,-5,5,2988,-1,5
990,-6,5,2989,-1,5
991,-5,5,2990,-1,5
992,-6,5,2991,-1,5
993,-5,5,2992,1,5
994,-4,5,2993,1,5
995,-5,5,2994,0,5
996,-6,5,2995,-2,5
997,-5,5,2996,-1,5
998,-5,5,2997,-2,5
999,-6,5,2998,-4,5
1000,-8,5,2999,-4,5
1001,-6,5,3000,-6,5
1002,-6,5,3001,-8,5
1003,-3,5,3002,-8,5
1004,-3,5,3003,-7,5
1005,-2,5,3004,-7,5
1006,-2,5,3005,-6,5
1007,-3,5,3006,-6,5
1008,-6,5,3007,-6,5
1009,-6,5,3008,-5,5
1010,-5,5,3009,-5,5
1011,-3,5,3010,-4,5
1012,0,5,3011,-3,5
1013,2,5,3012,-3,5
1014,1,5,3013,-2,5
1015,-2,5,3014,-2,5
1016,-3,5,3015,-1,5
1017,-4,5,3016,-1,5
1018,-4,5,3017,-2,5
1019,-3,5,3018,-2,5
1020,-3,5,3019,-2,5
1021,-5,5,3020,-2,5
1022,-5,5,3021,-3,5
1023,-6,5,3022,-4,5
1024,-6,5,3023,-3,5
1025,-6,5,3024,-1,5
1026,-5,5,3025,0,5
1027,-4,5,3026,0,5
1028,-2,5,3027,1,5
1029,-1,5,3028,1,5
1030,-2,5,3029,0,5
1031,-3,5,3030,-2,5
1032,-1,5,3031,-4,5
1033,1,5,3032,-5,5
1034,1,5,3033,-3,5
1035,0,5,3034,-1,5
1036,-2,5,3035,1,5
1037,-1,5,3036,2,5
1038,0,5,3037,1,5
1039,1,5,3038,-2,5
1040,-2,5,3039,-4,5
1041,-1,5,3040,-5,5
1042,0,5,3041,-2,5
1043,0,5,3042,-1,5
1044,-2,5,3043,0,5
1045,-3,5,3044,0,5
1046,-4,5,3045,0,5
1047,-4,5,3046,-1,5
1048,-5,5,3047,-3,5
1049,-5,5,3048,-2,5
1050,-3,5,3049,-1,5
1051,-3,5,3050,-1,5
1052,-2,5,3051,0,5
1053,-2,5,3052,-1,5
1054,0,5,3053,0,5
1055,0,5,3054,-1,5
1056,-1,5,3055,-2,5
1057,0,5,3056,-6,5
1058,0,5,3057,-8,5
1059,1,5,3058,-6,5
1060,1,5,3059,-3,5
1061,2,5,3060,0,5
1062,2,5,3061,1,5
1063,2,5,3062,0,5
1064,2,5,3063,-2,5
1065,2,5,3064,-1,5
1066,1,5,3065,0,5
1067,0,5,3066,1,5
1068,-1,5,3067,1,5
1069,-1,5,3068,0,5
1070,-1,5,3069,-1,5
1071,-2,5,3070,-3,5
1072,-3,5,3071,-3,5
1073,-3,5,3072,-3,5
1074,-1,5,3073,-1,5
1075,-1,5,3074,1,5
1076,-1,5,3075,2,5
1077,0,5,3076,1,5
1078,-1,5,3077,0,5
1079,0,5,3078,0,5
1080,1,5,3079,-2,5
1081,-1,5,3080,-4,5
1082,-1,5,3081,-5,5
1083,-2,5,3082,-4,5
1084,-2,5,3083,-1,5
1085,-4,5,3084,-2,5
1086,-8,5,3085,-1,5
1087,-8,5,3086,0,5
1088,-7,5,3087,-1,5
1089,-7,5,3088,0,5
1090,-8,5,3089,1,5
1091,-9,5,3090,-1,5
1092,-10,5,3091,-3,5
1093,-13,5,3092,-1,5
1094,-15,5,3093,1,5
1095,-15,5,3094,0,5
1096,-13,5,3095,-1,5
1097,-12,5,3096,-1,5
1098,-10,5,3097,-1,5
1099,-8,5,3098,0,5
1100,-9,5,3099,-1,5
1101,-9,5,3100,0,5
1102,-10,5,3101,1,5
1103,-12,5,3102,0,5
1104,-13,5,3103,-1,5
1105,-14,5,3104,-1,5
1106,-16,5,3105,-2,5
1107,-15,5,3106,-4,5
1108,-13,5,3107,-3,5
1109,-13,5,3108,-3,5
1110,-12,5,3109,-3,5
1111,-12,5,3110,-1,5
1112,-9,5,3111,-2,5
1113,-7,5,3112,-2,5
1114,-6,5,3113,-4,5
1115,-2,5,3114,-2,5
1116,-1,5,3115,-1,5
1117,2,5,3116,-1,5
1118,3,5,3117,-2,5
1119,4,5,3118,-4,5
1120,6,5,3119,-5,5
1121,8,5,3120,-6,5
1122,7,5,3121,-7,5
1123,7,5,3122,-7,5
1124,5,5,3123,-6,5
1125,3,5,3124,-4,5
1126,1,5,3125,-4,5
1127,1,5,3126,-7,5
1128,2,5,3127,-10,5
1129,3,5,3128,-8,5
1130,4,5,3129,-8,5
1131,5,5,3130,-9,5
1132,6,5,3131,-9,5
1133,6,5,3132,-9,5
1134,8,5,3133,-10,5
1135,8,5,3134,-9,5
1136,6,5,3135,-9,5
1137,6,5,3136,-6,5
1138,5,5,3137,-7,5
1139,4,5,3138,-7,5
1140,6,5,3139,-8,5
1141,6,5,3140,-10,5
1142,6,5,3141,-9,5
1143,3,5,3142,-7,5
1144,0,5,3143,-7,5
1145,0,5,3144,-4,5
1146,3,5,3145,0,5
1147,5,5,3146,2,5
1148,6,5,3147,2,5
1149,6,5,3148,0,5
1150,7,5,3149,0,5
1151,6,5,3150,2,5
1152,7,5,3151,4,5
1153,5,5,3152,4,5
1154,8,5,3153,4,5
1155,8,5,3154,2,5
1156,10,5,3155,1,5
1157,8,5,3156,1,5
1158,5,5,3157,0,5
1159,2,5,3158,1,5
1160,0,5,3159,2,5
1161,-3,5,3160,1,5
1162,-6,5,3161,0,5
1163,-11,5,3162,0,5
1164,-17,5,3163,0,5
1165,-17,5,3164,1,5
1166,-17,5,3165,3,5
1167,-17,5,3166,5,5
1168,-17,5,3167,6,5
1169,-9,5,3168,4,5
1170,-2,5,3169,2,5
1171,4,5,3170,2,5
1172,5,5,3171,0,5
1173,3,5,3172,-1,5
1174,7,5,3173,1,5
1175,14,5,3174,2,5
1176,14,5,3175,3,5
1177,14,5,3176,2,5
1178,14,5,3177,2,5
1179,14,5,3178,3,5
1180,14,5,3179,2,5
1181,14,5,3180,2,5
1182,14,5,3181,4,5
1183,14,5,3182,5,5
1184,14,5,3183,3,5
1185,13,5,3184,4,5
1186,9,5,3185,4,5
1187,8,5,3186,3,5
1188,5,5,3187,2,5
1189,4,5,3188,1,5
1190,2,5,3189,3,5
1191,2,5,3190,1,5
1192,1,5,3191,0,5
1193,1,5,3192,1,5
1194,3,5,3193,1,5
1195,4,5,3194,-1,5
1196,5,5,3195,-1,5
1197,4,5,3196,-2,5
1198,3,5,3197,-4,5
1199,3,5,3198,-7,5
1200,3,5,3199,-9,5
1201,3,5,3200,-14,5
1202,3,5,3201,-17,5
1203,4,5,3202,-17,5
1204,4,5,3203,-17,5
1205,3,5,3204,-17,5
1206,4,5,3205,-17,5
1207,5,5,3206,-13,5
1208,2,5,3207,-2,5
1209,0,5,3208,7,5
1210,2,5,3209,10,5
1211,4,5,3210,9,5
1212,4,5,3211,8,5
1213,4,5,3212,14,5
1214,5,5,3213,14,5
1215,6,5,3214,14,5
1216,6,5,3215,14,5
1217,4,5,3216,14,5
1218,1,5,3217,14,5
1219,-1,5,3218,12,5
1220,-1,5,3219,11,5
1221,0,5,3220,11,5
1222,2,5,3221,9,5
1223,4,5,3222,9,5
1224,4,5,3223,6,5
1225,4,5,3224,1,5
1226,5,5,3225,-1,5
1227,4,5,3226,-4,5
1228,3,5,3227,-5,5
1229,4,5,3228,-5,5
1230,4,5,3229,-3,5
1231,5,5,3230,-3,5
1232,5,5,3231,-2,5
1233,5,5,3232,-1,5
1234,2,5,3233,0,5
1235,0,5,3234,-1,5
1236,1,5,3235,-1,5
1237,2,5,3236,-3,5
1238,1,5,3237,-5,5
1239,1,5,3238,-4,5
1240,-1,5,3239,-3,5
1241,2,5,3240,-1,5
1242,2,5,3241,-1,5
1243,3,5,3242,-2,5
1244,5,5,3243,-3,5
1245,4,5,3244,-1,5
1246,3,5,3245,0,5
1247,2,5,3246,0,5
1248,2,5,3247,-1,5
1249,3,5,3248,0,5
1250,4,5,3249,-1,5
1251,4,5,3250,-1,5
1252,2,5,3251,-1,5
1253,1,5,3252,-3,5
1254,2,5,3253,-5,5
1255,2,5,3254,-5,5
1256,3,5,3255,-2,5
1257,5,5,3256,0,5
1258,3,5,3257,-2,5
1259,3,5,3258,-5,5
1260,4,5,3259,-6,5
1261,6,5,3260,-6,5
1262,8,5,3261,-4,5
1263,7,5,3262,-1,5
1264,7,5,3263,-2,5
1265,5,5,3264,-2,5
1266,5,5,3265,-1,5
1267,4,5,3266,-1,5
1268,2,5,3267,-2,5
1269,1,5,3268,-6,5
1270,0,5,3269,-6,5
1271,-1,5,3270,-6,5
1272,-1,5,3271,-7,5
1273,-2,5,3272,-8,5
1274,0,5,3273,-7,5
1275,1,5,3274,-7,5
1276,2,5,3275,-8,5
1277,2,5,3276,-9,5
1278,1,5,3277,-9,5
1279,2,5,3278,-7,5
1280,3,5,3279,-5,5
1281,3,5,3280,-4,5
1282,5,5,3281,-4,5
1283,3,5,3282,-4,5
1284,1,5,3283,-5,5
1285,1,5,3284,-4,5
1286,3,5,3285,-4,5
1287,4,5,3286,-4,5
1288,5,5,3287,-6,5
1289,6,5,3288,-8,5
1290,7,5,3289,-10,5
1291,7,5,3290,-11,5
1292,8,5,3291,-10,5
1293,8,5,3292,-7,5
1294,7,5,3293,-6,5
1295,6,5,3294,-6,5
1296,5,5,3295,-7,5
1297,5,5,3296,-8,5
1298,4,5,3297,-10,5
1299,4,5,3298,-8,5
1300,4,5,3299,-7,5
1301,6,5,3300,-6,5
1302,5,5,3301,-7,5
1303,3,5,3302,-6,5
1304,3,5,3303,-7,5
1305,2,5,3304,-6,5
1306,3,5,3305,-4,5
1307,2,5,3306,-5,5
1308,1,5,3307,-8,5
1309,1,5,3308,-8,5
1310,2,5,3309,-7,5
1311,2,5,3310,-8,5
1312,4,5,3311,-10,5
1313,5,5,3312,-10,5
1314,3,5,3313,-9,5
1315,2,5,3314,-7,5
1316,0,5,3315,-6,5
1317,2,5,3316,-7,5
1318,2,5,3317,-9,5
1319,2,5,3318,-8,5
1320,2,5,3319,-8,5
1321,1,5,3320,-8,5
1322,2,5,3321,-8,5
1323,2,5,3322,-10,5
1324,2,5,3323,-7,5
1325,1,5,3324,-8,5
1326,0,5,3325,-8,5
1327,-1,5,3326,-6,5
1328,-1,5,3327,-6,5
1329,-2,5,3328,-7,5
1330,-2,5,3329,-7,5
1331,-1,5,3330,-10,5
1332,1,5,3331,-11,5
1333,2,5,3332,-11,5
1334,2,5,3333,-11,5
1335,0,5,3334,-11,5
1336,0,5,3335,-9,5
1337,2,5,3336,-7,5
1338,3,5,3337,-6,5
1339,1,5,3338,-8,5
1340,2,5,3339,-7,5
1341,2,5,3340,-7,5
1342,1,5,3341,-9,5
1343,0,5,3342,-10,5
1344,0,5,3343,-10,5
1345,0,5,3344,-9,5
1346,1,5,3345,-9,5
1347,0,5,3346,-11,5
1348,0,5,3347,-12,5
1349,-1,5,3348,-13,5
1350,-1,5,3349,-11,5
1351,-1,5,3350,-13,5
1352,0,5,3351,-12,5
1353,0,5,3352,-13,5
1354,1,5,3353,-12,5
1355,1,5,3354,-12,5
1356,1,5,3355,-11,5
1357,1,5,3356,-12,5
1358,3,5,3357,-12,5
1359,3,5,3358,-10,5
1360,3,5,3359,-10,5
1361,2,5,3360,-10,5
1362,1,5,3361,-11,5
1363,0,5,3362,-13,5
1364,0,5,3363,-14,5
1365,1,5,3364,-15,5
1366,2,5,3365,-15,5
1367,2,5,3366,-13,5
1368,0,5,3367,-12,5
1369,-1,5,3368,-12,5
1370,-2,5,3369,-12,5
1371,-3,5,3370,-11,5
1372,-7,5,3371,-9,5
1373,-7,5,3372,-5,5
1374,-4,5,3373,-2,5
1375,0,5,3374,-2,5
1376,2,5,3375,-3,5
1377,4,5,3376,-4,5
1378,5,5,3377,-7,5
1379,4,5,3378,-7,5
1380,3,5,3379,-6,5
1381,1,5,3380,-6,5
1382,0,5,3381,-6,5
1383,1,5,3382,-7,5
1384,2,5,3383,-4,5
1385,5,5,3384,-1,5
1386,5,5,3385,-1,5
1387,4,5,3386,-1,5
1388,3,5,3387,-1,5
1389,1,5,3388,-2,5
1390,1,5,3389,-2,5
1391,1,5,3390,-4,5
1392,0,5,3391,-7,5
1393,-3,5,3392,-7,5
1394,-4,5,3393,-7,5
1395,-3,5,3394,-6,5
1396,-1,5,3395,-5,5
1397,-1,5,3396,-4,5
1398,-2,5,3397,-4,5
1399,-3,5,3398,-4,5
1400,-5,5,3399,-4,5
1401,-5,5,3400,-5,5
1402,-4,5,3401,-5,5
1403,-4,5,3402,-6,5
1404,-3,5,3403,-4,5
1405,-1,5,3404,-1,5
1406,0,5,3405,1,5
1407,1,5,3406,-2,5
1408,2,5,3407,-5,5
1409,2,5,3408,-7,5
1410,2,5,3409,-7,5
1411,1,5,3410,-7,5
1412,-1,5,3411,-8,5
1413,-1,5,3412,-8,5
1414,0,5,3413,-8,5
1415,1,5,3414,-7,5
1416,0,5,3415,-7,5
1417,-2,5,3416,-5,5
1418,-2,5,3417,-4,5
1419,-2,5,3418,-3,5
1420,-2,5,3419,-4,5
1421,-3,5,3420,-6,5
1422,-3,5,3421,-5,5
1423,-3,5,3422,-2,5
1424,-2,5,3423,-2,5
1425,0,5,3424,-3,5
1426,1,5,3425,-3,5
1427,1,5,3426,-3,5
1428,3,5,3427,-4,5
1429,4,5,3428,-6,5
1430,4,5,3429,-5,5
1431,0,5,3430,-4,5
1432,0,5,3431,-4,5
1433,2,5,3432,-5,5
1434,2,5,3433,-6,5
1435,2,5,3434,-6,5
1436,2,5,3435,-7,5
1437,1,5,3436,-6,5
1438,1,5,3437,-8,5
1439,0,5,3438,-9,5
1440,0,5,3439,-7,5
1441,0,5,3440,-5,5
1442,0,5,3441,-5,5
1443,0,5,3442,-5,5
1444,2,5,3443,-6,5
1445,1,5,3444,-6,5
1446,-1,5,3445,-6,5
1447,-2,5,3446,-7,5
1448,0,5,3447,-8,5
1449,2,5,3448,-9,5
1450,3,5,3449,-9,5
1451,5,5,3450,-8,5
1452,6,5,3451,-9,5
1453,6,5,3452,-11,5
1454,6,5,3453,-10,5
1455,5,5,3454,-10,5
1456,4,5,3455,-10,5
1457,4,5,3456,-8,5
1458,5,5,3457,-8,5
1459,3,5,3458,-8,5
1460,0,5,3459,-9,5
1461,-2,5,3460,-9,5
1462,-2,5,3461,-8,5
1463,-2,5,3462,-7,5
1464,-1,5,3463,-6,5
1465,0,5,3464,-6,5
1466,0,5,3465,-6,5
1467,-1,5,3466,-6,5
1468,0,5,3467,-6,5
1469,0,5,3468,-7,5
1470,-1,5,3469,-8,5
1471,0,5,3470,-9,5
1472,0,5,3471,-9,5
1473,0,5,3472,-9,5
1474,2,5,3473,-8,5
1475,2,5,3474,-6,5
1476,2,5,3475,-4,5
1477,4,5,3476,-3,5
1478,4,5,3477,-4,5
1479,5,5,3478,-5,5
1480,6,5,3479,-5,5
1481,6,5,3480,-2,5
1482,5,5,3481,-1,5
1483,3,5,3482,-1,5
1484,1,5,3483,-3,5
1485,0,5,3484,-4,5
1486,-1,5,3485,-4,5
1487,0,5,3486,-6,5
1488,0,5,3487,-5,5
1489,-1,5,3488,-3,5
1490,-1,5,3489,-5,5
1491,-1,5,3490,-5,5
1492,-2,5,3491,-6,5
1493,-3,5,3492,-6,5
1494,-3,5,3493,-6,5
1495,-4,5,3494,-4,5
1496,-3,5,3495,-1,5
1497,-4,5,3496,0,5
1498,-5,5,3497,1,5
1499,-2,5,3498,1,5
1500,1,5,3499,-2,5
1501,3,5,3500,-5,5
1502,4,5,3501,-6,5
1503,3,5,3502,-6,5
1504,4,5,3503,-4,5
1505,3,5,3504,-5,5
1506,1,5,3505,-5,5
1507,-3,5,3506,-4,5
1508,-7,5,3507,-4,5
1509,-8,5,3508,-5,5
1510,-7,5,3509,-7,5
1511,-4,5,3510,-7,5
1512,-3,5,3511,-5,5
1513,-2,5,3512,-4,5
1514,-2,5,3513,-3,5
1515,-2,5,3514,-4,5
1516,-3,5,3515,-5,5
1517,-3,5,3516,-3,5
1518,-3,5,3517,-2,5
1519,-3,5,3518,-3,5
1520,-2,5,3519,-3,5
1521,-2,5,3520,-5,5
1522,-3,5,3521,-3,5
1523,-4,5,3522,-2,5
1524,-3,5,3523,-2,5
1525,-2,5,3524,-1,5
1526,-3,5,3525,-1,5
1527,-6,5,3526,-3,5
1528,-7,5,3527,-3,5
1529,-7,5,3528,-3,5
1530,-6,5,3529,-1,5
1531,-4,5,3530,0,5
1532,-3,5,3531,0,5
1533,-3,5,3532,1,5
1534,-5,5,3533,0,5
1535,-5,5,3534,-1,5
1536,-5,5,3535,-3,5
1537,-5,5,3536,-4,5
1538,-3,5,3537,-4,5
1539,-1,5,3538,-3,5
1540,-3,5,3539,-4,5
1541,-5,5,3540,-4,5
1542,-6,5,3541,-4,5
1543,-4,5,3542,-4,5
1544,-3,5,3543,-4,5
1545,-4,5,3544,-3,5
1546,-6,5,3545,-2,5
1547,-5,5,3546,-3,5
1548,-5,5,3547,-2,5
1549,-7,5,3548,-2,5
1550,-8,5,3549,-3,5
1551,-8,5,3550,-2,5
1552,-9,5,3551,-2,5
1553,-7,5,3552,-3,5
1554,-4,5,3553,-4,5
1555,-3,5,3554,-4,5
1556,-2,5,3555,-4,5
1557,0,5,3556,-4,5
1558,-1,5,3557,-5,5
1559,-1,5,3558,-5,5
1560,0,5,3559,-4,5
1561,-2,5,3560,-4,5
1562,-3,5,3561,-5,5
1563,-2,5,3562,-4,5
1564,0,5,3563,-4,5
1565,0,5,3564,-3,5
1566,1,5,3565,-2,5
1567,1,5,3566,-1,5
1568,1,5,3567,-3,5
1569,1,5,3568,-4,5
1570,0,5,3569,-6,5
1571,0,5,3570,-5,5
1572,0,5,3571,-4,5
1573,-1,5,3572,-3,5
1574,-2,5,3573,-3,5
1575,-2,5,3574,-1,5
1576,-1,5,3575,2,5
1577,-3,5,3576,2,5
1578,-6,5,3577,-2,5
1579,-7,5,3578,-4,5
1580,-6,5,3579,-5,5
1581,-5,5,3580,-5,5
1582,-6,5,3581,-4,5
1583,-7,5,3582,-3,5
1584,-6,5,3583,-3,5
1585,-4,5,3584,-2,5
1586,-3,5,3585,-2,5
1587,-4,5,3586,-2,5
1588,-6,5,3587,-2,5
1589,-8,5,3588,-3,5
1590,-8,5,3589,-3,5
1591,-9,5,3590,-3,5
1592,-10,5,3591,-4,5
1593,-11,5,3592,-4,5
1594,-11,5,3593,-2,5
1595,-11,5,3594,0,5
1596,-12,5,3595,1,5
1597,-13,5,3596,-1,5
1598,-11,5,3597,-5,5
1599,-10,5,3598,-4,5
1600,-10,5,3599,-3,5
1601,-10,5,3600,-2,5
1602,-12,5,3601,-1,5
1603,-14,5,3602,1,5
1604,-13,5,3603,0,5
1605,-10,5,3604,-1,5
1606,-7,5,3605,-2,5
1607,-5,5,3606,-3,5
1608,-3,5,3607,-3,5
1609,1,5,3608,-4,5
1610,3,5,3609,-4,5
1611,4,5,3610,-2,5
1612,3,5,3611,-1,5
1613,1,5,3612,1,5
1614,1,5,3613,-1,5
1615,1,5,3614,-4,5
1616,0,5,3615,-5,5
1617,-2,5,3616,-6,5
1618,-1,5,3617,-4,5
1619,-1,5,3618,-4,5
1620,-2,5,3619,0,5
1621,-3,5,3620,2,5
1622,-3,5,3621,2,5
1623,-2,5,3622,2,5
1624,-2,5,3623,3,5
1625,-3,5,3624,2,5
1626,-1,5,3625,0,5
1627,1,5,3626,-3,5
1628,3,5,3627,-3,5
1629,5,5,3628,-4,5
1630,6,5,3629,-3,5
1631,6,5,3630,-2,5
1632,6,5,3631,-3,5
1633,5,5,3632,-4,5
1634,4,5,3633,-3,5
1635,4,5,3634,-2,5
1636,4,5,3635,0,5
1637,3,5,3636,1,5
1638,1,5,3637,-1,5
1639,3,5,3638,-5,5
1640,3,5,3639,-8,5
1641,4,5,3640,-7,5
1642,4,5,3641,-6,5
1643,4,5,3642,-7,5
1644,2,5,3643,-7,5
1645,2,5,3644,-8,5
1646,3,5,3645,-7,5
1647,3,5,3646,-6,5
1648,4,5,3647,-8,5
1649,5,5,3648,-11,5
1650,4,5,3649,-11,5
1651,5,5,3650,-10,5
1652,6,5,3651,-9,5
1653,6,5,3652,-10,5
1654,7,5,3653,-11,5
1655,6,5,3654,-10,5
1656,6,5,3655,-10,5
1657,6,5,3656,-9,5
1658,4,5,3657,-6,5
1659,2,5,3658,-2,5
1660,0,5,3659,1,5
1661,-2,5,3660,2,5
1662,-4,5,3661,3,5
1663,-8,5,3662,4,5
1664,-11,5,3663,3,5
1665,-16,5,3664,3,5
1666,-17,5,3665,4,5
1667,-17,5,3666,6,5
1668,-17,5,3667,6,5
1669,-17,5,3668,5,5
1670,-16,5,3669,4,5
1671,-6,5,3670,4,5
1672,5,5,3671,4,5
1673,10,5,3672,2,5
1674,8,5,3673,2,5
1675,10,5,3674,1,5
1676,14,5,3675,3,5
1677,14,5,3676,3,5
1678,14,5,3677,3,5
1679,14,5,3678,4,5
1680,14,5,3679,6,5
1681,14,5,3680,6,5
1682,14,5,3681,5,5
1683,13,5,3682,5,5
1684,12,5,3683,4,5
1685,12,5,3684,3,5
1686,9,5,3685,4,5
1687,6,5,3686,4,5
1688,5,5,3687,2,5
1689,3,5,3688,2,5
1690,2,5,3689,4,5
1691,1,5,3690,5,5
1692,0,5,3691,5,5
1693,1,5,3692,5,5
1694,0,5,3693,7,5
1695,0,5,3694,7,5
1696,0,5,3695,7,5
1697,2,5,3696,5,5
1698,2,5,3697,6,5
1699,1,5,3698,5,5
1700,0,5,3699,3,5
1701,-1,5,3700,2,5
1702,-3,5,3701,2,5
1703,-2,5,3702,5,5
1704,-3,5,3703,5,5
1705,-1,5,3704,3,5
1706,1,5,3705,4,5
1707,2,5,3706,7,5
1708,2,5,3707,8,5
1709,3,5,3708,9,5
1710,2,5,3709,7,5
1711,0,5,3710,3,5
1712,0,5,3711,-1,5
1713,-2,5,3712,-2,5
1714,-2,5,3713,-2,5
1715,-2,5,3714,-3,5
1716,-2,5,3715,-8,5
1717,-1,5,3716,-14,5
1718,-1,5,3717,-17,5
1719,-1,5,3718,-17,5
1720,1,5,3719,-17,5
1721,1,5,3720,-16,5
1722,1,5,3721,-7,5
1723,0,5,3722,-2,5
1724,-1,5,3723,3,5
1725,0,5,3724,6,5
1726,1,5,3725,6,5
1727,0,5,3726,8,5
1728,-2,5,3727,14,5
1729,-3,5,3728,14,5
1730,-3,5,3729,14,5
1731,-4,5,3730,14,5
1732,-4,5,3731,14,5
1733,-3,5,3732,14,5
1734,1,5,3733,13,5
1735,2,5,3734,11,5
1736,1,5,3735,13,5
1737,-1,5,3736,11,5
1738,-4,5,3737,8,5
1739,-5,5,3738,5,5
1740,-8,5,3739,5,5
1741,-8,5,3740,6,5
1742,-7,5,3741,5,5
1743,-6,5,3742,3,5
1744,-7,5,3743,-1,5
1745,-8,5,3744,-2,5
1746,-9,5,3745,0,5
1747,-7,5,3746,3,5
1748,-7,5,3747,4,5
1749,-6,5,3748,5,5
1750,-7,5,3749,7,5
1751,-7,5,3750,7,5
1752,-5,5,3751,5,5
1753,-6,5,3752,4,5
1754,-6,5,3753,1,5
1755,-4,5,3754,1,5
1756,-4,5,3755,2,5
1757,-4,5,3756,1,5
1758,-4,5,3757,1,5
1759,-4,5,3758,0,5
1760,-4,5,3759,0,5
1761,-5,5,3760,0,5
1762,-6,5,3761,-1,5
1763,-4,5,3762,0,5
1764,-4,5,3763,3,5
1765,-4,5,3764,5,5
1766,-4,5,3765,3,5
1767,-3,5,3766,2,5
1768,-3,5,3767,2,5
1769,-2,5,3768,0,5
1770,-1,5,3769,0,5
1771,-3,5,3770,1,5
1772,-4,5,3771,0,5
1773,-4,5,3772,2,5
1774,-3,5,3773,3,5
1775,-3,5,3774,2,5
1776,-4,5,3775,2,5
1777,-5,5,3776,3,5
1778,-4,5,3777,1,5
1779,-3,5,3778,1,5
1780,-4,5,3779,3,5
1781,-4,5,3780,3,5
1782,-5,5,3781,1,5
1783,-7,5,3782,1,5
1784,-7,5,3783,-2,5
1785,-6,5,3784,-2,5
1786,-5,5,3785,-1,5
1787,-7,5,3786,2,5
1788,-7,5,3787,2,5
1789,-6,5,3788,3,5
1790,-4,5,3789,1,5
1791,-4,5,3790,0,5
1792,-5,5,3791,-2,5
1793,-5,5,3792,-2,5
1794,-5,5,3793,-1,5
1795,-5,5,3794,-1,5
1796,-4,5,3795,0,5
1797,-5,5,3796,0,5
1798,-4,5,3797,0,5
1799,-4,5,3798,0,5
1800,-1,5,3799,-1,5
1801,-1,5,3800,0,5
1802,-2,5,3801,2,5
1803,-4,5,3802,2,5
1804,-5,5,3803,2,5
1805,-5,5,3804,2,5
1806,-5,5,3805,4,5
1807,-6,5,3806,6,5
1808,-5,5,3807,3,5
1809,-2,5,3808,0,5
1810,0,5,3809,-3,5
1811,0,5,3810,-3,5
1812,-3,5,3811,-2,5
1813,-7,5,3812,-1,5
1814,-10,5,3813,0,5
1815,-10,5,3814,0,5
1816,-9,5,3815,-1,5
1817,-8,5,3816,0,5
1818,-6,5,3817,1,5
1819,-6,5,3818,1,5
1820,-7,5,3819,1,5
1821,-8,5,3820,2,5
1822,-8,5,3821,3,5
1823,-8,5,3822,2,5
1824,-8,5,3823,2,5
1825,-7,5,3824,2,5
1826,-7,5,3825,1,5
1827,-8,5,3826,1,5
1828,-7,5,3827,1,5
1829,-7,5,3828,0,5
1830,-7,5,3829,0,5
1831,-7,5,3830,-1,5
1832,-6,5,3831,1,5
1833,-6,5,3832,2,5
1834,-5,5,3833,4,5
1835,-3,5,3834,3,5
1836,-1,5,3835,-1,5
1837,-1,5,3836,-3,5
1838,-4,5,3837,-3,5
1839,-6,5,3838,-2,5
1840,-6,5,3839,0,5
1841,-8,5,3840,0,5
1842,-7,5,3841,4,5
1843,-4,5,3842,4,5
1844,-2,5,3843,6,5
1845,-2,5,3844,7,5
1846,-1,5,3845,4,5
1847,0,5,3846,4,5
1848,0,5,3847,2,5
1849,0,5,3848,1,5
1850,-1,5,3849,0,5
1851,-3,5,3850,0,5
1852,-4,5,3851,2,5
1853,-2,5,3852,2,5
1854,-1,5,3853,4,5
1855,0,5,3854,5,5
1856,0,5,3855,8,5
1857,-1,5,3856,7,5
1858,-2,5,3857,7,5
1859,-3,5,3858,6,5
1860,-2,5,3859,5,5
1861,1,5,3860,3,5
1862,2,5,3861,2,5
1863,2,5,3862,1,5
1864,1,5,3863,1,5
1865,-3,5,3864,3,5
1866,-4,5,3865,4,5
1867,-5,5,3866,3,5
1868,-5,5,3867,2,5
1869,-5,5,3868,3,5
1870,-5,5,3869,3,5
1871,-3,5,3870,2,5
1872,1,5,3871,1,5
1873,3,5,3872,1,5
1874,5,5,3873,0,5
1875,2,5,3874,0,5
1876,0,5,3875,0,5
1877,-2,5,3876,0,5
1878,-3,5,3877,2,5
1879,-5,5,3878,1,5
1880,-5,5,3879,0,5
1881,-2,5,3880,0,5
1882,1,5,3881,0,5
1883,1,5,3882,-1,5
1884,1,5,3883,0,5
1885,-1,5,3884,2,5
1886,-4,5,3885,2,5
1887,-6,5,3886,0,5
1888,-8,5,3887,0,5
1889,-7,5,3888,0,5
1890,-6,5,3889,-3,5
1891,-5,5,3890,-4,5
1892,-6,5,3891,-3,5
1893,-4,5,3892,-1,5
1894,-1,5,3893,0,5
1895,-2,5,3894,0,5
1896,-2,5,3895,-1,5
1897,-2,5,3896,-3,5
1898,-4,5,3897,-4,5
1899,-6,5,3898,-5,5
1900,-6,5,3899,-5,5
1901,-7,5,3900,-5,5
1902,-8,5,3901,-4,5
1903,-7,5,3902,-2,5
1904,-5,5,3903,-3,5
1905,-4,5,3904,-2,5
1906,-4,5,3905,0,5
1907,-4,5,3906,4,5
1908,-5,5,3907,5,5
1909,-6,5,3908,4,5
1910,-7,5,3909,3,5
1911,-7,5,3910,2,5
1912,-6,5,3911,2,5
1913,-4,5,3912,0,5
1914,-4,5,3913,0,5
1915,-5,5,3914,-1,5
1916,-6,5,3915,-1,5
1917,-6,5,3916,-1,5
1918,-7,5,3917,-1,5
1919,-7,5,3918,1,5
1920,-6,5,3919,3,5
1921,-5,5,3920,4,5
1922,-4,5,3921,3,5
1923,-5,5,3922,4,5
1924,-5,5,3923,3,5
1925,-7,5,3924,2,5
1926,-6,5,3925,0,5
1927,-3,5,3926,0,5
1928,-5,5,3927,-1,5
1929,-5,5,3928,0,5
1930,-7,5,3929,0,5
1931,-6,5,3930,1,5
1932,-6,5,3931,1,5
1933,-6,5,3932,0,5
1934,-5,5,3933,-2,5
1935,-4,5,3934,-3,5
1936,-5,5,3935,-5,5
1937,-4,5,3936,-3,5
1938,-4,5,3937,-2,5
1939,-5,5,3938,-1,5
1940,-5,5,3939,-1,5
1941,-6,5,3940,1,5
1942,-7,5,3941,0,5
1943,-4,5,3942,0,5
1944,-1,5,3943,0,5
1945,0,5,3944,0,5
1946,1,5,3945,0,5
1947,-1,5,3946,0,5
1948,-3,5,3947,0,5
1949,-4,5,3948,0,5
1950,-2,5,3949,0,5
1951,-1,5,3950,0,5
1952,-1,5,3951,-2,5
1953,-3,5,3952,-4,5
1954,-5,5,3953,-3,5
1955,-4,5,3954,-4,5
1956,-1,5,3955,-3,5
1957,-2,5,3956,-3,5
1958,-4,5,3957,-3,5
1959,-4,5,3958,-2,5
1960,-5,5,3959,-2,5
1961,-7,5,3960,-2,5
1962,-6,5,3961,-1,5
1963,-5,5,3962,0,5
1964,-4,5,3963,0,5
1965,-1,5,3964,0,5
1966,1,5,3965,-1,5
1967,1,5,3966,0,5
1968,0,5,3967,0,5
1969,-1,5,3968,-1,5
1970,-2,5,3969,-1,5
1971,-4,5,3970,-2,5
1972,-5,5,3971,-3,5
1973,-5,5,3972,-3,5
1974,-6,5,3973,-3,5
1975,-5,5,3974,-3,5
1976,-5,5,3975,-1,5
1977,-3,5,3976,-1,5
1978,-1,5,3977,-1,5
1979,0,5,3978,-4,5
1980,-1,5,3979,-3,5
1981,-2,5,3980,-3,5
1982,-2,5,3981,-2,5
1983,-2,5,3982,-1,5
1984,-3,5,3983,0,5
1985,-3,5,3984,2,5
1986,-2,5,3985,0,5
1987,-1,5,3986,-1,5
1988,-2,5,3987,0,5
1989,-4,5,3988,0,5
1990,-4,5,3989,1,5
1991,-4,5,3990,2,5
1992,-3,5,3991,0,5
1993,-2,5,3992,-3,5
1994,-2,5,3993,-4,5
1995,0,5,3994,-3,5
1996,1,5,3995,-2,5
1997,1,5,3996,-1,5
1998,-1,5,3997,-1,5
1999,0,5,3998,-1,5
2000,-1,5,3999,-2,5
2001,-2,5,4000,-2,5
2002,-2,5,4001,-1,5
2003,-2,5,4002,0,5
2004,-2,5,4003,1,5
2005,-5,5,4004,1,5
2006,-5,5,4005,2,5
2007,-5,5,4006,3,5
2008,-5,5,4007,1,5
2009,-5,5,4008,0,5
2010,-3,5,4009,-1,5
2011,-3,5,4010,-3,5
2012,-3,5,4011,-2,5
2013,-2,5,4012,-1,5
2014,-2,5,4013,0,5
2015,-2,5,4014,0,5
2016,-2,5,4015,0,5
2017,-2,5,4016,-1,5
2018,-2,5,4017,0,5
2019,-2,5,4018,3,5
2020,-2,5,4019,5,5
2021,-2,5,4020,2,5
2022,-1,5,4021,1,5
2023,0,5,4022,0,5
2024,1,5,4023,-2,5
2025,0,5,4024,-1,5
2026,-1,5,4025,-3,5
2027,0,5,4026,-5,5
2028,-2,5,4027,-3,5
2029,-2,5,4028,0,5
2030,-1,5,4029,1,5
2031,1,5,4030,1,5
2032,2,5,4031,-1,5
2033,1,5,4032,-3,5
2034,1,5,4033,-1,5
2035,0,5,4034,2,5
2036,2,5,4035,3,5
2037,1,5,4036,2,5
2038,-1,5,4037,0,5
2039,-3,5,4038,1,5
2040,-5,5,4039,-1,5
2041,-6,5,4040,-2,5
2042,-4,5,4041,-5,5
2043,-3,5,4042,-6,5
2044,-1,5,4043,-3,5
2045,2,5,4044,-1,5
2046,4,5,4045,0,5
2047,2,5,4046,2,5
2048,1,5,4047,5,5
2049,-1,5,4048,4,5
2050,-1,5,4049,2,5
2051,-2,5,4050,1,5
2052,-4,5,4051,0,5
2053,-4,5,4052,0,5
2054,0,5,4053,0,5
2055,2,5,4054,0,5
2056,3,5,4055,2,5
2057,3,5,4056,2,5
2058,0,5,4057,2,5
2059,-2,5,4058,1,5
2060,-2,5,4059,0,5
2061,-3,5,4060,1,5
2062,-3,5,4061,2,5
2063,-3,5,4062,1,5
2064,-3,5,4063,0,5
2065,-2,5,4064,-1,5
2066,-1,5,4065,2,5
2067,-2,5,4066,5,5
2068,-2,5,4067,7,5
2069,-3,5,4068,6,5
2070,-5,5,4069,3,5
2071,-4,5,4070,1,5
2072,-2,5,4071,-1,5
2073,-1,5,4072,-2,5
2074,-1,5,4073,-4,5
2075,0,5,4074,-4,5
2076,0,5,4075,-3,5
2077,2,5,4076,-2,5
2078,1,5,4077,-4,5
2079,0,5,4078,-4,5
2080,0,5,4079,-3,5
2081,0,5,4080,-1,5
2082,1,5,4081,1,5
2083,1,5,4082,0,5
2084,0,5,4083,1,5
2085,-2,5,4084,2,5
2086,-3,5,4085,2,5
2087,-1,5,4086,1,5
2088,-3,5,4087,0,5
2089,-3,5,4088,2,5
2090,-2,5,4089,3,5
2091,0,5,4090,2,5
2092,0,5,4091,2,5
2093,0,5,4092,1,5
2094,0,5,4093,1,5
2095,-1,5,4094,0,5
2096,-1,5,4095,-1,5
2097,-3,5,4096,-2,5
2098,-4,5,4097,-3,5
2099,-6,5,4098,-3,5
2100,-7,5,4099,-3,5
2101,-7,5,4100,-3,5
2102,-7,5,4101,-3,5
2103,-7,5,4102,-2,5
2104,-7,5,4103,-3,5
2105,-7,5,4104,0,5
2106,-8,5,4105,2,5
2107,-8,5,4106,1,5
2108,-10,5,4107,3,5
2109,-12,5,4108,4,5
2110,-12,5,4109,4,5
2111,-11,5,4110,3,5
2112,-10,5,4111,0,5
2113,-10,5,4112,-2,5
2114,-9,5,4113,-4,5
2115,-7,5,4114,-4,5
2116,-10,5,4115,-3,5
2117,-12,5,4116,-2,5
2118,-10,5,4117,-2,5
2119,-9,5,4118,-2,5
2120,-8,5,4119,0,5
2121,-7,5,4120,2,5
2122,-4,5,4121,3,5
2123,-3,5,4122,3,5
2124,-4,5,4123,0,5
2125,-5,5,4124,-1,5
2126,-4,5,4125,0,5
2127,-1,5,4126,0,5
2128,3,5,4127,1,5
2129,7,5,4128,0,5
2130,10,5,4129,0,5
2131,9,5,4130,-1,5
2132,4,5,4131,-1,5
2133,2,5,4132,0,5
2134,0,5,4133,0,5
2135,-2,5,4134,0,5
2136,-2,5,4135,1,5
2137,-2,5,4136,0,5
2138,-2,5,4137,-1,5
2139,-2,5,4138,-3,5
2140,1,5,4139,-5,5
2141,3,5,4140,-3,5
2142,5,5,4141,-3,5
2143,5,5,4142,-3,5
2144,5,5,4143,-4,5
2145,3,5,4144,-5,5
2146,4,5,4145,-5,5
2147,4,5,4146,-5,5
2148,3,5,4147,-7,5
2149,3,5,4148,-9,5
2150,4,5,4149,-9,5
2151,5,5,4150,-8,5
2152,5,5,4151,-8,5
2153,2,5,4152,-8,5
2154,1,5,4153,-9,5
2155,1,5,4154,-9,5
2156,2,5,4155,-10,5
2157,1,5,4156,-9,5
2158,2,5,4157,-8,5
2159,2,5,4158,-6,5
2160,2,5,4159,-7,5
2161,3,5,4160,-9,5
2162,4,5,4161,-9,5
2163,2,5,4162,-8,5
2164,1,5,4163,-6,5
2165,0,5,4164,-4,5
2166,0,5,4165,0,5
2167,3,5,4166,1,5
2168,3,5,4167,3,5
2169,2,5,4168,5,5
2170,2,5,4169,4,5
2171,1,5,4170,5,5
2172,0,5,4171,7,5
2173,2,5,4172,7,5
2174,4,5,4173,5,5
2175,5,5,4174,5,5
2176,3,5,4175,3,5
2177,1,5,4176,2,5
2178,-3,5,4177,-2,5
2179,-8,5,4178,-2,5
2180,-12,5,4179,-3,5
2181,-17,5,4180,-1,5
2182,-17,5,4181,0,5
2183,-17,5,4182,1,5
2184,-17,5,4183,2,5
2185,-16,5,4184,4,5
2186,-8,5,4185,5,5
2187,2,5,4186,5,5
2188,10,5,4187,4,5
2189,14,5,4188,2,5
2190,10,5,4189,1,5
2191,9,5,4190,3,5
2192,14,5,4191,5,5
2193,14,5,4192,4,5
2194,14,5,4193,4,5
2195,14,5,4194,3,5
2196,14,5,4195,3,5
2197,14,5,4196,3,5
2198,14,5,4197,4,5
2199,14,5,4198,3,5
2200,13,5,4199,4,5
2201,9,5,4200,5,5
2202,5,5,4201,7,5
2203,3,5,4202,7,5
2204,2,5,4203,5,5
2205,1,5,4204,2,5
2206,-1,5,4205,0,5
2207,-1,5,4206,1,5
2208,0,5,4207,1,5
2209,0,5,4208,4,5
2210,2,5,4209,7,5
2211,2,5,4210,8,5
2212,1,5,4211,8,5
2213,0,5,4212,7,5
2214,1,5,4213,5,5
2215,1,5,4214,2,5
2216,1,5,4215,0,5
2217,1,5,4216,-2,5
2218,0,5,4217,-4,5
2219,-1,5,4218,-7,5
2220,-2,5,4219,-10,5
2221,1,5,4220,-15,5
2222,1,5,4221,-17,5
2223,1,5,4222,-17,5
2224,1,5,4223,-17,5
2225,1,5,4224,-17,5
2226,-1,5,4225,-14,5
2227,-3,5,4226,-4,5
2228,-3,5,4227,5,5
2229,-3,5,4228,10,5
2230,-4,5,4229,11,5
2231,-3,5,4230,9,5
2232,-2,5,4231,13,5
2233,0,5,4232,14,5
2234,1,5,4233,14,5
2235,-1,5,4234,14,5
2236,-1,5,4235,14,5
2237,-3,5,4236,14,5
2238,-3,5,4237,14,5
2239,-5,5,4238,14,5
2240,-4,5,4239,14,5
2241,-3,5,4240,13,5
2242,-3,5,4241,12,5
2243,-4,5,4242,11,5
2244,-3,5,4243,7,5
2245,-3,5,4244,8,5
2246,-3,5,4245,7,5
2247,-4,5,4246,4,5
2248,-5,5,4247,1,5
2249,-4,5,4248,0,5
2250,-5,5,4249,-4,5
2251,-6,5,4250,-4,5
2252,-5,5,4251,-4,5
2253,-3,5,4252,-4,5
2254,-1,5,4253,-5,5
2255,-1,5,4254,-5,5
2256,-3,5,4255,-3,5
2257,-5,5,4256,0,5
2258,-6,5,4257,3,5
2259,-4,5,4258,2,5
2260,-4,5,4259,1,5
2261,-5,5,4260,2,5
2262,-5,5,4261,-1,5
2263,-4,5,4262,-2,5
2264,-2,5,4263,-2,5
2265,-2,5,4264,-2,5
2266,-2,5,4265,-1,5
2267,0,5,4266,1,5
2268,0,5,4267,1,5
2269,0,5,4268,0,5
2270,-1,5,4269,-2,5
2271,-2,5,4270,-3,5
2272,-3,5,4271,-4,5
2273,-5,5,4272,-2,5
2274,-5,5,4273,-2,5
2275,-7,5,4274,-3,5
2276,-7,5,4275,-3,5
2277,-7,5,4276,-1,5
2278,-6,5,4277,0,5
2279,-7,5,4278,0,5
2280,-6,5,4279,-1,5
2281,-4,5,4280,0,5
2282,-3,5,4281,-1,5
2283,-2,5,4282,1,5
2284,-1,5,4283,2,5
2285,-1,5,4284,0,5
2286,-1,5,4285,-1,5
2287,-2,5,4286,-1,5
2288,-3,5,4287,-1,5
2289,-3,5,4288,-3,5
2290,-4,5,4289,-3,5
2291,-6,5,4290,-5,5
2292,-7,5,4291,-5,5
2293,-8,5,4292,-7,5
2294,-8,5,4293,-8,5
2295,-6,5,4294,-6,5
2296,-2,5,4295,-5,5
2297,0,5,4296,-4,5
2298,1,5,4297,-3,5
2299,1,5,4298,-4,5
2300,2,5,4299,-6,5
2301,1,5,4300,-7,5
2302,-2,5,4301,-6,5
2303,-3,5,4302,-7,5
2304,-4,5,4303,-7,5
2305,-3,5,4304,-6,5
2306,-2,5,4305,-5,5
2307,-3,5,4306,-4,5
2308,-4,5,4307,-4,5
2309,-5,5,4308,-6,5
2310,-6,5,4309,-7,5
2311,-6,5,4310,-8,5
2312,-5,5,4311,-6,5
2313,-4,5,4312,-6,5
2314,-3,5,4313,-5,5
2315,-1,5,4314,-3,5
2316,0,5,4315,0,5
2317,0,5,4316,1,5
2318,-1,5,4317,-2,5
2319,-2,5,4318,-7,5
2320,-5,5,4319,-7,5
2321,-4,5,4320,-7,5
2322,-3,5,4321,-5,5
2323,-4,5,4322,-2,5
2324,-3,5,4323,-2,5
2325,-1,5,4324,-4,5
2326,1,5,4325,-4,5
2327,0,5,4326,-4,5
2328,-3,5,4327,-5,5
2329,-3,5,4328,-5,5
2330,-2,5,4329,-7,5
2331,-2,5,4330,-6,5
2332,-4,5,4331,-4,5
2333,-4,5,4332,-5,5
2334,-4,5,4333,-3,5
2335,-4,5,4334,-5,5
2336,-2,5,4335,-6,5
2337,-3,5,4336,-8,5
2338,-4,5,4337,-10,5
2339,-2,5,4338,-10,5
2340,-2,5,4339,-9,5
2341,-4,5,4340,-11,5
2342,-5,5,4341,-10,5
2343,-6,5,4342,-8,5
2344,-6,5,4343,-7,5
2345,-5,5,4344,-7,5
2346,-4,5,4345,-5,5
2347,-3,5,4346,-4,5
2348,-2,5,4347,-3,5
2349,-1,5,4348,-3,5
2350,0,5,4349,-5,5
2351,-1,5,4350,-7,5
2352,-3,5,4351,-9,5
2353,-3,5,4352,-10,5
2354,-2,5,4353,-10,5
2355,-3,5,4354,-9,5
2356,-2,5,4355,-8,5
2357,-1,5,4356,-4,5
2358,0,5,4357,-4,5
2359,0,5,4358,-5,5
2360,0,5,4359,-6,5
2361,0,5,4360,-6,5
2362,2,5,4361,-7,5
2363,2,5,4362,-8,5
2364,2,5,4363,-6,5
2365,-1,5,4364,-3,5
2366,-3,5,4365,-4,5
2367,-4,5,4366,-5,5
2368,-4,5,4367,-5,5
2369,-4,5,4368,-7,5
2370,-4,5,4369,-10,5
2371,-3,5,4370,-12,5
2372,0,5,4371,-13,5
2373,3,5,4372,-11,5
2374,4,5,4373,-11,5
2375,4,5,4374,-10,5
2376,5,5,4375,-9,5
2377,6,5,4376,-9,5
2378,4,5,4377,-11,5
2379,2,5,4378,-11,5
2380,2,5,4379,-9,5
2381,1,5,4380,-9,5
2382,2,5,4381,-10,5
2383,4,5,4382,-10,5
2384,4,5,4383,-11,5
2385,2,5,4384,-9,5
2386,2,5,4385,-7,5
2387,2,5,4386,-8,5
2388,1,5,4387,-6,5
2389,-2,5,4388,-7,5
2390,-3,5,4389,-7,5
2391,-2,5,4390,-7,5
2392,-2,5,4391,-9,5
2393,0,5,4392,-9,5
2394,3,5,4393,-8,5
2395,5,5,4394,-12,5
2396,6,5,4395,-13,5
2397,4,5,4396,-12,5
2398,0,5,4397,-10,5
2399,-5,5,4398,-9,5
2400,-7,5,4399,-10,5
2401,-6,5,4400,-9,5
2402,-5,5,4401,-7,5
2403,-2,5,4402,-6,5
2404,1,5,4403,-5,5
2405,2,5,4404,-4,5
2406,2,5,4405,-6,5
2407,0,5,4406,-6,5
2408,-3,5,4407,-5,5
2409,-5,5,4408,-4,5
2410,-3,5,4409,-4,5
2411,-3,5,4410,-4,5
2412,-2,5,4411,-5,5
2413,-3,5,4412,-6,5
2414,-3,5,4413,-7,5
2415,-2,5,4414,-7,5
2416,-3,5,4415,-5,5
2417,-2,5,4416,-6,5
2418,-2,5,4417,-6,5
2419,-4,5,4418,-4,5
2420,-3,5,4419,-4,5
2421,-2,5,4420,-5,5
2422,-3,5,4421,-7,5
2423,-3,5,4422,-8,5
2424,-2,5,4423,-6,5
2425,-3,5,4424,-2,5
2426,-4,5,4425,-1,5
2427,-4,5,4426,-2,5
2428,-3,5,4427,-3,5
2429,-3,5,4428,-4,5
2430,-4,5,4429,-5,5
2431,-4,5,4430,-6,5
2432,-3,5,4431,-6,5
2433,-3,5,4432,-8,5
2434,-4,5,4433,-8,5
2435,-5,5,4434,-8,5
2436,-4,5,4435,-10,5
2437,-5,5,4436,-9,5
2438,-3,5,4437,-6,5
2439,-3,5,4438,-3,5
2440,-3,5,4439,-7,5
2441,-3,5,4440,-8,5
2442,-4,5,4441,-8,5
2443,-6,5,4442,-10,5
2444,-2,5,4443,-9,5
2445,-1,5,4444,-7,5
2446,0,5,4445,-5,5
2447,-2,5,4446,-4,5
2448,-4,5,4447,-6,5
2449,-4,5,4448,-5,5
2450,-4,5,4449,-7,5
2451,-3,5,4450,-9,5
2452,-4,5,4451,-8,5
2453,-3,5,4452,-8,5
2454,-3,5,4453,-8,5
2455,-2,5,4454,-9,5
2456,-2,5,4455,-10,5
2457,-1,5,4456,-10,5
2458,0,5,4457,-12,5
2459,-1,5,4458,-14,5
2460,-2,5,4459,-14,5
2461,-4,5,4460,-13,5
2462,-4,5,4461,-12,5
2463,-4,5,4462,-10,5
2464,-4,5,4463,-9,5
2465,-4,5,4464,-9,5
2466,-4,5,4465,-8,5
2467,-2,5,4466,-7,5
2468,0,5,4467,-7,5
2469,-1,5,4468,-10,5
2470,0,5,4469,-10,5
2471,1,5,4470,-11,5
2472,2,5,4471,-10,5
2473,2,5,4472,-10,5
2474,3,5,4473,-9,5
2475,4,5,4474,-8,5
2476,4,5,4475,-8,5
2477,2,5,4476,-8,5
2478,-2,5,4477,-7,5
2479,-5,5,4478,-9,5
2480,-5,5,4479,-10,5
2481,-4,5,4480,-12,5
2482,-1,5,4481,-14,5
2483,-1,5,4482,-13,5
2484,1,5,4483,-11,5
2485,2,5,4484,-10,5
2486,3,5,4485,-9,5
2487,3,5,4486,-9,5
2488,1,5,4487,-9,5
2489,0,5,4488,-9,5
2490,0,5,4489,-10,5
2491,0,5,4490,-12,5
2492,0,5,4491,-13,5
2493,0,5,4492,-14,5
2494,0,5,4493,-13,5
2495,3,5,4494,-12,5
2496,4,5,4495,-11,5
2497,2,5,4496,-9,5
2498,1,5,4497,-9,5
2499,-1,5,4498,-11,5
2500,-1,5,4499,-13,5
2501,-2,5,4500,-13,5
2502,-1,5,4501,-10,5
2503,1,5,4502,-9,5
2504,1,5,4503,-9,5
2505,0,5,4504,-8,5
2506,-1,5,4505,-10,5
2507,-2,5,4506,-10,5
2508,-1,5,4507,-9,5
2509,-1,5,4508,-9,5
2510,0,5,4509,-8,5
2511,1,5,4510,-7,5
2512,0,5,4511,-7,5
2513,1,5,4512,-8,5
2514,3,5,4513,-6,5
2515,4,5,4514,-6,5
2516,5,5,4515,-5,5
2517,4,5,4516,-6,5
2518,3,5,4517,-9,5
2519,0,5,4518,-9,5
2520,0,5,4519,-10,5
2521,2,5,4520,-9,5
2522,2,5,4521,-6,5
2523,3,5,4522,-6,5
2524,4,5,4523,-9,5
2525,4,5,4524,-9,5
2526,2,5,4525,-11,5
2527,-2,5,4526,-12,5
2528,0,5,4527,-11,5
2529,0,5,4528,-9,5
2530,1,5,4529,-9,5
2531,2,5,4530,-10,5
2532,2,5,4531,-8,5
2533,2,5,4532,-5,5
2534,5,5,4533,-4,5
2535,4,5,4534,-5,5
2536,2,5,4535,-7,5
2537,2,5,4536,-8,5
2538,3,5,4537,-10,5
2539,2,5,4538,-14,5
2540,0,5,4539,-15,5
2541,0,5,4540,-15,5
2542,3,5,4541,-14,5
2543,5,5,4542,-14,5
2544,6,5,4543,-11,5
2545,5,5,4544,-9,5
2546,3,5,4545,-6,5
2547,5,5,4546,-4,5
2548,4,5,4547,-2,5
2549,3,5,4548,-2,5
2550,3,5,4549,-3,5
2551,5,5,4550,-5,5
2552,6,5,4551,-6,5
2553,6,5,4552,-7,5
2554,5,5,4553,-8,5
2555,5,5,4554,-8,5
2556,5,5,4555,-9,5
2557,5,5,4556,-10,5
2558,4,5,4557,-11,5
2559,4,5,4558,-11,5
2560,3,5,4559,-12,5
2561,4,5,4560,-10,5
2562,5,5,4561,-10,5
2563,3,5,4562,-12,5
2564,2,5,4563,-12,5
2565,2,5,4564,-9,5
2566,3,5,4565,-8,5
2567,5,5,4566,-8,5
2568,5,5,4567,-9,5
2569,6,5,4568,-10,5
2570,7,5,4569,-10,5
2571,9,5,4570,-10,5
2572,9,5,4571,-10,5
2573,8,5,4572,-8,5
2574,7,5,4573,-8,5
2575,6,5,4574,-7,5
2576,6,5,4575,-9,5
2577,8,5,4576,-9,5
2578,6,5,4577,-8,5
2579,6,5,4578,-6,5
2580,5,5,4579,-7,5
2581,3,5,4580,-9,5
2582,4,5,4581,-10,5
2583,5,5,4582,-9,5
2584,4,5,4583,-7,5
2585,4,5,4584,-7,5
2586,5,5,4585,-8,5
2587,5,5,4586,-8,5
2588,5,5,4587,-7,5
2589,4,5,4588,-8,5
2590,4,5,4589,-8,5
2591,3,5,4590,-9,5
2592,4,5,4591,-10,5
2593,5,5,4592,-9,5
2594,5,5,4593,-8,5
2595,7,5,4594,-8,5
2596,7,5,4595,-7,5
2597,6,5,4596,-5,5
2598,3,5,4597,-6,5
2599,1,5,4598,-7,5
2600,-1,5,4599,-9,5
2601,-3,5,4600,-9,5
2602,-4,5,4601,-11,5
2603,-3,5,4602,-12,5
2604,-2,5,4603,-12,5
2605,-3,5,4604,-11,5
2606,-2,5,4605,-11,5
2607,-1,5,4606,-8,5
2608,-1,5,4607,-8,5
2609,-4,5,4608,-7,5
2610,-5,5,4609,-5,5
2611,-6,5,4610,-5,5
2612,-6,5,4611,-6,5
2613,-7,5,4612,-9,5
2614,-8,5,4613,-10,5
2615,-9,5,4614,-10,5
2616,-10,5,4615,-12,5
2617,-10,5,4616,-11,5
2618,-10,5,4617,-9,5
2619,-11,5,4618,-7,5
2620,-12,5,4619,-7,5
2621,-10,5,4620,-6,5
2622,-10,5,4621,-6,5
2623,-11,5,4622,-3,5
2624,-12,5,4623,-2,5
2625,-12,5,4624,-6,5
2626,-11,5,4625,-7,5
2627,-10,5,4626,-8,5
2628,-9,5,4627,-10,5
2629,-13,5,4628,-10,5
2630,-14,5,4629,-10,5
2631,-12,5,4630,-6,5
2632,-10,5,4631,-5,5
2633,-8,5,4632,-7,5
2634,-6,5,4633,-8,5
2635,-5,5,4634,-6,5
2636,-5,5,4635,-3,5
2637,-4,5,4636,-3,5
2638,-5,5,4637,-5,5
2639,-3,5,4638,-7,5
2640,0,5,4639,-6,5
2641,1,5,4640,-6,5
2642,1,5,4641,-8,5
2643,1,5,4642,-9,5
2644,-1,5,4643,-9,5
2645,-2,5,4644,-8,5
2646,-2,5,4645,-10,5
2647,0,5,4646,-13,5
2648,-1,5,4647,-12,5
2649,-1,5,4648,-9,5
2650,-2,5,4649,-7,5
2651,-4,5,4650,-5,5
2652,-5,5,4651,-4,5
2653,-4,5,4652,-7,5
2654,-2,5,4653,-9,5
2655,0,5,4654,-12,5
2656,-1,5,4655,-12,5
2657,-2,5,4656,-12,5
2658,-1,5,4657,-12,5
2659,1,5,4658,-12,5
2660,1,5,4659,-10,5
2661,2,5,4660,-10,5
2662,1,5,4661,-8,5
2663,-2,5,4662,-9,5
2664,-3,5,4663,-10,5
2665,-4,5,4664,-12,5
2666,-4,5,4665,-14,5
2667,-3,5,4666,-14,5
2668,-2,5,4667,-15,5
2669,-4,5,4668,-16,5
2670,-5,5,4669,-14,5
2671,-6,5,4670,-13,5
2672,-5,5,4671,-13,5
2673,-5,5,4672,-15,5
2674,-4,5,4673,-14,5
2675,-4,5,4674,-13,5
2676,-3,5,4675,-13,5
2677,-3,5,4676,-14,5
2678,-4,5,4677,-13,5
2679,-3,5,4678,-14,5
2680,-1,5,4679,-13,5
2681,-3,5,4680,-12,5
2682,-5,5,4681,-8,5
2683,-5,5,4682,-4,5
2684,-7,5,4683,-4,5
2685,-11,5,4684,-5,5
2686,-13,5,4685,-5,5
2687,-15,5,4686,-3,5
2688,-14,5,4687,-1,5
2689,-16,5,4688,-2,5
2690,-17,5,4689,0,5
2691,-17,5,4690,1,5
2692,-17,5,4691,-1,5
2693,-17,5,4692,-3,5
2694,-17,5,4693,-5,5
2695,-15,5,4694,-6,5
2696,-8,5,4695,-8,5
2697,-3,5,4696,-7,5
2698,-5,5,4697,-6,5
2699,-8,5,4698,-5,5
2700,-3,5,4699,-4,5
2701,6,5,4700,-5,5
2702,10,5,4701,-2,5
2703,12,5,4702,-1,5
2704,11,5,4703,-1,5
2705,9,5,4704,-1,5
2706,6,5,4705,-1,5
2707,4,5,4706,-1,5
2708,3,5,4707,-1,5
2709,2,5,4708,-3,5
2710,-2,5,4709,-5,5
2711,-4,5,4710,-6,5
2712,-4,5,4711,-5,5
2713,-5,5,4712,-3,5
2714,-6,5,4713,-3,5
2715,-7,5,4714,-4,5
2716,-7,5,4715,-4,5
2717,-7,5,4716,-3,5
2718,-9,5,4717,-3,5
2719,-10,5,4718,-3,5
2720,-8,5,4719,-3,5
2721,-6,5,4720,-3,5
2722,-5,5,4721,-2,5
2723,-5,5,4722,-1,5
2724,-6,5,4723,-4,5
2725,-8,5,4724,-4,5
2726,-10,5,4725,-5,5
2727,-10,5,4726,-4,5
2728,-10,5,4727,-2,5
2729,-12,5,4728,-1,5
2730,-13,5,4729,0,5
2731,-12,5,4730,-1,5
2732,-13,5,4731,0,5
2733,-14,5,4732,0,5
2734,-12,5,4733,-3,5
2735,-10,5,4734,-6,5
2736,-9,5,4735,-11,5
2737,-9,5,4736,-14,5
2738,-11,5,4737,-16,5
2739,-9,5,4738,-17,5
2740,-8,5,4739,-17,5
2741,-7,5,4740,-17,5
2742,-7,5,4741,-17,5
2743,-6,5,4742,-17,5
2744,-8,5,4743,-13,5
2745,-9,5,4744,-4,5
2746,-9,5,4745,5,5
2747,-8,5,4746,11,5
2748,-9,5,4747,9,5
2749,-9,5,4748,8,5
2750,-8,5,4749,13,5
2751,-7,5,4750,14,5
2752,-7,5,4751,14,5
2753,-8,5,4752,14,5
2754,-9,5,4753,14,5
2755,-8,5,4754,10,5
2756,-8,5,4755,8,5
2757,-7,5,4756,8,5
2758,-5,5,4757,9,5
2759,-6,5,4758,10,5
2760,-9,5,4759,8,5
2761,-10,5,4760,5,5
2762,-9,5,4761,2,5
2763,-9,5,4762,0,5
2764,-10,5,4763,-4,5
2765,-12,5,4764,-6,5
2766,-13,5,4765,-7,5
2767,-11,5,4766,-8,5
2768,-12,5,4767,-6,5
2769,-10,5,4768,-5,5
2770,-8,5,4769,-3,5
2771,-9,5,4770,-1,5
2772,-9,5,4771,0,5
2773,-9,5,4772,0,5
2774,-8,5,4773,0,5
2775,-8,5,4774,-1,5
2776,-8,5,4775,-3,5
2777,-8,5,4776,-5,5
2778,-9,5,4777,-7,5
2779,-11,5,4778,-6,5
2780,-9,5,4779,-4,5
2781,-10,5,4780,-2,5
2782,-10,5,4781,0,5
2783,-10,5,4782,0,5
2784,-10,5,4783,-1,5
2785,-9,5,4784,-1,5
2786,-8,5,4785,-3,5
2787,-8,5,4786,-4,5
2788,-8,5,4787,-3,5
2789,-7,5,4788,-2,5
2790,-7,5,4789,-1,5
2791,-8,5,4790,-4,5
2792,-8,5,4791,-4,5
2793,-7,5,4792,-2,5
2794,-7,5,4793,-2,5
2795,-6,5,4794,-2,5
2796,-7,5,4795,-4,5
2797,-8,5,4796,-5,5
2798,-8,5,4797,-8,5
2799,-8,5,4798,-9,5
2800,-8,5,4799,-7,5
2801,-6,5,4800,-6,5
2802,-5,5,4801,-6,5
2803,-5,5,4802,-4,5
2804,-3,5,4803,-4,5
2805,-3,5,4804,-4,5
2806,-6,5,4805,-3,5
2807,-8,5,4806,-3,5
2808,-8,5,4807,-5,5
2809,-7,5,4808,-4,5
2810,-7,5,4809,-2,5
2811,-5,5,4810,-2,5
2812,-4,5,4811,-1,5
2813,-4,5,4812,2,5
2814,-5,5,4813,1,5
2815,-6,5,4814,-1,5
2816,-5,5,4815,-3,5
2817,-6,5,4816,-5,5
2818,-8,5,4817,-7,5
2819,-9,5,4818,-7,5
2820,-8,5,4819,-8,5
2821,-6,5,4820,-6,5
2822,-5,5,4821,-4,5
2823,-4,5,4822,-4,5
2824,-2,5,4823,-6,5
2825,-3,5,4824,-9,5
2826,-4,5,4825,-11,5
2827,-6,5,4826,-9,5
2828,-5,5,4827,-7,5
2829,-6,5,4828,-5,5
2830,-5,5,4829,-3,5
2831,-5,5,4830,-3,5
2832,-6,5,4831,-3,5
2833,-5,5,4832,-4,5
2834,-4,5,4833,-3,5
2835,-5,5,4834,-3,5
2836,-5,5,4835,-4,5
2837,-5,5,4836,-5,5
2838,-4,5,4837,-6,5
2839,-2,5,4838,-3,5
2840,-1,5,4839,-4,5
2841,0,5,4840,-4,5
2842,-1,5,4841,-2,5
2843,-2,5,4842,-3,5
2844,-4,5,4843,-6,5
2845,-5,5,4844,-7,5
2846,-5,5,4845,-10,5
2847,-5,5,4846,-11,5
2848,-5,5,4847,-10,5
2849,-5,5,4848,-6,5
2850,-7,5,4849,-4,5
2851,-7,5,4850,-2,5
2852,-9,5,4851,0,5
2853,-9,5,4852,-1,5
2854,-9,5,4853,0,5
2855,-7,5,4854,-3,5
2856,-7,5,4855,-3,5
2857,-6,5,4856,-2,5
2858,-6,5,4857,-2,5
2859,-6,5,4858,-2,5
2860,-7,5,4859,0,5
2861,-7,5,4860,0,5
2862,-7,5,4861,0,5
2863,-8,5,4862,0,5
2864,-7,5,4863,-2,5
2865,-5,5,4864,-4,5
2866,-3,5,4865,-6,5
2867,-3,5,4866,-6,5
2868,-5,5,4867,-6,5
2869,-5,5,4868,-7,5
2870,-5,5,4869,-6,5
2871,-6,5,4870,-5,5
2872,-7,5,4871,-5,5
2873,-7,5,4872,-5,5
2874,-6,5,4873,-3,5
2875,-6,5,4874,-3,5
2876,-6,5,4875,-2,5
2877,-7,5,4876,-2,5
2878,-7,5,4877,-3,5
2879,-6,5,4878,-5,5
2880,-4,5,4879,-5,5
2881,-3,5,4880,-4,5
2882,-3,5,4881,-3,5
2883,-3,5,4882,-2,5
2884,-3,5,4883,-4,5
2885,-5,5,4884,-7,5
2886,-6,5,4885,-8,5
2887,-4,5,4886,-6,5
2888,-3,5,4887,-4,5
2889,-3,5,4888,-3,5
2890,-3,5,4889,-1,5
2891,-3,5,4890,-1,5
2892,-6,5,4891,-2,5
2893,-7,5,4892,-3,5
2894,-6,5,4893,-6,5
2895,-5,5,4894,-8,5
2896,-4,5,4895,-8,5
2897,-4,5,4896,-8,5
2898,-4,5,4897,-8,5
2899,-4,5,4898,-9,5
2900,-5,5,4899,-7,5
2901,-5,5,4900,-5,5
2902,-6,5,4901,-5,5
2903,-5,5,4902,-3,5
2904,-4,5,4903,-3,5
2905,-5,5,4904,-2,5
2906,-5,5,4905,-2,5
2907,-6,5,4906,-4,5
2908,-6,5,4907,-4,5
2909,-7,5,4908,-1,5
2910,-8,5,4909,2,5
2911,-7,5,4910,2,5
2912,-7,5,4911,1,5
2913,-7,5,4912,1,5
2914,-5,5,4913,1,5
2915,-5,5,4914,0,5
2916,-7,5,4915,0,5
2917,-9,5,4916,-1,5
2918,-9,5,4917,-2,5
2919,-10,5,4918,-4,5
2920,-10,5,4919,-5,5
2921,-9,5,4920,-6,5
2922,-7,5,4921,-7,5
2923,-7,5,4922,-6,5
2924,-7,5,4923,-7,5
2925,-7,5,4924,-6,5
2926,-6,5,4925,-3,5
2927,-5,5,4926,0,5
2928,-6,5,4927,2,5
2929,-8,5,4928,2,5
2930,-9,5,4929,0,5
2931,-9,5,4930,-1,5
2932,-9,5,4931,0,5
2933,-8,5,4932,-1,5
2934,-7,5,4933,-1,5
2935,-5,5,4934,0,5
2936,-4,5,4935,-1,5
2937,-4,5,4936,-1,5
2938,-5,5,4937,-1,5
2939,-5,5,4938,-1,5
2940,-6,5,4939,-3,5
2941,-7,5,4940,-3,5
2942,-7,5,4941,-2,5
2943,-7,5,4942,-1,5
2944,-6,5,4943,-1,5
2945,-6,5,4944,0,5
2946,-6,5,4945,0,5
2947,-6,5,4946,2,5
2948,-7,5,4947,3,5
2949,-7,5,4948,2,5
2950,-6,5,4949,0,5
2951,-5,5,4950,-1,5
2952,-3,5,4951,0,5
2953,-1,5,4952,-1,5
2954,-3,5,4953,-1,5
2955,-4,5,4954,0,5
2956,-4,5,4955,0,5
2957,-4,5,4956,1,5
2958,-7,5,4957,2,5
2959,-7,5,4958,3,5
2960,-9,5,4959,2,5
2961,-10,5,4960,0,5
2962,-10,5,4961,-1,5
2963,-8,5,4962,0,5
2964,-7,5,4963,0,5
2965,-5,5,4964,0,5
2966,-2,5,4965,-2,5
2967,-2,5,4966,-1,5
2968,-4,5,4967,1,5
2969,-5,5,4968,4,5
2970,-7,5,4969,1,5
2971,-7,5,4970,-3,5
2972,-5,5,4971,-4,5
2973,-4,5,4972,-5,5
2974,-3,5,4973,-6,5
2975,-3,5,4974,-7,5
2976,-1,5,4975,-6,5
2977,0,5,4976,-3,5
2978,0,5,4977,-3,5
2979,1,5,4978,-3,5
2980,-1,5,4979,-3,5
2981,-2,5,4980,-3,5
2982,-5,5,4981,-2,5
2983,-6,5,4982,-3,5
2984,-6,5,4983,-3,5
2985,-5,5,4984,-1,5
2986,-4,5,4985,2,5
2987,-3,5,4986,3,5
2988,-2,5,4987,1,5
2989,-1,5,4988,-2,5
2990,-1,5,4989,-4,5
2991,-1,5,4990,-4,5
2992,-1,5,4991,-4,5
2993,1,5,4992,-4,5
2994,1,5,4993,-3,5
2995,0,5,4994,-3,5
2996,-2,5,4995,-2,5
2997,-1,5,4996,-1,5
2998,-2,5,4997,-2,5
2999,-4,5,4998,-2,5
3000,-4,5,4999,-1,5
