TS,Reading,Flag,TS2,Reading2,Flag2
1,-13,5,2000,-8,5
2,-11,5,2001,-8,5
3,-11,5,2002,-7,5
4,-11,5,2003,-8,5
5,-12,5,2004,-7,5
6,-13,5,2005,-7,5
7,-13,5,2006,-6,5
8,-13,5,2007,-6,5
9,-11,5,2008,-7,5
10,-10,5,2009,-9,5
11,-10,5,2010,-8,5
12,-10,5,2011,-7,5
13,-11,5,2012,-8,5
14,-12,5,2013,-8,5
15,-14,5,2014,-8,5
16,-14,5,2015,-8,5
17,-15,5,2016,-7,5
18,-15,5,2017,-7,5
19,-15,5,2018,-7,5
20,-14,5,2019,-8,5
21,-15,5,2020,-8,5
22,-14,5,2021,-8,5
23,-13,5,2022,-9,5
24,-12,5,2023,-10,5
25,-10,5,2024,-9,5
26,-11,5,2025,-8,5
27,-13,5,2026,-8,5
28,-15,5,2027,-6,5
29,-14,5,2028,-6,5
30,-13,5,2029,-5,5
31,-12,5,2030,-6,5
32,-11,5,2031,-8,5
33,-11,5,2032,-10,5
34,-12,5,2033,-12,5
35,-13,5,2034,-12,5
36,-12,5,2035,-13,5
37,-14,5,2036,-11,5
38,-15,5,2037,-9,5
39,-15,5,2038,-7,5
40,-15,5,2039,-6,5
41,-15,5,2040,-5,5
42,-13,5,2041,-7,5
43,-10,5,2042,-8,5
44,-8,5,2043,-9,5
45,-8,5,2044,-10,5
46,-9,5,2045,-11,5
47,-14,5,2046,-10,5
48,-15,5,2047,-10,5
49,-15,5,2048,-10,5
50,-15,5,2049,-10,5
51,-12,5,2050,-9,5
52,-8,5,2051,-7,5
53,-7,5,2052,-7,5
54,-9,5,2053,-10,5
55,-9,5,2054,-12,5
56,-9,5,2055,-13,5
57,-11,5,2056,-14,5
58,-14,5,2057,-12,5
59,-14,5,2058,-10,5
60,-14,5,2059,-9,5
61,-13,5,2060,-7,5
62,-12,5,2061,-7,5
63,-11,5,2062,-8,5
64,-9,5,2063,-9,5
65,-8,5,2064,-9,5
66,-7,5,2065,-10,5
67,-6,5,2066,-8,5
68,-3,5,2067,-8,5
69,-1,5,2068,-8,5
70,-1,5,2069,-7,5
71,-3,5,2070,-6,5
72,-3,5,2071,-7,5
73,-2,5,2072,-8,5
74,-1,5,2073,-8,5
75,0,5,2074,-10,5
76,2,5,2075,-10,5
77,3,5,2076,-10,5
78,5,5,2077,-9,5
79,6,5,2078,-8,5
80,8,5,2079,-9,5
81,8,5,2080,-8,5
82,7,5,2081,-9,5
83,7,5,2082,-9,5
84,7,5,2083,-8,5
85,7,5,2084,-7,5
86,7,5,2085,-7,5
87,8,5,2086,-8,5
88,10,5,2087,-7,5
89,13,5,2088,-8,5
90,13,5,2089,-8,5
91,11,5,2090,-10,5
92,8,5,2091,-9,5
93,2,5,2092,-10,5
94,0,5,2093,-9,5
95,2,5,2094,-7,5
96,1,5,2095,-6,5
97,-2,5,2096,-3,5
98,-5,5,2097,-1,5
99,-6,5,2098,0,5
100,-6,5,2099,1,5
101,-7,5,2100,1,5
102,-10,5,2101,2,5
103,-9,5,2102,2,5
104,-10,5,2103,2,5
105,-9,5,2104,2,5
106,-10,5,2105,3,5
107,-11,5,2106,5,5
108,-12,5,2107,7,5
109,-14,5,2108,9,5
110,-14,5,2109,10,5
111,-15,5,2110,11,5
112,-15,5,2111,11,5
113,-15,5,2112,11,5
114,-15,5,2113,12,5
115,-15,5,2114,11,5
116,-15,5,2115,13,5
117,-15,5,2116,14,5
118,-15,5,2117,13,5
119,-15,5,2118,13,5
120,-15,5,2119,13,5
121,-15,5,2120,12,5
122,-15,5,2121,9,5
123,-15,5,2122,7,5
124,-15,5,2123,7,5
125,-15,5,2124,6,5
126,-15,5,2125,5,5
127,-15,5,2126,3,5
128,-15,5,2127,0,5
129,-15,5,2128,-3,5
130,-15,5,2129,-7,5
131,-15,5,2130,-8,5
132,-15,5,2131,-7,5
133,-15,5,2132,-6,5
134,-15,5,2133,-5,5
135,-15,5,2134,-4,5
136,-15,5,2135,-4,5
137,-15,5,2136,-5,5
138,-15,5,2137,-7,5
139,-15,5,2138,-8,5
140,-15,5,2139,-12,5
141,-15,5,2140,-13,5
142,-15,5,2141,-15,5
143,-15,5,2142,-14,5
144,-10,5,2143,-15,5
145,-5,5,2144,-15,5
146,4,5,2145,-15,5
147,20,5,2146,-15,5
148,36,5,2147,-15,5
149,54,5,2148,-15,5
150,54,5,2149,-15,5
151,54,5,2150,-15,5
152,54,5,2151,-15,5
153,54,5,2152,-14,5
154,54,5,2153,-13,5
155,54,5,2154,-13,5
156,54,5,2155,-15,5
157,54,5,2156,-15,5
158,54,5,2157,-15,5
159,49,5,2158,-15,5
160,20,5,2159,-15,5
161,-2,5,2160,-15,5
162,-15,5,2161,-15,5
163,-15,5,2162,-14,5
164,-15,5,2163,-14,5
165,-15,5,2164,-15,5
166,-15,5,2165,-14,5
167,-15,5,2166,-14,5
168,-15,5,2167,-13,5
169,-15,5,2168,-12,5
170,-15,5,2169,-13,5
171,-15,5,2170,-13,5
172,-15,5,2171,-12,5
173,-15,5,2172,-13,5
174,-15,5,2173,-14,5
175,-15,5,2174,-12,5
176,-15,5,2175,-6,5
177,-15,5,2176,1,5
178,-14,5,2177,9,5
179,-13,5,2178,20,5
180,-12,5,2179,33,5
181,-12,5,2180,51,5
182,-12,5,2181,54,5
183,-13,5,2182,54,5
184,-13,5,2183,54,5
185,-14,5,2184,54,5
186,-15,5,2185,54,5
187,-15,5,2186,54,5
188,-15,5,2187,54,5
189,-15,5,2188,54,5
190,-15,5,2189,54,5
191,-13,5,2190,52,5
192,-12,5,2191,31,5
193,-12,5,2192,10,5
194,-11,5,2193,-7,5
195,-10,5,2194,-14,5
196,-11,5,2195,-15,5
197,-10,5,2196,-15,5
198,-13,5,2197,-15,5
199,-12,5,2198,-15,5
200,-13,5,2199,-15,5
201,-11,5,2200,-15,5
202,-11,5,2201,-15,5
203,-11,5,2202,-13,5
204,-11,5,2203,-11,5
205,-11,5,2204,-10,5
206,-11,5,2205,-8,5
207,-11,5,2206,-7,5
208,-10,5,2207,-7,5
209,-11,5,2208,-6,5
210,-10,5,2209,-8,5
211,-10,5,2210,-7,5
212,-11,5,2211,-6,5
213,-10,5,2212,-6,5
214,-10,5,2213,-7,5
215,-9,5,2214,-8,5
216,-8,5,2215,-9,5
217,-8,5,2216,-8,5
218,-7,5,2217,-7,5
219,-7,5,2218,-7,5
220,-7,5,2219,-6,5
221,-7,5,2220,-7,5
222,-8,5,2221,-7,5
223,-8,5,2222,-7,5
224,-8,5,2223,-7,5
225,-7,5,2224,-7,5
226,-7,5,2225,-6,5
227,-7,5,2226,-3,5
228,-8,5,2227,-3,5
229,-9,5,2228,-4,5
230,-10,5,2229,-4,5
231,-10,5,2230,-5,5
232,-9,5,2231,-5,5
233,-10,5,2232,-5,5
234,-10,5,2233,-6,5
235,-9,5,2234,-4,5
236,-8,5,2235,-3,5
237,-6,5,2236,-3,5
238,-7,5,2237,-3,5
239,-10,5,2238,-1,5
240,-10,5,2239,-3,5
241,-8,5,2240,-3,5
242,-6,5,2241,-2,5
243,-6,5,2242,-2,5
244,-6,5,2243,-4,5
245,-6,5,2244,-4,5
246,-6,5,2245,-3,5
247,-6,5,2246,0,5
248,-6,5,2247,1,5
249,-5,5,2248,-1,5
250,-5,5,2249,-2,5
251,-6,5,2250,-3,5
252,-6,5,2251,-5,5
253,-5,5,2252,-5,5
254,-4,5,2253,-5,5
255,-3,5,2254,-5,5
256,-4,5,2255,-4,5
257,-4,5,2256,-1,5
258,-4,5,2257,0,5
259,-4,5,2258,-1,5
260,-4,5,2259,-2,5
261,-4,5,2260,-3,5
262,-3,5,2261,-5,5
263,-2,5,2262,-5,5
264,0,5,2263,-5,5
265,-1,5,2264,-3,5
266,0,5,2265,-2,5
267,0,5,2266,-3,5
268,0,5,2267,-2,5
269,-1,5,2268,-2,5
270,-1,5,2269,-2,5
271,0,5,2270,-2,5
272,0,5,2271,-1,5
273,1,5,2272,0,5
274,2,5,2273,0,5
275,3,5,2274,1,5
276,4,5,2275,1,5
277,4,5,2276,0,5
278,5,5,2277,-2,5
279,5,5,2278,-1,5
280,6,5,2279,0,5
281,7,5,2280,0,5
282,7,5,2281,0,5
283,7,5,2282,0,5
284,7,5,2283,0,5
285,7,5,2284,0,5
286,8,5,2285,-1,5
287,7,5,2286,0,5
288,6,5,2287,2,5
289,8,5,2288,2,5
290,7,5,2289,3,5
291,7,5,2290,4,5
292,6,5,2291,6,5
293,6,5,2292,7,5
294,7,5,2293,7,5
295,11,5,2294,7,5
296,11,5,2295,4,5
297,11,5,2296,2,5
298,11,5,2297,1,5
299,11,5,2298,2,5
300,11,5,2299,2,5
301,12,5,2300,3,5
302,11,5,2301,5,5
303,11,5,2302,6,5
304,11,5,2303,9,5
305,12,5,2304,9,5
306,13,5,2305,7,5
307,14,5,2306,7,5
308,15,5,2307,8,5
309,13,5,2308,9,5
310,12,5,2309,10,5
311,11,5,2310,11,5
312,10,5,2311,11,5
313,8,5,2312,11,5
314,8,5,2313,11,5
315,8,5,2314,10,5
316,8,5,2315,11,5
317,9,5,2316,11,5
318,8,5,2317,12,5
319,6,5,2318,12,5
320,4,5,2319,15,5
321,2,5,2320,15,5
322,1,5,2321,16,5
323,1,5,2322,17,5
324,1,5,2323,16,5
325,1,5,2324,16,5
326,1,5,2325,15,5
327,2,5,2326,15,5
328,2,5,2327,17,5
329,2,5,2328,16,5
330,-2,5,2329,17,5
331,-4,5,2330,19,5
332,-4,5,2331,21,5
333,-5,5,2332,21,5
334,-6,5,2333,22,5
335,-5,5,2334,22,5
336,-5,5,2335,21,5
337,-6,5,2336,20,5
338,-7,5,2337,22,5
339,-7,5,2338,21,5
340,-8,5,2339,20,5
341,-8,5,2340,21,5
342,-7,5,2341,20,5
343,-7,5,2342,19,5
344,-7,5,2343,20,5
345,-6,5,2344,18,5
346,-7,5,2345,15,5
347,-7,5,2346,12,5
348,-7,5,2347,10,5
349,-8,5,2348,9,5
350,-8,5,2349,9,5
351,-9,5,2350,9,5
352,-8,5,2351,9,5
353,-7,5,2352,7,5
354,-7,5,2353,6,5
355,-9,5,2354,6,5
356,-10,5,2355,5,5
357,-9,5,2356,4,5
358,-8,5,2357,3,5
359,-8,5,2358,3,5
360,-8,5,2359,3,5
361,-7,5,2360,3,5
362,-5,5,2361,0,5
363,-5,5,2362,-1,5
364,-4,5,2363,-3,5
365,-6,5,2364,-3,5
366,-7,5,2365,-4,5
367,-7,5,2366,-4,5
368,-8,5,2367,-5,5
369,-8,5,2368,-5,5
370,-7,5,2369,-3,5
371,-6,5,2370,-3,5
372,-3,5,2371,-4,5
373,-2,5,2372,-7,5
374,-4,5,2373,-8,5
375,-5,5,2374,-9,5
376,-5,5,2375,-11,5
377,-6,5,2376,-13,5
378,-6,5,2377,-11,5
379,-7,5,2378,-9,5
380,-8,5,2379,-8,5
381,-7,5,2380,-7,5
382,-5,5,2381,-8,5
383,-5,5,2382,-10,5
384,-4,5,2383,-11,5
385,-4,5,2384,-11,5
386,-3,5,2385,-12,5
387,-4,5,2386,-11,5
388,-4,5,2387,-8,5
389,-3,5,2388,-6,5
390,-2,5,2389,-6,5
391,1,5,2390,-7,5
392,1,5,2391,-7,5
393,0,5,2392,-9,5
394,1,5,2393,-11,5
395,1,5,2394,-12,5
396,-1,5,2395,-13,5
397,-2,5,2396,-10,5
398,-3,5,2397,-7,5
399,-4,5,2398,-4,5
400,-6,5,2399,-3,5
401,-5,5,2400,-5,5
402,-6,5,2401,-5,5
403,-5,5,2402,-8,5
404,-5,5,2403,-11,5
405,-2,5,2404,-11,5
406,-2,5,2405,-11,5
407,-2,5,2406,-9,5
408,-3,5,2407,-6,5
409,-4,5,2408,-4,5
410,-3,5,2409,-5,5
411,-3,5,2410,-5,5
412,-3,5,2411,-6,5
413,-3,5,2412,-7,5
414,0,5,2413,-7,5
415,1,5,2414,-7,5
416,1,5,2415,-5,5
417,0,5,2416,-5,5
418,0,5,2417,-3,5
419,-2,5,2418,0,5
420,-2,5,2419,0,5
421,-3,5,2420,-2,5
422,-3,5,2421,-2,5
423,-3,5,2422,-4,5
424,-3,5,2423,-5,5
425,-3,5,2424,-5,5
426,-3,5,2425,-5,5
427,-2,5,2426,-5,5
428,-4,5,2427,-4,5
429,-4,5,2428,-3,5
430,-4,5,2429,-2,5
431,-4,5,2430,-3,5
432,-4,5,2431,-5,5
433,-3,5,2432,-6,5
434,-3,5,2433,-5,5
435,-4,5,2434,-4,5
436,-4,5,2435,-4,5
437,-4,5,2436,-1,5
438,-3,5,2437,-2,5
439,-2,5,2438,-2,5
440,-3,5,2439,-1,5
441,-3,5,2440,-2,5
442,-4,5,2441,-3,5
443,-5,5,2442,-2,5
444,-4,5,2443,-4,5
445,-5,5,2444,-5,5
446,-4,5,2445,-6,5
447,-4,5,2446,-5,5
448,-1,5,2447,-4,5
449,-1,5,2448,-3,5
450,-1,5,2449,-2,5
451,-2,5,2450,-3,5
452,-4,5,2451,-2,5
453,-5,5,2452,-3,5
454,-5,5,2453,-4,5
455,-7,5,2454,-5,5
456,-6,5,2455,-5,5
457,-5,5,2456,-4,5
458,-5,5,2457,-4,5
459,-5,5,2458,-3,5
460,-4,5,2459,-2,5
461,-4,5,2460,-3,5
462,-4,5,2461,-5,5
463,-5,5,2462,-7,5
464,-5,5,2463,-7,5
465,-4,5,2464,-8,5
466,-6,5,2465,-8,5
467,-5,5,2466,-7,5
468,-4,5,2467,-7,5
469,-6,5,2468,-4,5
470,-6,5,2469,-5,5
471,-6,5,2470,-4,5
472,-4,5,2471,-6,5
473,-6,5,2472,-7,5
474,-5,5,2473,-9,5
475,-5,5,2474,-11,5
476,-6,5,2475,-12,5
477,-7,5,2476,-11,5
478,-8,5,2477,-9,5
479,-8,5,2478,-7,5
480,-8,5,2479,-6,5
481,-7,5,2480,-6,5
482,-6,5,2481,-8,5
483,-5,5,2482,-8,5
484,-5,5,2483,-9,5
485,-5,5,2484,-10,5
486,-6,5,2485,-10,5
487,-7,5,2486,-10,5
488,-8,5,2487,-8,5
489,-8,5,2488,-8,5
490,-7,5,2489,-7,5
491,-6,5,2490,-8,5
492,-6,5,2491,-7,5
493,-6,5,2492,-7,5
494,-6,5,2493,-8,5
495,-6,5,2494,-11,5
496,-5,5,2495,-11,5
497,-6,5,2496,-9,5
498,-6,5,2497,-9,5
499,-5,5,2498,-8,5
500,-5,5,2499,-8,5
501,-6,5,2500,-7,5
502,-6,5,2501,-10,5
503,-6,5,2502,-12,5
504,-7,5,2503,-12,5
505,-6,5,2504,-12,5
506,-6,5,2505,-10,5
507,-7,5,2506,-10,5
508,-7,5,2507,-11,5
509,-8,5,2508,-9,5
510,-8,5,2509,-9,5
511,-8,5,2510,-9,5
512,-8,5,2511,-8,5
513,-7,5,2512,-9,5
514,-5,5,2513,-11,5
515,-3,5,2514,-12,5
516,-3,5,2515,-12,5
517,-3,5,2516,-11,5
518,-4,5,2517,-12,5
519,-4,5,2518,-10,5
520,-4,5,2519,-10,5
521,-4,5,2520,-10,5
522,-4,5,2521,-10,5
523,-4,5,2522,-10,5
524,-5,5,2523,-10,5
525,-5,5,2524,-10,5
526,-5,5,2525,-11,5
527,-6,5,2526,-9,5
528,-6,5,2527,-10,5
529,-7,5,2528,-10,5
530,-5,5,2529,-11,5
531,-4,5,2530,-12,5
532,-5,5,2531,-11,5
533,-6,5,2532,-11,5
534,-6,5,2533,-13,5
535,-7,5,2534,-11,5
536,-7,5,2535,-10,5
537,-5,5,2536,-10,5
538,-5,5,2537,-10,5
539,-5,5,2538,-8,5
540,-5,5,2539,-8,5
541,-5,5,2540,-8,5
542,-6,5,2541,-11,5
543,-6,5,2542,-13,5
544,-6,5,2543,-14,5
545,-7,5,2544,-14,5
546,-7,5,2545,-13,5
547,-7,5,2546,-14,5
548,-6,5,2547,-12,5
549,-7,5,2548,-10,5
550,-8,5,2549,-9,5
551,-7,5,2550,-9,5
552,-8,5,2551,-9,5
553,-7,5,2552,-11,5
554,-6,5,2553,-12,5
555,-5,5,2554,-12,5
556,-4,5,2555,-11,5
557,-4,5,2556,-11,5
558,-5,5,2557,-11,5
559,-6,5,2558,-10,5
560,-7,5,2559,-9,5
561,-8,5,2560,-9,5
562,-8,5,2561,-11,5
563,-8,5,2562,-10,5
564,-6,5,2563,-9,5
565,-5,5,2564,-9,5
566,-4,5,2565,-10,5
567,-3,5,2566,-12,5
568,-2,5,2567,-11,5
569,-3,5,2568,-11,5
570,-4,5,2569,-11,5
571,-4,5,2570,-11,5
572,-5,5,2571,-12,5
573,-4,5,2572,-11,5
574,-3,5,2573,-10,5
575,-1,5,2574,-11,5
576,2,5,2575,-11,5
577,5,5,2576,-12,5
578,6,5,2577,-10,5
579,5,5,2578,-11,5
580,4,5,2579,-10,5
581,3,5,2580,-8,5
582,2,5,2581,-8,5
583,3,5,2582,-8,5
584,3,5,2583,-9,5
585,5,5,2584,-10,5
586,7,5,2585,-10,5
587,11,5,2586,-11,5
588,12,5,2587,-11,5
589,14,5,2588,-10,5
590,14,5,2589,-9,5
591,14,5,2590,-8,5
592,14,5,2591,-8,5
593,15,5,2592,-10,5
594,16,5,2593,-10,5
595,16,5,2594,-12,5
596,16,5,2595,-13,5
597,15,5,2596,-13,5
598,14,5,2597,-11,5
599,15,5,2598,-9,5
600,14,5,2599,-7,5
601,14,5,2600,-6,5
602,11,5,2601,-4,5
603,8,5,2602,-5,5
604,5,5,2603,-6,5
605,6,5,2604,-6,5
606,4,5,2605,-7,5
607,3,5,2606,-5,5
608,1,5,2607,-3,5
609,1,5,2608,0,5
610,-1,5,2609,0,5
611,-3,5,2610,0,5
612,-2,5,2611,-1,5
613,-2,5,2612,0,5
614,-5,5,2613,0,5
615,-7,5,2614,1,5
616,-8,5,2615,3,5
617,-8,5,2616,5,5
618,-9,5,2617,6,5
619,-10,5,2618,8,5
620,-10,5,2619,9,5
621,-11,5,2620,8,5
622,-12,5,2621,8,5
623,-14,5,2622,8,5
624,-15,5,2623,9,5
625,-15,5,2624,10,5
626,-14,5,2625,10,5
627,-13,5,2626,10,5
628,-11,5,2627,10,5
629,-11,5,2628,11,5
630,-10,5,2629,11,5
631,-12,5,2630,9,5
632,-13,5,2631,9,5
633,-14,5,2632,6,5
634,-14,5,2633,3,5
635,-15,5,2634,1,5
636,-14,5,2635,0,5
637,-13,5,2636,-1,5
638,-12,5,2637,-1,5
639,-11,5,2638,-4,5
640,-11,5,2639,-8,5
641,-13,5,2640,-10,5
642,-14,5,2641,-11,5
643,-14,5,2642,-11,5
644,-14,5,2643,-9,5
645,-14,5,2644,-9,5
646,-14,5,2645,-8,5
647,-12,5,2646,-10,5
648,-12,5,2647,-11,5
649,-12,5,2648,-13,5
650,-14,5,2649,-15,5
651,-15,5,2650,-15,5
652,-14,5,2651,-15,5
653,-10,5,2652,-15,5
654,-5,5,2653,-15,5
655,4,5,2654,-15,5
656,13,5,2655,-15,5
657,25,5,2656,-15,5
658,42,5,2657,-15,5
659,54,5,2658,-15,5
660,54,5,2659,-15,5
661,54,5,2660,-15,5
662,54,5,2661,-15,5
663,54,5,2662,-15,5
664,54,5,2663,-15,5
665,54,5,2664,-15,5
666,54,5,2665,-15,5
667,54,5,2666,-15,5
668,54,5,2667,-15,5
669,53,5,2668,-15,5
670,31,5,2669,-15,5
671,7,5,2670,-15,5
672,-9,5,2671,-15,5
673,-15,5,2672,-15,5
674,-15,5,2673,-15,5
675,-15,5,2674,-15,5
676,-15,5,2675,-15,5
677,-15,5,2676,-15,5
678,-15,5,2677,-15,5
679,-15,5,2678,-15,5
680,-15,5,2679,-15,5
681,-15,5,2680,-15,5
682,-13,5,2681,-15,5
683,-10,5,2682,-15,5
684,-9,5,2683,-14,5
685,-7,5,2684,-7,5
686,-7,5,2685,0,5
687,-7,5,2686,8,5
688,-5,5,2687,17,5
689,-4,5,2688,29,5
690,-5,5,2689,45,5
691,-6,5,2690,54,5
692,-6,5,2691,54,5
693,-6,5,2692,54,5
694,-8,5,2693,54,5
695,-9,5,2694,54,5
696,-8,5,2695,54,5
697,-7,5,2696,54,5
698,-6,5,2697,54,5
699,-7,5,2698,54,5
700,-6,5,2699,40,5
701,-4,5,2700,15,5
702,-4,5,2701,-4,5
703,-5,5,2702,-15,5
704,-5,5,2703,-15,5
705,-7,5,2704,-15,5
706,-7,5,2705,-15,5
707,-6,5,2706,-15,5
708,-5,5,2707,-15,5
709,-2,5,2708,-15,5
710,-2,5,2709,-15,5
711,-2,5,2710,-15,5
712,-2,5,2711,-15,5
713,-4,5,2712,-15,5
714,-4,5,2713,-15,5
715,-3,5,2714,-15,5
716,-3,5,2715,-15,5
717,-4,5,2716,-15,5
718,-2,5,2717,-14,5
719,-2,5,2718,-11,5
720,-2,5,2719,-11,5
721,-3,5,2720,-11,5
722,-3,5,2721,-10,5
723,-3,5,2722,-10,5
724,-4,5,2723,-12,5
725,-3,5,2724,-12,5
726,-3,5,2725,-10,5
727,-3,5,2726,-10,5
728,-3,5,2727,-10,5
729,-2,5,2728,-9,5
730,-2,5,2729,-8,5
731,-3,5,2730,-9,5
732,-2,5,2731,-9,5
733,-2,5,2732,-8,5
734,-1,5,2733,-10,5
735,-1,5,2734,-9,5
736,0,5,2735,-8,5
737,-1,5,2736,-9,5
738,1,5,2737,-8,5
739,3,5,2738,-9,5
740,2,5,2739,-9,5
741,2,5,2740,-9,5
742,2,5,2741,-9,5
743,0,5,2742,-10,5
744,1,5,2743,-8,5
745,2,5,2744,-8,5
746,1,5,2745,-8,5
747,0,5,2746,-10,5
748,-1,5,2747,-10,5
749,-1,5,2748,-10,5
750,0,5,2749,-10,5
751,-1,5,2750,-10,5
752,-1,5,2751,-9,5
753,1,5,2752,-8,5
754,2,5,2753,-6,5
755,2,5,2754,-7,5
756,2,5,2755,-6,5
757,1,5,2756,-7,5
758,1,5,2757,-8,5
759,3,5,2758,-9,5
760,2,5,2759,-9,5
761,2,5,2760,-8,5
762,3,5,2761,-8,5
763,5,5,2762,-7,5
764,6,5,2763,-5,5
765,7,5,2764,-3,5
766,7,5,2765,-2,5
767,6,5,2766,-5,5
768,6,5,2767,-5,5
769,5,5,2768,-7,5
770,6,5,2769,-9,5
771,6,5,2770,-8,5
772,7,5,2771,-7,5
773,6,5,2772,-5,5
774,7,5,2773,-5,5
775,8,5,2774,-4,5
776,8,5,2775,-4,5
777,9,5,2776,-6,5
778,9,5,2777,-6,5
779,11,5,2778,-7,5
780,12,5,2779,-7,5
781,13,5,2780,-4,5
782,14,5,2781,-5,5
783,13,5,2782,-5,5
784,15,5,2783,-5,5
785,15,5,2784,-6,5
786,14,5,2785,-7,5
787,15,5,2786,-6,5
788,16,5,2787,-4,5
789,16,5,2788,-4,5
790,18,5,2789,-5,5
791,18,5,2790,-4,5
792,19,5,2791,-4,5
793,21,5,2792,-5,5
794,22,5,2793,-5,5
795,21,5,2794,-5,5
796,20,5,2795,-4,5
797,21,5,2796,-2,5
798,21,5,2797,-1,5
799,21,5,2798,0,5
800,20,5,2799,1,5
801,21,5,2800,0,5
802,23,5,2801,-1,5
803,24,5,2802,-1,5
804,26,5,2803,-3,5
805,27,5,2804,-3,5
806,28,5,2805,0,5
807,28,5,2806,2,5
808,28,5,2807,3,5
809,29,5,2808,4,5
810,28,5,2809,4,5
811,26,5,2810,3,5
812,26,5,2811,2,5
813,26,5,2812,2,5
814,28,5,2813,2,5
815,29,5,2814,3,5
816,28,5,2815,3,5
817,29,5,2816,4,5
818,29,5,2817,5,5
819,28,5,2818,6,5
820,26,5,2819,6,5
821,24,5,2820,5,5
822,24,5,2821,5,5
823,24,5,2822,5,5
824,23,5,2823,5,5
825,23,5,2824,6,5
826,21,5,2825,6,5
827,18,5,2826,8,5
828,17,5,2827,7,5
829,14,5,2828,8,5
830,12,5,2829,9,5
831,10,5,2830,10,5
832,8,5,2831,10,5
833,6,5,2832,9,5
834,4,5,2833,9,5
835,5,5,2834,10,5
836,4,5,2835,11,5
837,3,5,2836,11,5
838,2,5,2837,11,5
839,1,5,2838,10,5
840,1,5,2839,9,5
841,1,5,2840,9,5
842,-1,5,2841,11,5
843,-1,5,2842,13,5
844,-2,5,2843,15,5
845,-1,5,2844,15,5
846,-1,5,2845,15,5
847,-2,5,2846,15,5
848,-1,5,2847,16,5
849,-2,5,2848,14,5
850,-3,5,2849,14,5
851,-2,5,2850,12,5
852,-2,5,2851,12,5
853,-1,5,2852,12,5
854,0,5,2853,11,5
855,-1,5,2854,9,5
856,-1,5,2855,10,5
857,-2,5,2856,9,5
858,-4,5,2857,8,5
859,-5,5,2858,7,5
860,-6,5,2859,7,5
861,-5,5,2860,6,5
862,-4,5,2861,5,5
863,-4,5,2862,5,5
864,-5,5,2863,4,5
865,-7,5,2864,2,5
866,-6,5,2865,2,5
867,-5,5,2866,1,5
868,-3,5,2867,1,5
869,-2,5,2868,-2,5
870,-2,5,2869,-2,5
871,-3,5,2870,-1,5
872,-3,5,2871,-2,5
873,-5,5,2872,-3,5
874,-6,5,2873,-3,5
875,-5,5,2874,-5,5
876,-5,5,2875,-6,5
877,-5,5,2876,-5,5
878,-5,5,2877,-4,5
879,-6,5,2878,-5,5
880,-4,5,2879,-7,5
881,-4,5,2880,-8,5
882,-4,5,2881,-7,5
883,-3,5,2882,-6,5
884,-3,5,2883,-7,5
885,-4,5,2884,-6,5
886,-6,5,2885,-7,5
887,-6,5,2886,-9,5
888,-5,5,2887,-9,5
889,-3,5,2888,-9,5
890,-1,5,2889,-8,5
891,1,5,2890,-8,5
892,2,5,2891,-7,5
893,1,5,2892,-6,5
894,0,5,2893,-8,5
895,-1,5,2894,-8,5
896,-3,5,2895,-10,5
897,-2,5,2896,-11,5
898,-1,5,2897,-10,5
899,0,5,2898,-9,5
900,0,5,2899,-7,5
901,1,5,2900,-8,5
902,2,5,2901,-8,5
903,2,5,2902,-10,5
904,2,5,2903,-11,5
905,1,5,2904,-9,5
906,2,5,2905,-9,5
907,0,5,2906,-8,5
908,-2,5,2907,-7,5
909,-1,5,2908,-6,5
910,-1,5,2909,-6,5
911,-1,5,2910,-5,5
912,-1,5,2911,-5,5
913,1,5,2912,-4,5
914,1,5,2913,-5,5
915,3,5,2914,-5,5
916,4,5,2915,-5,5
917,4,5,2916,-4,5
918,3,5,2917,-5,5
919,1,5,2918,-4,5
920,-1,5,2919,-5,5
921,-1,5,2920,-4,5
922,0,5,2921,-4,5
923,-1,5,2922,-3,5
924,-1,5,2923,-3,5
925,0,5,2924,-2,5
926,1,5,2925,-2,5
927,1,5,2926,-3,5
928,1,5,2927,-3,5
929,1,5,2928,-3,5
930,1,5,2929,-2,5
931,-1,5,2930,-3,5
932,0,5,2931,-2,5
933,-1,5,2932,-2,5
934,-3,5,2933,-3,5
935,-5,5,2934,-5,5
936,-5,5,2935,-5,5
937,-5,5,2936,-4,5
938,-3,5,2937,-2,5
939,-1,5,2938,-1,5
940,0,5,2939,0,5
941,2,5,2940,0,5
942,1,5,2941,-1,5
943,0,5,2942,-1,5
944,-1,5,2943,-2,5
945,-1,5,2944,-3,5
946,-2,5,2945,-2,5
947,-2,5,2946,-2,5
948,-2,5,2947,-1,5
949,0,5,2948,0,5
950,-1,5,2949,1,5
951,-2,5,2950,2,5
952,-4,5,2951,1,5
953,-6,5,2952,-1,5
954,-6,5,2953,-1,5
955,-6,5,2954,-3,5
956,-5,5,2955,-4,5
957,-4,5,2956,-3,5
958,-4,5,2957,-1,5
959,-4,5,2958,-2,5
960,-4,5,2959,-2,5
961,-4,5,2960,-2,5
962,-3,5,2961,-1,5
963,-5,5,2962,-1,5
964,-5,5,2963,-1,5
965,-5,5,2964,-1,5
966,-4,5,2965,-4,5
967,-3,5,2966,-4,5
968,-3,5,2967,-4,5
969,-2,5,2968,-4,5
970,-2,5,2969,-3,5
971,-3,5,2970,-3,5
972,-3,5,2971,-3,5
973,-6,5,2972,-2,5
974,-7,5,2973,-2,5
975,-6,5,2974,-2,5
976,-5,5,2975,-5,5
977,-3,5,2976,-5,5
978,-3,5,2977,-4,5
979,-3,5,2978,-5,5
980,-4,5,2979,-6,5
981,-5,5,2980,-6,5
982,-4,5,2981,-4,5
983,-5,5,2982,-3,5
984,-6,5,2983,-3,5
985,-6,5,2984,-4,5
986,-7,5,2985,-5,5
987,-7,5,2986,-5,5
988,-7,5,2987,-5,5
989,-6,5,2988,-6,5
990,-5,5,2989,-6,5
991,-6,5,2990,-6,5
992,-5,5,2991,-4,5
993,-6,5,2992,-4,5
994,-6,5,2993,-4,5
995,-6,5,2994,-4,5
996,-6,5,2995,-4,5
997,-6,5,2996,-6,5
998,-6,5,2997,-6,5
999,-6,5,2998,-6,5
1000,-5,5,2999,-7,5
1001,-5,5,3000,-6,5
1002,-3,5,3001,-6,5
1003,-4,5,3002,-6,5
1004,-4,5,3003,-5,5
1005,-5,5,3004,-4,5
1006,-5,5,3005,-4,5
1007,-6,5,3006,-3,5
1008,-6,5,3007,-3,5
1009,-5,5,3008,-4,5
1010,-5,5,3009,-4,5
1011,-5,5,3010,-4,5
1012,-6,5,3011,-5,5
1013,-7,5,3012,-4,5
1014,-7,5,3013,-5,5
1015,-6,5,3014,-5,5
1016,-6,5,3015,-6,5
1017,-7,5,3016,-7,5
1018,-7,5,3017,-7,5
1019,-7,5,3018,-7,5
1020,-6,5,3019,-8,5
1021,-6,5,3020,-8,5
1022,-7,5,3021,-8,5
1023,-7,5,3022,-6,5
1024,-7,5,3023,-6,5
1025,-7,5,3024,-7,5
1026,-6,5,3025,-7,5
1027,-5,5,3026,-7,5
1028,-6,5,3027,-8,5
1029,-6,5,3028,-5,5
1030,-7,5,3029,-4,5
1031,-8,5,3030,-4,5
1032,-8,5,3031,-3,5
1033,-8,5,3032,-4,5
1034,-8,5,3033,-7,5
1035,-9,5,3034,-8,5
1036,-8,5,3035,-8,5
1037,-9,5,3036,-8,5
1038,-8,5,3037,-8,5
1039,-9,5,3038,-6,5
1040,-8,5,3039,-4,5
1041,-8,5,3040,-4,5
1042,-9,5,3041,-7,5
1043,-9,5,3042,-8,5
1044,-8,5,3043,-9,5
1045,-7,5,3044,-8,5
1046,-7,5,3045,-8,5
1047,-7,5,3046,-8,5
1048,-6,5,3047,-6,5
1049,-6,5,3048,-6,5
1050,-8,5,3049,-6,5
1051,-8,5,3050,-6,5
1052,-9,5,3051,-7,5
1053,-9,5,3052,-6,5
1054,-10,5,3053,-7,5
1055,-10,5,3054,-6,5
1056,-8,5,3055,-5,5
1057,-7,5,3056,-4,5
1058,-7,5,3057,-3,5
1059,-8,5,3058,-3,5
1060,-8,5,3059,-4,5
1061,-9,5,3060,-6,5
1062,-10,5,3061,-6,5
1063,-9,5,3062,-6,5
1064,-9,5,3063,-5,5
1065,-8,5,3064,-7,5
1066,-7,5,3065,-7,5
1067,-7,5,3066,-7,5
1068,-6,5,3067,-9,5
1069,-7,5,3068,-9,5
1070,-8,5,3069,-7,5
1071,-8,5,3070,-4,5
1072,-8,5,3071,-4,5
1073,-6,5,3072,-4,5
1074,-6,5,3073,-4,5
1075,-6,5,3074,-7,5
1076,-5,5,3075,-7,5
1077,-5,5,3076,-6,5
1078,-4,5,3077,-6,5
1079,-4,5,3078,-7,5
1080,-4,5,3079,-6,5
1081,-3,5,3080,-4,5
1082,-1,5,3081,-3,5
1083,1,5,3082,-5,5
1084,3,5,3083,-8,5
1085,5,5,3084,-7,5
1086,6,5,3085,-8,5
1087,5,5,3086,-8,5
1088,4,5,3087,-7,5
1089,5,5,3088,-7,5
1090,7,5,3089,-8,5
1091,9,5,3090,-7,5
1092,12,5,3091,-6,5
1093,17,5,3092,-7,5
1094,20,5,3093,-8,5
1095,22,5,3094,-7,5
1096,24,5,3095,-7,5
1097,24,5,3096,-7,5
1098,23,5,3097,-7,5
1099,23,5,3098,-8,5
1100,23,5,3099,-7,5
1101,22,5,3100,-6,5
1102,23,5,3101,-6,5
1103,25,5,3102,-6,5
1104,25,5,3103,-6,5
1105,24,5,3104,-6,5
1106,24,5,3105,-6,5
1107,22,5,3106,-6,5
1108,21,5,3107,-7,5
1109,20,5,3108,-6,5
1110,17,5,3109,-5,5
1111,14,5,3110,-5,5
1112,9,5,3111,-4,5
1113,6,5,3112,-3,5
1114,3,5,3113,-1,5
1115,-3,5,3114,-1,5
1116,-5,5,3115,-1,5
1117,-8,5,3116,-1,5
1118,-9,5,3117,0,5
1119,-11,5,3118,2,5
1120,-13,5,3119,3,5
1121,-15,5,3120,5,5
1122,-15,5,3121,5,5
1123,-15,5,3122,6,5
1124,-14,5,3123,6,5
1125,-12,5,3124,4,5
1126,-12,5,3125,3,5
1127,-12,5,3126,5,5
1128,-13,5,3127,8,5
1129,-14,5,3128,9,5
1130,-14,5,3129,10,5
1131,-15,5,3130,12,5
1132,-15,5,3131,14,5
1133,-15,5,3132,16,5
1134,-15,5,3133,18,5
1135,-15,5,3134,17,5
1136,-15,5,3135,17,5
1137,-15,5,3136,15,5
1138,-15,5,3137,16,5
1139,-15,5,3138,15,5
1140,-15,5,3139,14,5
1141,-15,5,3140,15,5
1142,-15,5,3141,14,5
1143,-15,5,3142,13,5
1144,-15,5,3143,12,5
1145,-15,5,3144,8,5
1146,-15,5,3145,3,5
1147,-15,5,3146,0,5
1148,-15,5,3147,-1,5
1149,-15,5,3148,0,5
1150,-15,5,3149,0,5
1151,-15,5,3150,1,5
1152,-15,5,3151,1,5
1153,-15,5,3152,0,5
1154,-15,5,3153,-2,5
1155,-15,5,3154,-2,5
1156,-15,5,3155,-3,5
1157,-15,5,3156,-5,5
1158,-14,5,3157,-5,5
1159,-8,5,3158,-6,5
1160,0,5,3159,-7,5
1161,9,5,3160,-6,5
1162,20,5,3161,-7,5
1163,34,5,3162,-9,5
1164,52,5,3163,-10,5
1165,54,5,3164,-11,5
1166,54,5,3165,-13,5
1167,54,5,3166,-14,5
1168,54,5,3167,-14,5
1169,54,5,3168,-13,5
1170,54,5,3169,-12,5
1171,54,5,3170,-13,5
1172,54,5,3171,-12,5
1173,54,5,3172,-13,5
1174,41,5,3173,-14,5
1175,13,5,3174,-15,5
1176,-9,5,3175,-15,5
1177,-15,5,3176,-15,5
1178,-15,5,3177,-15,5
1179,-15,5,3178,-15,5
1180,-15,5,3179,-15,5
1181,-15,5,3180,-14,5
1182,-15,5,3181,-14,5
1183,-15,5,3182,-15,5
1184,-15,5,3183,-14,5
1185,-15,5,3184,-14,5
1186,-15,5,3185,-14,5
1187,-15,5,3186,-14,5
1188,-15,5,3187,-15,5
1189,-15,5,3188,-14,5
1190,-14,5,3189,-15,5
1191,-13,5,3190,-13,5
1192,-12,5,3191,-12,5
1193,-11,5,3192,-12,5
1194,-13,5,3193,-12,5
1195,-13,5,3194,-12,5
1196,-13,5,3195,-9,5
1197,-12,5,3196,-2,5
1198,-12,5,3197,6,5
1199,-11,5,3198,14,5
1200,-11,5,3199,25,5
1201,-11,5,3200,39,5
1202,-12,5,3201,54,5
1203,-12,5,3202,54,5
1204,-11,5,3203,54,5
1205,-11,5,3204,54,5
1206,-12,5,3205,54,5
1207,-13,5,3206,54,5
1208,-11,5,3207,54,5
1209,-9,5,3208,54,5
1210,-10,5,3209,54,5
1211,-10,5,3210,54,5
1212,-10,5,3211,51,5
1213,-11,5,3212,29,5
1214,-12,5,3213,9,5
1215,-13,5,3214,-7,5
1216,-13,5,3215,-14,5
1217,-12,5,3216,-15,5
1218,-9,5,3217,-15,5
1219,-8,5,3218,-15,5
1220,-8,5,3219,-15,5
1221,-9,5,3220,-15,5
1222,-12,5,3221,-15,5
1223,-14,5,3222,-15,5
1224,-14,5,3223,-15,5
1225,-13,5,3224,-12,5
1226,-13,5,3225,-10,5
1227,-10,5,3226,-5,5
1228,-10,5,3227,-4,5
1229,-10,5,3228,-3,5
1230,-9,5,3229,-4,5
1231,-10,5,3230,-5,5
1232,-11,5,3231,-7,5
1233,-13,5,3232,-8,5
1234,-11,5,3233,-7,5
1235,-10,5,3234,-7,5
1236,-9,5,3235,-6,5
1237,-8,5,3236,-5,5
1238,-7,5,3237,-3,5
1239,-9,5,3238,-4,5
1240,-9,5,3239,-4,5
1241,-12,5,3240,-6,5
1242,-13,5,3241,-7,5
1243,-13,5,3242,-6,5
1244,-13,5,3243,-6,5
1245,-12,5,3244,-7,5
1246,-11,5,3245,-8,5
1247,-10,5,3246,-8,5
1248,-10,5,3247,-7,5
1249,-12,5,3248,-7,5
1250,-12,5,3249,-6,5
1251,-12,5,3250,-5,5
1252,-10,5,3251,-5,5
1253,-8,5,3252,-4,5
1254,-8,5,3253,-2,5
1255,-7,5,3254,-1,5
1256,-6,5,3255,-3,5
1257,-8,5,3256,-6,5
1258,-8,5,3257,-5,5
1259,-9,5,3258,-4,5
1260,-9,5,3259,-3,5
1261,-10,5,3260,-3,5
1262,-11,5,3261,-3,5
1263,-10,5,3262,-3,5
1264,-10,5,3263,-2,5
1265,-9,5,3264,-3,5
1266,-9,5,3265,-3,5
1267,-8,5,3266,-3,5
1268,-7,5,3267,-3,5
1269,-7,5,3268,-2,5
1270,-4,5,3269,-2,5
1271,-3,5,3270,-1,5
1272,-3,5,3271,-1,5
1273,-2,5,3272,-1,5
1274,-4,5,3273,-1,5
1275,-5,5,3274,-1,5
1276,-5,5,3275,-1,5
1277,-5,5,3276,1,5
1278,-5,5,3277,2,5
1279,-5,5,3278,1,5
1280,-4,5,3279,1,5
1281,-4,5,3280,1,5
1282,-5,5,3281,0,5
1283,-3,5,3282,-1,5
1284,-2,5,3283,-1,5
1285,-1,5,3284,-3,5
1286,-2,5,3285,-4,5
1287,-2,5,3286,-4,5
1288,-2,5,3287,-2,5
1289,-3,5,3288,-1,5
1290,-2,5,3289,1,5
1291,-1,5,3290,2,5
1292,-1,5,3291,3,5
1293,-1,5,3292,3,5
1294,0,5,3293,3,5
1295,1,5,3294,2,5
1296,2,5,3295,2,5
1297,3,5,3296,2,5
1298,3,5,3297,3,5
1299,3,5,3298,2,5
1300,3,5,3299,2,5
1301,1,5,3300,3,5
1302,1,5,3301,4,5
1303,2,5,3302,3,5
1304,4,5,3303,2,5
1305,6,5,3304,1,5
1306,6,5,3305,0,5
1307,7,5,3306,2,5
1308,7,5,3307,3,5
1309,7,5,3308,4,5
1310,5,5,3309,4,5
1311,5,5,3310,6,5
1312,4,5,3311,9,5
1313,4,5,3312,9,5
1314,6,5,3313,9,5
1315,7,5,3314,7,5
1316,10,5,3315,7,5
1317,10,5,3316,7,5
1318,10,5,3317,9,5
1319,9,5,3318,9,5
1320,9,5,3319,10,5
1321,10,5,3320,10,5
1322,10,5,3321,9,5
1323,10,5,3322,11,5
1324,10,5,3323,9,5
1325,10,5,3324,10,5
1326,11,5,3325,11,5
1327,11,5,3326,10,5
1328,11,5,3327,10,5
1329,12,5,3328,12,5
1330,11,5,3329,13,5
1331,10,5,3330,15,5
1332,9,5,3331,17,5
1333,7,5,3332,17,5
1334,6,5,3333,18,5
1335,5,5,3334,20,5
1336,4,5,3335,20,5
1337,1,5,3336,20,5
1338,0,5,3337,20,5
1339,0,5,3338,22,5
1340,-1,5,3339,22,5
1341,-1,5,3340,22,5
1342,-2,5,3341,23,5
1343,-2,5,3342,23,5
1344,-3,5,3343,24,5
1345,-3,5,3344,23,5
1346,-4,5,3345,23,5
1347,-4,5,3346,26,5
1348,-5,5,3347,27,5
1349,-5,5,3348,28,5
1350,-5,5,3349,27,5
1351,-6,5,3350,28,5
1352,-5,5,3351,27,5
1353,-5,5,3352,29,5
1354,-6,5,3353,29,5
1355,-7,5,3354,29,5
1356,-8,5,3355,29,5
1357,-9,5,3356,30,5
1358,-9,5,3357,31,5
1359,-8,5,3358,30,5
1360,-7,5,3359,29,5
1361,-6,5,3360,29,5
1362,-6,5,3361,27,5
1363,-6,5,3362,26,5
1364,-6,5,3363,25,5
1365,-9,5,3364,24,5
1366,-11,5,3365,24,5
1367,-12,5,3366,23,5
1368,-11,5,3367,22,5
1369,-11,5,3368,20,5
1370,-9,5,3369,17,5
1371,-7,5,3370,16,5
1372,-4,5,3371,15,5
1373,-3,5,3372,11,5
1374,-4,5,3373,8,5
1375,-9,5,3374,8,5
1376,-10,5,3375,8,5
1377,-11,5,3376,8,5
1378,-11,5,3377,6,5
1379,-11,5,3378,5,5
1380,-11,5,3379,5,5
1381,-8,5,3380,5,5
1382,-7,5,3381,5,5
1383,-5,5,3382,4,5
1384,-4,5,3383,0,5
1385,-6,5,3384,-3,5
1386,-7,5,3385,-2,5
1387,-8,5,3386,-3,5
1388,-9,5,3387,-4,5
1389,-7,5,3388,-4,5
1390,-5,5,3389,-5,5
1391,-5,5,3390,-4,5
1392,-4,5,3391,-2,5
1393,-2,5,3392,-2,5
1394,-2,5,3393,-2,5
1395,-2,5,3394,-3,5
1396,-3,5,3395,-4,5
1397,-4,5,3396,-5,5
1398,-3,5,3397,-5,5
1399,-2,5,3398,-5,5
1400,-1,5,3399,-5,5
1401,-2,5,3400,-3,5
1402,-3,5,3401,-3,5
1403,-3,5,3402,-3,5
1404,-3,5,3403,-4,5
1405,-3,5,3404,-6,5
1406,-5,5,3405,-7,5
1407,-6,5,3406,-7,5
1408,-6,5,3407,-5,5
1409,-5,5,3408,-4,5
1410,-4,5,3409,-5,5
1411,-4,5,3410,-4,5
1412,-2,5,3411,-3,5
1413,-1,5,3412,-4,5
1414,-1,5,3413,-4,5
1415,-1,5,3414,-5,5
1416,-2,5,3415,-3,5
1417,-2,5,3416,-4,5
1418,-1,5,3417,-5,5
1419,-1,5,3418,-6,5
1420,-2,5,3419,-6,5
1421,0,5,3420,-4,5
1422,0,5,3421,-5,5
1423,0,5,3422,-7,5
1424,1,5,3423,-7,5
1425,0,5,3424,-8,5
1426,-1,5,3425,-6,5
1427,-1,5,3426,-5,5
1428,-2,5,3427,-4,5
1429,-2,5,3428,-2,5
1430,-3,5,3429,-2,5
1431,-2,5,3430,-2,5
1432,-2,5,3431,-2,5
1433,-3,5,3432,-3,5
1434,-4,5,3433,-3,5
1435,-5,5,3434,-3,5
1436,-5,5,3435,-2,5
1437,-3,5,3436,-3,5
1438,-3,5,3437,-2,5
1439,-3,5,3438,-1,5
1440,-3,5,3439,-2,5
1441,-2,5,3440,-3,5
1442,-3,5,3441,-2,5
1443,-3,5,3442,-1,5
1444,-4,5,3443,-1,5
1445,-5,5,3444,-1,5
1446,-4,5,3445,0,5
1447,-4,5,3446,2,5
1448,-5,5,3447,2,5
1449,-5,5,3448,3,5
1450,-5,5,3449,4,5
1451,-5,5,3450,3,5
1452,-5,5,3451,3,5
1453,-6,5,3452,1,5
1454,-7,5,3453,1,5
1455,-8,5,3454,2,5
1456,-7,5,3455,2,5
1457,-6,5,3456,2,5
1458,-6,5,3457,2,5
1459,-4,5,3458,2,5
1460,-4,5,3459,3,5
1461,-3,5,3460,2,5
1462,-4,5,3461,1,5
1463,-4,5,3462,1,5
1464,-4,5,3463,1,5
1465,-4,5,3464,1,5
1466,-4,5,3465,1,5
1467,-5,5,3466,2,5
1468,-5,5,3467,2,5
1469,-6,5,3468,2,5
1470,-6,5,3469,2,5
1471,-7,5,3470,2,5
1472,-6,5,3471,1,5
1473,-5,5,3472,3,5
1474,-5,5,3473,4,5
1475,-4,5,3474,4,5
1476,-4,5,3475,2,5
1477,-5,5,3476,0,5
1478,-7,5,3477,0,5
1479,-8,5,3478,-1,5
1480,-9,5,3479,0,5
1481,-9,5,3480,-1,5
1482,-8,5,3481,-1,5
1483,-7,5,3482,-2,5
1484,-5,5,3483,-1,5
1485,-6,5,3484,-1,5
1486,-4,5,3485,-1,5
1487,-5,5,3486,0,5
1488,-5,5,3487,-1,5
1489,-5,5,3488,-4,5
1490,-5,5,3489,-3,5
1491,-6,5,3490,-4,5
1492,-7,5,3491,-3,5
1493,-6,5,3492,-3,5
1494,-6,5,3493,-3,5
1495,-5,5,3494,-2,5
1496,-6,5,3495,-3,5
1497,-6,5,3496,-2,5
1498,-5,5,3497,-2,5
1499,-5,5,3498,-2,5
1500,-6,5,3499,-3,5
1501,-8,5,3500,-3,5
1502,-10,5,3501,-4,5
1503,-9,5,3502,-4,5
1504,-8,5,3503,-6,5
1505,-6,5,3504,-4,5
1506,-6,5,3505,-3,5
1507,-4,5,3506,-3,5
1508,-3,5,3507,-3,5
1509,-4,5,3508,-2,5
1510,-6,5,3509,-1,5
1511,-8,5,3510,-3,5
1512,-9,5,3511,-4,5
1513,-9,5,3512,-5,5
1514,-8,5,3513,-6,5
1515,-8,5,3514,-6,5
1516,-7,5,3515,-5,5
1517,-7,5,3516,-5,5
1518,-7,5,3517,-6,5
1519,-7,5,3518,-5,5
1520,-7,5,3519,-5,5
1521,-8,5,3520,-4,5
1522,-8,5,3521,-5,5
1523,-8,5,3522,-7,5
1524,-8,5,3523,-7,5
1525,-8,5,3524,-8,5
1526,-7,5,3525,-8,5
1527,-6,5,3526,-7,5
1528,-5,5,3527,-6,5
1529,-6,5,3528,-7,5
1530,-6,5,3529,-9,5
1531,-7,5,3530,-9,5
1532,-7,5,3531,-8,5
1533,-7,5,3532,-7,5
1534,-6,5,3533,-7,5
1535,-9,5,3534,-6,5
1536,-10,5,3535,-5,5
1537,-9,5,3536,-5,5
1538,-9,5,3537,-6,5
1539,-10,5,3538,-7,5
1540,-8,5,3539,-7,5
1541,-8,5,3540,-8,5
1542,-7,5,3541,-8,5
1543,-7,5,3542,-8,5
1544,-7,5,3543,-8,5
1545,-8,5,3544,-9,5
1546,-8,5,3545,-9,5
1547,-9,5,3546,-8,5
1548,-9,5,3547,-7,5
1549,-9,5,3548,-7,5
1550,-9,5,3549,-5,5
1551,-8,5,3550,-5,5
1552,-5,5,3551,-5,5
1553,-7,5,3552,-6,5
1554,-10,5,3553,-6,5
1555,-11,5,3554,-7,5
1556,-11,5,3555,-7,5
1557,-12,5,3556,-6,5
1558,-12,5,3557,-5,5
1559,-12,5,3558,-5,5
1560,-12,5,3559,-5,5
1561,-11,5,3560,-5,5
1562,-10,5,3561,-6,5
1563,-10,5,3562,-8,5
1564,-10,5,3563,-7,5
1565,-10,5,3564,-8,5
1566,-11,5,3565,-9,5
1567,-12,5,3566,-8,5
1568,-11,5,3567,-6,5
1569,-10,5,3568,-5,5
1570,-9,5,3569,-3,5
1571,-8,5,3570,-5,5
1572,-7,5,3571,-6,5
1573,-7,5,3572,-7,5
1574,-7,5,3573,-8,5
1575,-7,5,3574,-9,5
1576,-8,5,3575,-11,5
1577,-8,5,3576,-10,5
1578,-7,5,3577,-7,5
1579,-6,5,3578,-6,5
1580,-6,5,3579,-6,5
1581,-5,5,3580,-7,5
1582,-3,5,3581,-7,5
1583,0,5,3582,-8,5
1584,2,5,3583,-8,5
1585,2,5,3584,-8,5
1586,2,5,3585,-8,5
1587,2,5,3586,-7,5
1588,1,5,3587,-7,5
1589,1,5,3588,-6,5
1590,1,5,3589,-6,5
1591,3,5,3590,-6,5
1592,6,5,3591,-4,5
1593,9,5,3592,-4,5
1594,10,5,3593,-7,5
1595,12,5,3594,-8,5
1596,14,5,3595,-9,5
1597,16,5,3596,-8,5
1598,15,5,3597,-6,5
1599,12,5,3598,-6,5
1600,11,5,3599,-6,5
1601,10,5,3600,-7,5
1602,12,5,3601,-7,5
1603,13,5,3602,-9,5
1604,13,5,3603,-9,5
1605,13,5,3604,-9,5
1606,13,5,3605,-7,5
1607,11,5,3606,-6,5
1608,9,5,3607,-6,5
1609,5,5,3608,-5,5
1610,2,5,3609,-5,5
1611,1,5,3610,-7,5
1612,1,5,3611,-9,5
1613,0,5,3612,-11,5
1614,-1,5,3613,-10,5
1615,-1,5,3614,-8,5
1616,-2,5,3615,-6,5
1617,-1,5,3616,-4,5
1618,-4,5,3617,-4,5
1619,-6,5,3618,-3,5
1620,-7,5,3619,-5,5
1621,-7,5,3620,-8,5
1622,-7,5,3621,-11,5
1623,-8,5,3622,-12,5
1624,-9,5,3623,-12,5
1625,-8,5,3624,-10,5
1626,-9,5,3625,-8,5
1627,-10,5,3626,-4,5
1628,-12,5,3627,-4,5
1629,-13,5,3628,-2,5
1630,-14,5,3629,-2,5
1631,-15,5,3630,-3,5
1632,-15,5,3631,-5,5
1633,-15,5,3632,-4,5
1634,-15,5,3633,-3,5
1635,-15,5,3634,-1,5
1636,-14,5,3635,0,5
1637,-13,5,3636,0,5
1638,-13,5,3637,2,5
1639,-15,5,3638,4,5
1640,-15,5,3639,5,5
1641,-15,5,3640,4,5
1642,-15,5,3641,3,5
1643,-15,5,3642,4,5
1644,-15,5,3643,5,5
1645,-15,5,3644,8,5
1646,-15,5,3645,9,5
1647,-15,5,3646,11,5
1648,-15,5,3647,13,5
1649,-15,5,3648,14,5
1650,-15,5,3649,13,5
1651,-15,5,3650,12,5
1652,-15,5,3651,11,5
1653,-15,5,3652,12,5
1654,-15,5,3653,14,5
1655,-15,5,3654,13,5
1656,-15,5,3655,13,5
1657,-15,5,3656,12,5
1658,-15,5,3657,11,5
1659,-12,5,3658,9,5
1660,-8,5,3659,7,5
1661,0,5,3660,6,5
1662,8,5,3661,4,5
1663,20,5,3662,3,5
1664,32,5,3663,1,5
1665,50,5,3664,-1,5
1666,54,5,3665,-3,5
1667,54,5,3666,-5,5
1668,54,5,3667,-6,5
1669,54,5,3668,-6,5
1670,54,5,3669,-5,5
1671,54,5,3670,-6,5
1672,54,5,3671,-8,5
1673,54,5,3672,-8,5
1674,54,5,3673,-9,5
1675,51,5,3674,-9,5
1676,26,5,3675,-11,5
1677,3,5,3676,-11,5
1678,-14,5,3677,-12,5
1679,-15,5,3678,-13,5
1680,-15,5,3679,-15,5
1681,-15,5,3680,-15,5
1682,-15,5,3681,-15,5
1683,-15,5,3682,-15,5
1684,-15,5,3683,-15,5
1685,-15,5,3684,-15,5
1686,-15,5,3685,-15,5
1687,-15,5,3686,-15,5
1688,-15,5,3687,-15,5
1689,-14,5,3688,-15,5
1690,-11,5,3689,-15,5
1691,-9,5,3690,-15,5
1692,-8,5,3691,-15,5
1693,-9,5,3692,-15,5
1694,-7,5,3693,-15,5
1695,-7,5,3694,-15,5
1696,-8,5,3695,-15,5
1697,-10,5,3696,-15,5
1698,-11,5,3697,-15,5
1699,-10,5,3698,-15,5
1700,-9,5,3699,-15,5
1701,-8,5,3700,-15,5
1702,-5,5,3701,-15,5
1703,-5,5,3702,-15,5
1704,-2,5,3703,-15,5
1705,-4,5,3704,-15,5
1706,-7,5,3705,-15,5
1707,-8,5,3706,-15,5
1708,-9,5,3707,-15,5
1709,-10,5,3708,-15,5
1710,-10,5,3709,-15,5
1711,-9,5,3710,-15,5
1712,-9,5,3711,-9,5
1713,-7,5,3712,-1,5
1714,-6,5,3713,8,5
1715,-5,5,3714,18,5
1716,-6,5,3715,32,5
1717,-8,5,3716,46,5
1718,-9,5,3717,54,5
1719,-8,5,3718,54,5
1720,-9,5,3719,54,5
1721,-8,5,3720,54,5
1722,-7,5,3721,54,5
1723,-6,5,3722,54,5
1724,-5,5,3723,54,5
1725,-6,5,3724,54,5
1726,-6,5,3725,54,5
1727,-4,5,3726,46,5
1728,-4,5,3727,20,5
1729,-3,5,3728,0,5
1730,-3,5,3729,-14,5
1731,-3,5,3730,-15,5
1732,-2,5,3731,-15,5
1733,-2,5,3732,-15,5
1734,-5,5,3733,-15,5
1735,-8,5,3734,-15,5
1736,-8,5,3735,-15,5
1737,-7,5,3736,-15,5
1738,-4,5,3737,-15,5
1739,-3,5,3738,-15,5
1740,-2,5,3739,-15,5
1741,-2,5,3740,-15,5
1742,-1,5,3741,-15,5
1743,0,5,3742,-12,5
1744,-1,5,3743,-9,5
1745,-2,5,3744,-8,5
1746,-1,5,3745,-9,5
1747,-1,5,3746,-11,5
1748,-1,5,3747,-11,5
1749,-3,5,3748,-11,5
1750,-2,5,3749,-11,5
1751,-1,5,3750,-12,5
1752,-2,5,3751,-12,5
1753,-1,5,3752,-13,5
1754,-1,5,3753,-11,5
1755,-4,5,3754,-11,5
1756,-4,5,3755,-10,5
1757,-5,5,3756,-8,5
1758,-4,5,3757,-8,5
1759,-3,5,3758,-8,5
1760,-3,5,3759,-9,5
1761,-2,5,3760,-9,5
1762,-2,5,3761,-7,5
1763,-3,5,3762,-8,5
1764,-3,5,3763,-10,5
1765,-2,5,3764,-11,5
1766,-1,5,3765,-11,5
1767,-1,5,3766,-11,5
1768,0,5,3767,-11,5
1769,0,5,3768,-9,5
1770,1,5,3769,-8,5
1771,2,5,3770,-7,5
1772,1,5,3771,-6,5
1773,0,5,3772,-7,5
1774,0,5,3773,-9,5
1775,1,5,3774,-10,5
1776,1,5,3775,-9,5
1777,1,5,3776,-9,5
1778,2,5,3777,-7,5
1779,2,5,3778,-8,5
1780,3,5,3779,-9,5
1781,3,5,3780,-9,5
1782,3,5,3781,-9,5
1783,5,5,3782,-10,5
1784,6,5,3783,-9,5
1785,6,5,3784,-9,5
1786,6,5,3785,-9,5
1787,7,5,3786,-11,5
1788,7,5,3787,-10,5
1789,7,5,3788,-11,5
1790,6,5,3789,-9,5
1791,8,5,3790,-8,5
1792,9,5,3791,-7,5
1793,10,5,3792,-7,5
1794,12,5,3793,-7,5
1795,12,5,3794,-7,5
1796,10,5,3795,-8,5
1797,10,5,3796,-9,5
1798,8,5,3797,-9,5
1799,9,5,3798,-9,5
1800,8,5,3799,-8,5
1801,10,5,3800,-8,5
1802,13,5,3801,-9,5
1803,15,5,3802,-8,5
1804,16,5,3803,-8,5
1805,17,5,3804,-7,5
1806,16,5,3805,-8,5
1807,17,5,3806,-10,5
1808,16,5,3807,-10,5
1809,15,5,3808,-9,5
1810,16,5,3809,-7,5
1811,19,5,3810,-6,5
1812,19,5,3811,-7,5
1813,21,5,3812,-8,5
1814,22,5,3813,-10,5
1815,22,5,3814,-11,5
1816,22,5,3815,-8,5
1817,21,5,3816,-8,5
1818,20,5,3817,-9,5
1819,22,5,3818,-9,5
1820,22,5,3819,-7,5
1821,21,5,3820,-7,5
1822,21,5,3821,-7,5
1823,21,5,3822,-5,5
1824,21,5,3823,-5,5
1825,20,5,3824,-5,5
1826,20,5,3825,-4,5
1827,20,5,3826,-2,5
1828,19,5,3827,-3,5
1829,18,5,3828,-4,5
1830,17,5,3829,-4,5
1831,17,5,3830,-4,5
1832,15,5,3831,-5,5
1833,13,5,3832,-5,5
1834,11,5,3833,-5,5
1835,10,5,3834,-5,5
1836,8,5,3835,-3,5
1837,7,5,3836,-1,5
1838,8,5,3837,0,5
1839,8,5,3838,0,5
1840,7,5,3839,0,5
1841,6,5,3840,1,5
1842,5,5,3841,-1,5
1843,4,5,3842,-1,5
1844,2,5,3843,-3,5
1845,0,5,3844,-3,5
1846,-2,5,3845,-1,5
1847,-3,5,3846,-1,5
1848,-3,5,3847,0,5
1849,-4,5,3848,1,5
1850,-4,5,3849,1,5
1851,-4,5,3850,1,5
1852,-5,5,3851,0,5
1853,-6,5,3852,0,5
1854,-7,5,3853,-1,5
1855,-8,5,3854,0,5
1856,-7,5,3855,-1,5
1857,-5,5,3856,1,5
1858,-4,5,3857,1,5
1859,-4,5,3858,3,5
1860,-5,5,3859,4,5
1861,-7,5,3860,4,5
1862,-8,5,3861,4,5
1863,-8,5,3862,4,5
1864,-8,5,3863,4,5
1865,-6,5,3864,3,5
1866,-5,5,3865,4,5
1867,-4,5,3866,5,5
1868,-4,5,3867,6,5
1869,-4,5,3868,7,5
1870,-5,5,3869,7,5
1871,-7,5,3870,8,5
1872,-10,5,3871,9,5
1873,-10,5,3872,8,5
1874,-12,5,3873,9,5
1875,-10,5,3874,9,5
1876,-8,5,3875,8,5
1877,-6,5,3876,8,5
1878,-5,5,3877,7,5
1879,-4,5,3878,7,5
1880,-6,5,3879,8,5
1881,-9,5,3880,9,5
1882,-10,5,3881,9,5
1883,-10,5,3882,9,5
1884,-10,5,3883,7,5
1885,-9,5,3884,5,5
1886,-6,5,3885,4,5
1887,-3,5,3886,3,5
1888,0,5,3887,1,5
1889,0,5,3888,1,5
1890,-1,5,3889,1,5
1891,-4,5,3890,1,5
1892,-4,5,3891,1,5
1893,-7,5,3892,1,5
1894,-9,5,3893,0,5
1895,-7,5,3894,-2,5
1896,-5,5,3895,-3,5
1897,-4,5,3896,-4,5
1898,-3,5,3897,-4,5
1899,-2,5,3898,-3,5
1900,-3,5,3899,-3,5
1901,-3,5,3900,-4,5
1902,-3,5,3901,-6,5
1903,-5,5,3902,-7,5
1904,-5,5,3903,-6,5
1905,-4,5,3904,-7,5
1906,-2,5,3905,-7,5
1907,-1,5,3906,-9,5
1908,0,5,3907,-9,5
1909,1,5,3908,-10,5
1910,2,5,3909,-11,5
1911,2,5,3910,-11,5
1912,1,5,3911,-11,5
1913,-1,5,3912,-10,5
1914,-1,5,3913,-11,5
1915,-2,5,3914,-11,5
1916,-1,5,3915,-10,5
1917,-1,5,3916,-9,5
1918,0,5,3917,-9,5
1919,0,5,3918,-10,5
1920,-1,5,3919,-11,5
1921,-1,5,3920,-12,5
1922,-2,5,3921,-11,5
1923,-1,5,3922,-12,5
1924,-2,5,3923,-12,5
1925,0,5,3924,-12,5
1926,0,5,3925,-10,5
1927,-2,5,3926,-10,5
1928,0,5,3927,-9,5
1929,-1,5,3928,-10,5
1930,1,5,3929,-10,5
1931,0,5,3930,-11,5
1932,0,5,3931,-11,5
1933,-1,5,3932,-11,5
1934,-3,5,3933,-10,5
1935,-4,5,3934,-9,5
1936,-4,5,3935,-6,5
1937,-4,5,3936,-6,5
1938,-3,5,3937,-7,5
1939,-2,5,3938,-9,5
1940,-3,5,3939,-9,5
1941,-2,5,3940,-10,5
1942,0,5,3941,-7,5
1943,0,5,3942,-6,5
1944,-1,5,3943,-7,5
1945,-1,5,3944,-7,5
1946,-3,5,3945,-8,5
1947,-3,5,3946,-8,5
1948,-3,5,3947,-9,5
1949,-3,5,3948,-9,5
1950,-3,5,3949,-9,5
1951,-2,5,3950,-10,5
1952,-2,5,3951,-9,5
1953,-4,5,3952,-7,5
1954,-5,5,3953,-7,5
1955,-6,5,3954,-5,5
1956,-9,5,3955,-3,5
1957,-9,5,3956,-3,5
1958,-7,5,3957,-4,5
1959,-6,5,3958,-5,5
1960,-5,5,3959,-5,5
1961,-3,5,3960,-6,5
1962,-3,5,3961,-7,5
1963,-3,5,3962,-6,5
1964,-5,5,3963,-4,5
1965,-7,5,3964,-4,5
1966,-7,5,3965,-4,5
1967,-7,5,3966,-4,5
1968,-7,5,3967,-3,5
1969,-7,5,3968,-4,5
1970,-6,5,3969,-4,5
1971,-4,5,3970,-3,5
1972,-3,5,3971,-3,5
1973,-4,5,3972,-4,5
1974,-5,5,3973,-4,5
1975,-6,5,3974,-4,5
1976,-6,5,3975,-5,5
1977,-7,5,3976,-4,5
1978,-8,5,3977,-4,5
1979,-8,5,3978,-2,5
1980,-8,5,3979,-2,5
1981,-6,5,3980,-2,5
1982,-6,5,3981,-2,5
1983,-6,5,3982,-2,5
1984,-6,5,3983,-3,5
1985,-6,5,3984,-5,5
1986,-7,5,3985,-4,5
1987,-8,5,3986,-5,5
1988,-8,5,3987,-5,5
1989,-6,5,3988,-4,5
1990,-6,5,3989,-3,5
1991,-5,5,3990,-4,5
1992,-5,5,3991,-4,5
1993,-5,5,3992,-4,5
1994,-5,5,3993,-5,5
1995,-8,5,3994,-6,5
1996,-8,5,3995,-6,5
1997,-10,5,3996,-5,5
1998,-8,5,3997,-4,5
1999,-9,5,3998,-4,5
2000,-9,5,3999,-4,5
2001,-8,5,4000,-4,5
2002,-8,5,4001,-5,5
2003,-7,5,4002,-6,5
2004,-8,5,4003,-8,5
2005,-7,5,4004,-8,5
2006,-7,5,4005,-10,5
2007,-6,5,4006,-11,5
2008,-6,5,4007,-10,5
2009,-7,5,4008,-9,5
2010,-9,5,4009,-7,5
2011,-8,5,4010,-4,5
2012,-7,5,4011,-3,5
2013,-8,5,4012,-3,5
2014,-8,5,4013,-3,5
2015,-8,5,4014,-4,5
2016,-8,5,4015,-5,5
2017,-7,5,4016,-5,5
2018,-7,5,4017,-6,5
2019,-7,5,4018,-8,5
2020,-8,5,4019,-10,5
2021,-8,5,4020,-8,5
2022,-8,5,4021,-8,5
2023,-9,5,4022,-7,5
2024,-10,5,4023,-5,5
2025,-9,5,4024,-7,5
2026,-8,5,4025,-6,5
2027,-8,5,4026,-5,5
2028,-6,5,4027,-7,5
2029,-6,5,4028,-9,5
2030,-5,5,4029,-8,5
2031,-6,5,4030,-7,5
2032,-8,5,4031,-5,5
2033,-10,5,4032,-4,5
2034,-12,5,4033,-5,5
2035,-12,5,4034,-8,5
2036,-13,5,4035,-9,5
2037,-11,5,4036,-10,5
2038,-9,5,4037,-9,5
2039,-7,5,4038,-10,5
2040,-6,5,4039,-9,5
2041,-5,5,4040,-8,5
2042,-7,5,4041,-5,5
2043,-8,5,4042,-4,5
2044,-9,5,4043,-6,5
2045,-10,5,4044,-7,5
2046,-11,5,4045,-7,5
2047,-10,5,4046,-8,5
2048,-10,5,4047,-11,5
2049,-10,5,4048,-12,5
2050,-10,5,4049,-10,5
2051,-9,5,4050,-9,5
2052,-7,5,4051,-8,5
2053,-7,5,4052,-8,5
2054,-10,5,4053,-7,5
2055,-12,5,4054,-7,5
2056,-13,5,4055,-9,5
2057,-14,5,4056,-10,5
2058,-12,5,4057,-10,5
2059,-10,5,4058,-9,5
2060,-9,5,4059,-8,5
2061,-7,5,4060,-8,5
2062,-7,5,4061,-9,5
2063,-8,5,4062,-7,5
2064,-9,5,4063,-6,5
2065,-9,5,4064,-6,5
2066,-10,5,4065,-8,5
2067,-8,5,4066,-8,5
2068,-8,5,4067,-10,5
2069,-8,5,4068,-9,5
2070,-7,5,4069,-8,5
2071,-6,5,4070,-8,5
2072,-7,5,4071,-9,5
2073,-8,5,4072,-10,5
2074,-8,5,4073,-8,5
2075,-10,5,4074,-8,5
2076,-10,5,4075,-8,5
2077,-10,5,4076,-8,5
2078,-9,5,4077,-7,5
2079,-8,5,4078,-7,5
2080,-9,5,4079,-7,5
2081,-8,5,4080,-8,5
2082,-9,5,4081,-9,5
2083,-9,5,4082,-7,5
2084,-8,5,4083,-8,5
2085,-7,5,4084,-8,5
2086,-7,5,4085,-8,5
2087,-8,5,4086,-9,5
2088,-7,5,4087,-9,5
2089,-8,5,4088,-10,5
2090,-8,5,4089,-11,5
2091,-10,5,4090,-10,5
2092,-9,5,4091,-10,5
2093,-10,5,4092,-9,5
2094,-9,5,4093,-8,5
2095,-7,5,4094,-6,5
2096,-6,5,4095,-6,5
2097,-3,5,4096,-6,5
2098,-1,5,4097,-6,5
2099,0,5,4098,-7,5
2100,1,5,4099,-8,5
2101,1,5,4100,-8,5
2102,2,5,4101,-9,5
2103,2,5,4102,-10,5
2104,2,5,4103,-9,5
2105,2,5,4104,-9,5
2106,3,5,4105,-9,5
2107,5,5,4106,-8,5
2108,7,5,4107,-9,5
2109,9,5,4108,-9,5
2110,10,5,4109,-7,5
2111,11,5,4110,-6,5
2112,11,5,4111,-7,5
2113,11,5,4112,-8,5
2114,12,5,4113,-8,5
2115,11,5,4114,-9,5
2116,13,5,4115,-8,5
2117,14,5,4116,-8,5
2118,13,5,4117,-7,5
2119,13,5,4118,-8,5
2120,13,5,4119,-8,5
2121,12,5,4120,-9,5
2122,9,5,4121,-9,5
2123,7,5,4122,-9,5
2124,7,5,4123,-7,5
2125,6,5,4124,-6,5
2126,5,5,4125,-7,5
2127,3,5,4126,-7,5
2128,0,5,4127,-8,5
2129,-3,5,4128,-8,5
2130,-7,5,4129,-9,5
2131,-8,5,4130,-8,5
2132,-7,5,4131,-8,5
2133,-6,5,4132,-8,5
2134,-5,5,4133,-6,5
2135,-4,5,4134,-4,5
2136,-4,5,4135,-4,5
2137,-5,5,4136,-3,5
2138,-7,5,4137,-2,5
2139,-8,5,4138,-2,5
2140,-12,5,4139,1,5
2141,-13,5,4140,1,5
2142,-15,5,4141,1,5
2143,-14,5,4142,1,5
2144,-15,5,4143,3,5
2145,-15,5,4144,4,5
2146,-15,5,4145,4,5
2147,-15,5,4146,3,5
2148,-15,5,4147,4,5
2149,-15,5,4148,7,5
2150,-15,5,4149,9,5
2151,-15,5,4150,10,5
2152,-15,5,4151,11,5
2153,-14,5,4152,12,5
2154,-13,5,4153,13,5
2155,-13,5,4154,14,5
2156,-15,5,4155,16,5
2157,-15,5,4156,16,5
2158,-15,5,4157,15,5
2159,-15,5,4158,15,5
2160,-15,5,4159,15,5
2161,-15,5,4160,13,5
2162,-15,5,4161,13,5
2163,-14,5,4162,13,5
2164,-14,5,4163,11,5
2165,-15,5,4164,9,5
2166,-14,5,4165,6,5
2167,-14,5,4166,6,5
2168,-13,5,4167,5,5
2169,-12,5,4168,2,5
2170,-13,5,4169,1,5
2171,-13,5,4170,-2,5
2172,-12,5,4171,-4,5
2173,-13,5,4172,-5,5
2174,-14,5,4173,-4,5
2175,-12,5,4174,-5,5
2176,-6,5,4175,-4,5
2177,1,5,4176,-5,5
2178,9,5,4177,-4,5
2179,20,5,4178,-5,5
2180,33,5,4179,-6,5
2181,51,5,4180,-9,5
2182,54,5,4181,-10,5
2183,54,5,4182,-11,5
2184,54,5,4183,-13,5
2185,54,5,4184,-14,5
2186,54,5,4185,-15,5
2187,54,5,4186,-15,5
2188,54,5,4187,-13,5
2189,54,5,4188,-11,5
2190,54,5,4189,-10,5
2191,52,5,4190,-12,5
2192,31,5,4191,-15,5
2193,10,5,4192,-15,5
2194,-7,5,4193,-15,5
2195,-14,5,4194,-14,5
2196,-15,5,4195,-14,5
2197,-15,5,4196,-15,5
2198,-15,5,4197,-15,5
2199,-15,5,4198,-14,5
2200,-15,5,4199,-15,5
2201,-15,5,4200,-15,5
2202,-15,5,4201,-15,5
2203,-13,5,4202,-15,5
2204,-11,5,4203,-14,5
2205,-10,5,4204,-14,5
2206,-8,5,4205,-14,5
2207,-7,5,4206,-14,5
2208,-7,5,4207,-13,5
2209,-6,5,4208,-14,5
2210,-8,5,4209,-15,5
2211,-7,5,4210,-15,5
2212,-6,5,4211,-15,5
2213,-6,5,4212,-15,5
2214,-7,5,4213,-15,5
2215,-8,5,4214,-12,5
2216,-9,5,4215,-7,5
2217,-8,5,4216,0,5
2218,-7,5,4217,8,5
2219,-7,5,4218,19,5
2220,-6,5,4219,31,5
2221,-7,5,4220,45,5
2222,-7,5,4221,54,5
2223,-7,5,4222,54,5
2224,-7,5,4223,54,5
2225,-7,5,4224,54,5
2226,-6,5,4225,54,5
2227,-3,5,4226,54,5
2228,-3,5,4227,54,5
2229,-4,5,4228,54,5
2230,-4,5,4229,54,5
2231,-5,5,4230,54,5
2232,-5,5,4231,40,5
2233,-5,5,4232,13,5
2234,-6,5,4233,-6,5
2235,-4,5,4234,-15,5
2236,-3,5,4235,-15,5
2237,-3,5,4236,-15,5
2238,-3,5,4237,-15,5
2239,-1,5,4238,-15,5
2240,-3,5,4239,-15,5
2241,-3,5,4240,-15,5
2242,-2,5,4241,-15,5
2243,-2,5,4242,-15,5
2244,-4,5,4243,-13,5
2245,-4,5,4244,-12,5
2246,-3,5,4245,-12,5
2247,0,5,4246,-12,5
2248,1,5,4247,-10,5
2249,-1,5,4248,-9,5
2250,-2,5,4249,-6,5
2251,-3,5,4250,-6,5
2252,-5,5,4251,-4,5
2253,-5,5,4252,-5,5
2254,-5,5,4253,-4,5
2255,-5,5,4254,-4,5
2256,-4,5,4255,-5,5
2257,-1,5,4256,-6,5
2258,0,5,4257,-9,5
2259,-1,5,4258,-8,5
2260,-2,5,4259,-5,5
2261,-3,5,4260,-5,5
2262,-5,5,4261,-4,5
2263,-5,5,4262,-5,5
2264,-5,5,4263,-7,5
2265,-3,5,4264,-6,5
2266,-2,5,4265,-7,5
2267,-3,5,4266,-8,5
2268,-2,5,4267,-6,5
2269,-2,5,4268,-4,5
2270,-2,5,4269,-3,5
2271,-2,5,4270,-2,5
2272,-1,5,4271,-2,5
2273,0,5,4272,-3,5
2274,0,5,4273,-4,5
2275,1,5,4274,-4,5
2276,1,5,4275,-5,5
2277,0,5,4276,-6,5
2278,-2,5,4277,-6,5
2279,-1,5,4278,-5,5
2280,0,5,4279,-4,5
2281,0,5,4280,-4,5
2282,0,5,4281,-4,5
2283,0,5,4282,-5,5
2284,0,5,4283,-4,5
2285,0,5,4284,-3,5
2286,-1,5,4285,-3,5
2287,0,5,4286,-4,5
2288,2,5,4287,-4,5
2289,2,5,4288,-3,5
2290,3,5,4289,-2,5
2291,4,5,4290,-1,5
2292,6,5,4291,-2,5
2293,7,5,4292,0,5
2294,7,5,4293,0,5
2295,7,5,4294,-2,5
2296,4,5,4295,-2,5
2297,2,5,4296,-2,5
2298,1,5,4297,-3,5
2299,2,5,4298,-2,5
2300,2,5,4299,-2,5
2301,3,5,4300,-2,5
2302,5,5,4301,-2,5
2303,6,5,4302,-1,5
2304,9,5,4303,0,5
2305,9,5,4304,-1,5
2306,7,5,4305,-2,5
2307,7,5,4306,-3,5
2308,8,5,4307,-2,5
2309,9,5,4308,-1,5
2310,10,5,4309,-1,5
2311,11,5,4310,0,5
2312,11,5,4311,-1,5
2313,11,5,4312,-1,5
2314,11,5,4313,-1,5
2315,10,5,4314,-2,5
2316,11,5,4315,-4,5
2317,11,5,4316,-6,5
2318,12,5,4317,-4,5
2319,12,5,4318,0,5
2320,15,5,4319,1,5
2321,15,5,4320,2,5
2322,16,5,4321,3,5
2323,17,5,4322,2,5
2324,16,5,4323,2,5
2325,16,5,4324,2,5
2326,15,5,4325,-1,5
2327,15,5,4326,-1,5
2328,17,5,4327,1,5
2329,16,5,4328,3,5
2330,17,5,4329,6,5
2331,19,5,4330,6,5
2332,21,5,4331,5,5
2333,21,5,4332,5,5
2334,22,5,4333,2,5
2335,22,5,4334,4,5
2336,21,5,4335,4,5
2337,20,5,4336,5,5
2338,22,5,4337,6,5
2339,21,5,4338,8,5
2340,20,5,4339,9,5
2341,21,5,4340,12,5
2342,20,5,4341,12,5
2343,19,5,4342,12,5
2344,20,5,4343,12,5
2345,18,5,4344,11,5
2346,15,5,4345,9,5
2347,12,5,4346,8,5
2348,10,5,4347,8,5
2349,9,5,4348,9,5
2350,9,5,4349,11,5
2351,9,5,4350,12,5
2352,9,5,4351,15,5
2353,7,5,4352,17,5
2354,6,5,4353,17,5
2355,6,5,4354,16,5
2356,5,5,4355,16,5
2357,4,5,4356,14,5
2358,3,5,4357,15,5
2359,3,5,4358,16,5
2360,3,5,4359,18,5
2361,3,5,4360,19,5
2362,0,5,4361,20,5
2363,-1,5,4362,20,5
2364,-3,5,4363,19,5
2365,-3,5,4364,17,5
2366,-4,5,4365,17,5
2367,-4,5,4366,19,5
2368,-5,5,4367,20,5
2369,-5,5,4368,22,5
2370,-3,5,4369,25,5
2371,-3,5,4370,27,5
2372,-4,5,4371,27,5
2373,-7,5,4372,26,5
2374,-8,5,4373,27,5
2375,-9,5,4374,26,5
2376,-11,5,4375,26,5
2377,-13,5,4376,25,5
2378,-11,5,4377,26,5
2379,-9,5,4378,26,5
2380,-8,5,4379,24,5
2381,-7,5,4380,23,5
2382,-8,5,4381,24,5
2383,-10,5,4382,24,5
2384,-11,5,4383,24,5
2385,-11,5,4384,22,5
2386,-12,5,4385,19,5
2387,-11,5,4386,18,5
2388,-8,5,4387,16,5
2389,-6,5,4388,16,5
2390,-6,5,4389,15,5
2391,-7,5,4390,12,5
2392,-7,5,4391,12,5
2393,-9,5,4392,11,5
2394,-11,5,4393,9,5
2395,-12,5,4394,10,5
2396,-13,5,4395,9,5
2397,-10,5,4396,7,5
2398,-7,5,4397,7,5
2399,-4,5,4398,6,5
2400,-3,5,4399,6,5
2401,-5,5,4400,5,5
2402,-5,5,4401,4,5
2403,-8,5,4402,3,5
2404,-11,5,4403,1,5
2405,-11,5,4404,-1,5
2406,-11,5,4405,-2,5
2407,-9,5,4406,-3,5
2408,-6,5,4407,-2,5
2409,-4,5,4408,-4,5
2410,-5,5,4409,-4,5
2411,-5,5,4410,-4,5
2412,-6,5,4411,-3,5
2413,-7,5,4412,-4,5
2414,-7,5,4413,-5,5
2415,-7,5,4414,-5,5
2416,-5,5,4415,-5,5
2417,-5,5,4416,-4,5
2418,-3,5,4417,-4,5
2419,0,5,4418,-5,5
2420,0,5,4419,-5,5
2421,-2,5,4420,-5,5
2422,-2,5,4421,-4,5
2423,-4,5,4422,-4,5
2424,-5,5,4423,-5,5
2425,-5,5,4424,-7,5
2426,-5,5,4425,-8,5
2427,-5,5,4426,-10,5
2428,-4,5,4427,-11,5
2429,-3,5,4428,-9,5
2430,-2,5,4429,-7,5
2431,-3,5,4430,-6,5
2432,-5,5,4431,-6,5
2433,-6,5,4432,-5,5
2434,-5,5,4433,-5,5
2435,-4,5,4434,-6,5
2436,-4,5,4435,-5,5
2437,-1,5,4436,-6,5
2438,-2,5,4437,-7,5
2439,-2,5,4438,-11,5
2440,-1,5,4439,-8,5
2441,-2,5,4440,-8,5
2442,-3,5,4441,-8,5
2443,-2,5,4442,-5,5
2444,-4,5,4443,-5,5
2445,-5,5,4444,-7,5
2446,-6,5,4445,-8,5
2447,-5,5,4446,-9,5
2448,-4,5,4447,-7,5
2449,-3,5,4448,-7,5
2450,-2,5,4449,-7,5
2451,-3,5,4450,-6,5
2452,-2,5,4451,-6,5
2453,-3,5,4452,-5,5
2454,-4,5,4453,-5,5
2455,-5,5,4454,-4,5
2456,-5,5,4455,-3,5
2457,-4,5,4456,-4,5
2458,-4,5,4457,-3,5
2459,-3,5,4458,-2,5
2460,-2,5,4459,-1,5
2461,-3,5,4460,-1,5
2462,-5,5,4461,-1,5
2463,-7,5,4462,-2,5
2464,-7,5,4463,-2,5
2465,-8,5,4464,-1,5
2466,-8,5,4465,-2,5
2467,-7,5,4466,-3,5
2468,-7,5,4467,-3,5
2469,-4,5,4468,-2,5
2470,-5,5,4469,-3,5
2471,-4,5,4470,-2,5
2472,-6,5,4471,-3,5
2473,-7,5,4472,-2,5
2474,-9,5,4473,-3,5
2475,-11,5,4474,-2,5
2476,-12,5,4475,-1,5
2477,-11,5,4476,-1,5
2478,-9,5,4477,-2,5
2479,-7,5,4478,-1,5
2480,-6,5,4479,-1,5
2481,-6,5,4480,-1,5
2482,-8,5,4481,-1,5
2483,-8,5,4482,-1,5
2484,-9,5,4483,0,5
2485,-10,5,4484,1,5
2486,-10,5,4485,1,5
2487,-10,5,4486,0,5
2488,-8,5,4487,-1,5
2489,-8,5,4488,0,5
2490,-7,5,4489,0,5
2491,-8,5,4490,1,5
2492,-7,5,4491,1,5
2493,-7,5,4492,1,5
2494,-8,5,4493,0,5
2495,-11,5,4494,-1,5
2496,-11,5,4495,-2,5
2497,-9,5,4496,-3,5
2498,-9,5,4497,-3,5
2499,-8,5,4498,-3,5
2500,-8,5,4499,-4,5
2501,-7,5,4500,-4,5
2502,-10,5,4501,-4,5
2503,-12,5,4502,-3,5
2504,-12,5,4503,-2,5
2505,-12,5,4504,-3,5
2506,-10,5,4505,-2,5
2507,-10,5,4506,-2,5
2508,-11,5,4507,-2,5
2509,-9,5,4508,-1,5
2510,-9,5,4509,-2,5
2511,-9,5,4510,-4,5
2512,-8,5,4511,-4,5
2513,-9,5,4512,-3,5
2514,-11,5,4513,-5,5
2515,-12,5,4514,-5,5
2516,-12,5,4515,-6,5
2517,-11,5,4516,-7,5
2518,-12,5,4517,-6,5
2519,-10,5,4518,-6,5
2520,-10,5,4519,-5,5
2521,-10,5,4520,-5,5
2522,-10,5,4521,-6,5
2523,-10,5,4522,-7,5
2524,-10,5,4523,-7,5
2525,-10,5,4524,-8,5
2526,-11,5,4525,-7,5
2527,-9,5,4526,-6,5
2528,-10,5,4527,-5,5
2529,-10,5,4528,-4,5
2530,-11,5,4529,-2,5
2531,-12,5,4530,-2,5
2532,-11,5,4531,-4,5
2533,-11,5,4532,-6,5
2534,-13,5,4533,-7,5
2535,-11,5,4534,-8,5
2536,-10,5,4535,-9,5
2537,-10,5,4536,-9,5
2538,-10,5,4537,-8,5
2539,-8,5,4538,-6,5
2540,-8,5,4539,-4,5
2541,-8,5,4540,-3,5
2542,-11,5,4541,-3,5
2543,-13,5,4542,-2,5
2544,-14,5,4543,-4,5
2545,-14,5,4544,-6,5
2546,-13,5,4545,-9,5
2547,-14,5,4546,-10,5
2548,-12,5,4547,-11,5
2549,-10,5,4548,-10,5
2550,-9,5,4549,-8,5
2551,-9,5,4550,-6,5
2552,-9,5,4551,-6,5
2553,-11,5,4552,-5,5
2554,-12,5,4553,-5,5
2555,-12,5,4554,-5,5
2556,-11,5,4555,-6,5
2557,-11,5,4556,-7,5
2558,-11,5,4557,-6,5
2559,-10,5,4558,-5,5
2560,-9,5,4559,-5,5
2561,-9,5,4560,-7,5
2562,-11,5,4561,-7,5
2563,-10,5,4562,-6,5
2564,-9,5,4563,-5,5
2565,-9,5,4564,-7,5
2566,-10,5,4565,-8,5
2567,-12,5,4566,-8,5
2568,-11,5,4567,-7,5
2569,-11,5,4568,-6,5
2570,-11,5,4569,-6,5
2571,-11,5,4570,-7,5
2572,-12,5,4571,-7,5
2573,-11,5,4572,-8,5
2574,-10,5,4573,-7,5
2575,-11,5,4574,-7,5
2576,-11,5,4575,-6,5
2577,-12,5,4576,-6,5
2578,-10,5,4577,-7,5
2579,-11,5,4578,-8,5
2580,-10,5,4579,-7,5
2581,-8,5,4580,-6,5
2582,-8,5,4581,-5,5
2583,-8,5,4582,-6,5
2584,-9,5,4583,-7,5
2585,-10,5,4584,-8,5
2586,-10,5,4585,-8,5
2587,-11,5,4586,-8,5
2588,-11,5,4587,-8,5
2589,-10,5,4588,-8,5
2590,-9,5,4589,-8,5
2591,-8,5,4590,-7,5
2592,-8,5,4591,-6,5
2593,-10,5,4592,-6,5
2594,-10,5,4593,-6,5
2595,-12,5,4594,-5,5
2596,-13,5,4595,-5,5
2597,-13,5,4596,-8,5
2598,-11,5,4597,-9,5
2599,-9,5,4598,-9,5
2600,-7,5,4599,-8,5
2601,-6,5,4600,-7,5
2602,-4,5,4601,-6,5
2603,-5,5,4602,-5,5
2604,-6,5,4603,-5,5
2605,-6,5,4604,-7,5
2606,-7,5,4605,-6,5
2607,-5,5,4606,-9,5
2608,-3,5,4607,-9,5
2609,0,5,4608,-10,5
2610,0,5,4609,-11,5
2611,0,5,4610,-12,5
2612,-1,5,4611,-11,5
2613,0,5,4612,-8,5
2614,0,5,4613,-6,5
2615,1,5,4614,-6,5
2616,3,5,4615,-5,5
2617,5,5,4616,-6,5
2618,6,5,4617,-7,5
2619,8,5,4618,-8,5
2620,9,5,4619,-8,5
2621,8,5,4620,-8,5
2622,8,5,4621,-7,5
2623,8,5,4622,-8,5
2624,9,5,4623,-8,5
2625,10,5,4624,-5,5
2626,10,5,4625,-4,5
2627,10,5,4626,-4,5
2628,10,5,4627,-4,5
2629,11,5,4628,-5,5
2630,11,5,4629,-5,5
2631,9,5,4630,-7,5
2632,9,5,4631,-8,5
2633,6,5,4632,-8,5
2634,3,5,4633,-8,5
2635,1,5,4634,-8,5
2636,0,5,4635,-8,5
2637,-1,5,4636,-7,5
2638,-1,5,4637,-6,5
2639,-4,5,4638,-6,5
2640,-8,5,4639,-8,5
2641,-10,5,4640,-8,5
2642,-11,5,4641,-9,5
2643,-11,5,4642,-8,5
2644,-9,5,4643,-7,5
2645,-9,5,4644,-7,5
2646,-8,5,4645,-5,5
2647,-10,5,4646,-3,5
2648,-11,5,4647,-3,5
2649,-13,5,4648,-5,5
2650,-15,5,4649,-6,5
2651,-15,5,4650,-5,5
2652,-15,5,4651,-7,5
2653,-15,5,4652,-6,5
2654,-15,5,4653,-4,5
2655,-15,5,4654,0,5
2656,-15,5,4655,2,5
2657,-15,5,4656,3,5
2658,-15,5,4657,4,5
2659,-15,5,4658,3,5
2660,-15,5,4659,0,5
2661,-15,5,4660,1,5
2662,-15,5,4661,0,5
2663,-15,5,4662,1,5
2664,-15,5,4663,2,5
2665,-15,5,4664,5,5
2666,-15,5,4665,9,5
2667,-15,5,4666,9,5
2668,-15,5,4667,11,5
2669,-15,5,4668,13,5
2670,-15,5,4669,12,5
2671,-15,5,4670,12,5
2672,-15,5,4671,12,5
2673,-15,5,4672,15,5
2674,-15,5,4673,14,5
2675,-15,5,4674,13,5
2676,-15,5,4675,12,5
2677,-15,5,4676,12,5
2678,-15,5,4677,10,5
2679,-15,5,4678,11,5
2680,-15,5,4679,10,5
2681,-15,5,4680,9,5
2682,-15,5,4681,7,5
2683,-15,5,4682,3,5
2684,-14,5,4683,2,5
2685,-7,5,4684,1,5
2686,0,5,4685,0,5
2687,8,5,4686,-2,5
2688,17,5,4687,-5,5
2689,29,5,4688,-5,5
2690,45,5,4689,-7,5
2691,54,5,4690,-8,5
2692,54,5,4691,-6,5
2693,54,5,4692,-5,5
2694,54,5,4693,-4,5
2695,54,5,4694,-4,5
2696,54,5,4695,-3,5
2697,54,5,4696,-5,5
2698,54,5,4697,-6,5
2699,54,5,4698,-8,5
2700,40,5,4699,-11,5
2701,15,5,4700,-11,5
2702,-4,5,4701,-15,5
2703,-15,5,4702,-15,5
2704,-15,5,4703,-15,5
2705,-15,5,4704,-15,5
2706,-15,5,4705,-14,5
2707,-15,5,4706,-13,5
2708,-15,5,4707,-13,5
2709,-15,5,4708,-13,5
2710,-15,5,4709,-14,5
2711,-15,5,4710,-14,5
2712,-15,5,4711,-15,5
2713,-15,5,4712,-15,5
2714,-15,5,4713,-15,5
2715,-15,5,4714,-15,5
2716,-15,5,4715,-14,5
2717,-15,5,4716,-14,5
2718,-14,5,4717,-14,5
2719,-11,5,4718,-13,5
2720,-11,5,4719,-13,5
2721,-11,5,4720,-12,5
2722,-10,5,4721,-11,5
2723,-10,5,4722,-13,5
2724,-12,5,4723,-12,5
2725,-12,5,4724,-12,5
2726,-10,5,4725,-10,5
2727,-10,5,4726,-11,5
2728,-10,5,4727,-13,5
2729,-9,5,4728,-15,5
2730,-8,5,4729,-15,5
2731,-9,5,4730,-15,5
2732,-9,5,4731,-15,5
2733,-8,5,4732,-14,5
2734,-10,5,4733,-7,5
2735,-9,5,4734,0,5
2736,-8,5,4735,9,5
2737,-9,5,4736,18,5
2738,-8,5,4737,29,5
2739,-9,5,4738,43,5
2740,-9,5,4739,54,5
2741,-9,5,4740,54,5
2742,-9,5,4741,54,5
2743,-10,5,4742,54,5
2744,-8,5,4743,54,5
2745,-8,5,4744,54,5
2746,-8,5,4745,54,5
2747,-10,5,4746,54,5
2748,-10,5,4747,54,5
2749,-10,5,4748,54,5
2750,-10,5,4749,31,5
2751,-10,5,4750,11,5
2752,-9,5,4751,-5,5
2753,-8,5,4752,-12,5
2754,-6,5,4753,-14,5
2755,-7,5,4754,-15,5
2756,-6,5,4755,-15,5
2757,-7,5,4756,-15,5
2758,-8,5,4757,-15,5
2759,-9,5,4758,-15,5
2760,-9,5,4759,-15,5
2761,-8,5,4760,-15,5
2762,-8,5,4761,-14,5
2763,-7,5,4762,-14,5
2764,-5,5,4763,-11,5
2765,-3,5,4764,-8,5
2766,-2,5,4765,-7,5
2767,-5,5,4766,-7,5
2768,-5,5,4767,-8,5
2769,-7,5,4768,-8,5
2770,-9,5,4769,-9,5
2771,-8,5,4770,-10,5
2772,-7,5,4771,-10,5
2773,-5,5,4772,-9,5
2774,-5,5,4773,-9,5
2775,-4,5,4774,-9,5
2776,-4,5,4775,-8,5
2777,-6,5,4776,-6,5
2778,-6,5,4777,-5,5
2779,-7,5,4778,-7,5
2780,-7,5,4779,-10,5
2781,-4,5,4780,-11,5
2782,-5,5,4781,-13,5
2783,-5,5,4782,-11,5
2784,-5,5,4783,-10,5
2785,-6,5,4784,-10,5
2786,-7,5,4785,-7,5
2787,-6,5,4786,-6,5
2788,-4,5,4787,-6,5
2789,-4,5,4788,-6,5
2790,-5,5,4789,-8,5
2791,-4,5,4790,-6,5
2792,-4,5,4791,-5,5
2793,-5,5,4792,-6,5
2794,-5,5,4793,-5,5
2795,-5,5,4794,-6,5
2796,-4,5,4795,-5,5
2797,-2,5,4796,-4,5
2798,-1,5,4797,-3,5
2799,0,5,4798,-3,5
2800,1,5,4799,-5,5
2801,0,5,4800,-6,5
2802,-1,5,4801,-6,5
2803,-1,5,4802,-8,5
2804,-3,5,4803,-8,5
2805,-3,5,4804,-7,5
2806,0,5,4805,-6,5
2807,2,5,4806,-5,5
2808,3,5,4807,-4,5
2809,4,5,4808,-5,5
2810,4,5,4809,-6,5
2811,3,5,4810,-7,5
2812,2,5,4811,-7,5
2813,2,5,4812,-8,5
2814,2,5,4813,-6,5
2815,3,5,4814,-5,5
2816,3,5,4815,-5,5
2817,4,5,4816,-5,5
2818,5,5,4817,-5,5
2819,6,5,4818,-5,5
2820,6,5,4819,-4,5
2821,5,5,4820,-6,5
2822,5,5,4821,-8,5
2823,5,5,4822,-8,5
2824,5,5,4823,-7,5
2825,6,5,4824,-5,5
2826,6,5,4825,-2,5
2827,8,5,4826,-1,5
2828,7,5,4827,-2,5
2829,8,5,4828,-2,5
2830,9,5,4829,-4,5
2831,10,5,4830,-4,5
2832,10,5,4831,-5,5
2833,9,5,4832,-4,5
2834,9,5,4833,-5,5
2835,10,5,4834,-5,5
2836,11,5,4835,-3,5
2837,11,5,4836,-2,5
2838,11,5,4837,-2,5
2839,10,5,4838,-4,5
2840,9,5,4839,-3,5
2841,9,5,4840,-3,5
2842,11,5,4841,-4,5
2843,13,5,4842,-3,5
2844,15,5,4843,-1,5
2845,15,5,4844,0,5
2846,15,5,4845,2,5
2847,15,5,4846,3,5
2848,16,5,4847,3,5
2849,14,5,4848,0,5
2850,14,5,4849,-1,5
2851,12,5,4850,-2,5
2852,12,5,4851,-3,5
2853,12,5,4852,-2,5
2854,11,5,4853,-2,5
2855,9,5,4854,2,5
2856,10,5,4855,4,5
2857,9,5,4856,5,5
2858,8,5,4857,4,5
2859,7,5,4858,4,5
2860,7,5,4859,3,5
2861,6,5,4860,2,5
2862,5,5,4861,2,5
2863,5,5,4862,2,5
2864,4,5,4863,4,5
2865,2,5,4864,6,5
2866,2,5,4865,9,5
2867,1,5,4866,10,5
2868,1,5,4867,10,5
2869,-2,5,4868,10,5
2870,-2,5,4869,8,5
2871,-1,5,4870,7,5
2872,-2,5,4871,7,5
2873,-3,5,4872,8,5
2874,-3,5,4873,8,5
2875,-5,5,4874,9,5
2876,-6,5,4875,9,5
2877,-5,5,4876,10,5
2878,-4,5,4877,11,5
2879,-5,5,4878,12,5
2880,-7,5,4879,12,5
2881,-8,5,4880,12,5
2882,-7,5,4881,13,5
2883,-6,5,4882,13,5
2884,-7,5,4883,14,5
2885,-6,5,4884,17,5
2886,-7,5,4885,18,5
2887,-9,5,4886,17,5
2888,-9,5,4887,16,5
2889,-9,5,4888,15,5
2890,-8,5,4889,13,5
2891,-8,5,4890,14,5
2892,-7,5,4891,14,5
2893,-6,5,4892,14,5
2894,-8,5,4893,16,5
2895,-8,5,4894,20,5
2896,-10,5,4895,22,5
2897,-11,5,4896,22,5
2898,-10,5,4897,21,5
2899,-9,5,4898,21,5
2900,-7,5,4899,19,5
2901,-8,5,4900,16,5
2902,-8,5,4901,16,5
2903,-10,5,4902,14,5
2904,-11,5,4903,13,5
2905,-9,5,4904,12,5
2906,-9,5,4905,11,5
2907,-8,5,4906,11,5
2908,-7,5,4907,10,5
2909,-6,5,4908,9,5
2910,-6,5,4909,7,5
2911,-5,5,4910,5,5
2912,-5,5,4911,4,5
2913,-4,5,4912,3,5
2914,-5,5,4913,2,5
2915,-5,5,4914,2,5
2916,-5,5,4915,0,5
2917,-4,5,4916,-1,5
2918,-5,5,4917,-2,5
2919,-4,5,4918,-3,5
2920,-5,5,4919,-3,5
2921,-4,5,4920,-3,5
2922,-4,5,4921,-3,5
2923,-3,5,4922,-4,5
2924,-3,5,4923,-4,5
2925,-2,5,4924,-4,5
2926,-2,5,4925,-5,5
2927,-3,5,4926,-6,5
2928,-3,5,4927,-7,5
2929,-3,5,4928,-8,5
2930,-2,5,4929,-9,5
2931,-3,5,4930,-8,5
2932,-2,5,4931,-8,5
2933,-2,5,4932,-8,5
2934,-3,5,4933,-9,5
2935,-5,5,4934,-10,5
2936,-5,5,4935,-8,5
2937,-4,5,4936,-7,5
2938,-2,5,4937,-7,5
2939,-1,5,4938,-7,5
2940,0,5,4939,-5,5
2941,0,5,4940,-6,5
2942,-1,5,4941,-8,5
2943,-1,5,4942,-9,5
2944,-2,5,4943,-9,5
2945,-3,5,4944,-9,5
2946,-2,5,4945,-10,5
2947,-2,5,4946,-11,5
2948,-1,5,4947,-12,5
2949,0,5,4948,-11,5
2950,1,5,4949,-9,5
2951,2,5,4950,-8,5
2952,1,5,4951,-8,5
2953,-1,5,4952,-9,5
2954,-1,5,4953,-9,5
2955,-3,5,4954,-9,5
2956,-4,5,4955,-9,5
2957,-3,5,4956,-9,5
2958,-1,5,4957,-10,5
2959,-2,5,4958,-10,5
2960,-2,5,4959,-9,5
2961,-2,5,4960,-9,5
2962,-1,5,4961,-9,5
2963,-1,5,4962,-10,5
2964,-1,5,4963,-9,5
2965,-1,5,4964,-8,5
2966,-4,5,4965,-5,5
2967,-4,5,4966,-5,5
2968,-4,5,4967,-5,5
2969,-4,5,4968,-8,5
2970,-3,5,4969,-7,5
2971,-3,5,4970,-6,5
2972,-3,5,4971,-6,5
2973,-2,5,4972,-6,5
2974,-2,5,4973,-4,5
2975,-2,5,4974,-3,5
2976,-5,5,4975,-3,5
2977,-5,5,4976,-5,5
2978,-4,5,4977,-4,5
2979,-5,5,4978,-5,5
2980,-6,5,4979,-6,5
2981,-6,5,4980,-6,5
2982,-4,5,4981,-5,5
2983,-3,5,4982,-3,5
2984,-3,5,4983,-3,5
2985,-4,5,4984,-4,5
2986,-5,5,4985,-6,5
2987,-5,5,4986,-7,5
2988,-5,5,4987,-7,5
2989,-6,5,4988,-6,5
2990,-6,5,4989,-5,5
2991,-6,5,4990,-5,5
2992,-4,5,4991,-4,5
2993,-4,5,4992,-3,5
2994,-4,5,4993,-4,5
2995,-4,5,4994,-4,5
2996,-4,5,4995,-5,5
2997,-6,5,4996,-5,5
2998,-6,5,4997,-3,5
2999,-6,5,4998,-3,5
3000,-7,5,4999,-3,5
