TS,Reading
1,-1.4
2,-1
3,-1
4,-1
5,-1
6,-1
7,-1
8,-1
9,-0.9
10,-1
11,-0.9
12,-1
13,-1.1
14,-1
15,-0.9
16,-0.9
17,-1.1
18,-1.1
19,-1.1
20,-1.1
21,-0.8
22,-0.7
23,-0.9
24,-1.2
25,-1.1
26,-1.1
27,-1.1
28,-1
29,-1.1
30,-1.1
31,-1.2
32,-1.2
33,-1.2
34,-1.1
35,-0.9
36,-0.9
37,-0.7
38,-0.8
39,-0.9
40,-0.9
41,-0.9
42,-1.1
43,-1
44,-1.2
45,-1.1
46,-1
47,-0.6
48,-0.4
49,-0.4
50,-0.3
51,-0.2
52,-0.3
53,-0.3
54,-0.6
55,-0.6
56,-0.4
57,-0.4
58,-0.4
59,-0.1
60,0
61,0.2
62,0.4
63,0.1
64,0.2
65,0.3
66,0.3
67,0.3
68,0.4
69,0.6
70,0.6
71,0.6
72,0.6
73,0.7
74,0.5
75,0.4
76,0.3
77,0.3
78,0.3
79,0
80,0
81,0.1
82,0
83,0
84,0.1
85,0
86,0
87,0
88,0
89,-0.1
90,-0.3
91,-0.5
92,-0.5
93,-0.5
94,-0.6
95,-0.7
96,-0.5
97,-0.4
98,-0.5
99,-0.6
100,-0.6
101,-0.7
102,-0.5
103,-0.5
104,-0.5
105,-0.6
106,-0.6
107,-0.5
108,-0.4
109,-0.3
110,-0.3
111,-0.1
112,-0.2
113,-0.3
114,-0.2
115,-0.1
116,-0.1
117,-0.4
118,-0.6
119,-0.4
120,-0.5
121,-0.7
122,-0.6
123,-0.2
124,0.6
125,1.5
126,2.5
127,3.8
128,5.2
129,7.3
130,10.2
131,13.4
132,15.9
133,17.9
134,19.4
135,20.5
136,20.4
137,19.7
138,18.9
139,17.1
140,13.4
141,9.6
142,7
143,5.4
144,4
145,2.3
146,0.7
147,-0.3
148,-0.8
149,-1.1
150,-1
151,-0.7
152,-0.7
153,-0.5
154,-0.5
155,-0.5
156,-0.5
157,-0.5
158,-0.3
159,-0.1
160,0
161,0.1
162,0.1
163,0.1
164,0
165,0.1
166,0
167,0
168,0
169,0.1
170,0.1
171,0
172,0
173,0
174,0
175,0.3
176,0.3
177,0.2
178,0
179,0
180,0.1
181,0.3
182,0.3
183,0.4
184,0.4
185,0.4
186,0.3
187,0
188,0.1
189,0.4
190,0.4
191,0.4
192,0.5
193,0.5
194,0.4
195,0.6
196,0.4
197,0.4
198,0.5
199,0.7
200,0.7
201,0.3
202,0.3
203,0.4
204,0.6
205,0.7
206,0.7
207,0.9
208,1.2
209,1.2
210,0.9
211,1
212,1.1
213,1.1
214,0.9
215,0.9
216,1.1
217,1.1
218,1.1
219,1.2
220,1.2
221,1.3
222,1.2
223,1.2
224,1.2
225,1.2
226,1.4
227,1.4
228,1.5
229,1.9
230,2
231,1.8
232,1.8
233,1.8
234,1.7
235,1.7
236,1.9
237,2.1
238,2.2
239,2.1
240,2.1
241,2.2
242,2.3
243,2.3
244,2.5
245,2.6
246,2.7
247,2.7
248,3
249,3.4
250,3.5
251,3.7
252,3.6
253,3.6
254,3.9
255,4.1
256,4
257,4
258,4
259,4.2
260,4.2
261,4.2
262,4.6
263,4.7
264,4.7
265,4.7
266,4.7
267,4.8
268,4.8
269,4.9
270,5
271,4.9
272,4.9
273,4.9
274,5.2
275,5.2
276,5.2
277,5.2
278,5.1
279,5.1
280,5.1
281,5.3
282,5.2
283,5
284,4.8
285,4.8
286,4.6
287,4.4
288,4.2
289,4.3
290,4.3
291,4.2
292,4.2
293,3.9
294,3.5
295,3.3
296,3.4
297,3.2
298,3
299,2.9
300,2.9
301,3
302,2.8
303,2.7
304,2.7
305,2.3
306,2
307,1.7
308,1.6
309,1.6
310,1.6
311,1.8
312,1.7
313,1.5
314,1.3
315,1.2
316,1.2
317,1.3
318,1.1
319,0.9
320,0.8
321,0.8
322,0.8
323,0.9
324,1
325,1.2
326,1.3
327,1.5
328,1.2
329,1
330,0.8
331,0.8
332,0.8
333,0.8
334,0.8
335,0.8
336,0.9
337,0.9
338,0.8
339,0.8
340,0.7
341,0.6
342,0.7
343,0.6
344,0.7
345,0.7
346,0.7
347,0.9
348,0.9
349,0.8
350,0.8
351,0.7
352,0.6
353,0.7
354,0.7
355,0.7
356,0.8
357,0.8
358,0.7
359,0.7
360,0.8
361,0.8
362,0.6
363,0.5
364,0.4
365,0.4
366,0.5
367,0.6
368,0.6
369,0.5
370,0.5
371,0.6
372,0.6
373,0.5
374,0.5
375,0.5
376,0.6
377,0.8
378,1
379,1
380,0.9
381,0.9
382,1
383,1
384,1.1
385,0.9
386,0.8
387,0.7
388,0.9
389,1
390,1
391,1
392,1.1
393,1.1
394,1.1
395,1.3
396,1.1
397,1
398,1.1
399,1.1
400,1.3
401,1.1
402,0.9
403,0.9
404,0.9
405,0.9
406,1.1
407,1
408,0.9
409,0.9
410,0.8
411,0.8
412,0.8
413,0.7
414,0.6
415,0.6
416,0.7
417,0.6
418,0.6
419,0.7
420,1
421,1
422,0.8
423,0.9
424,0.8
425,0.7
426,0.7
427,0.6
428,0.6
429,0.7
430,0.7
431,0.5
432,0.5
433,0.5
434,0.5
435,0.5
436,0.6
437,0.7
438,0.6
439,0.6
440,0.7
441,0.7
442,0.5
443,0.3
444,0.4
445,0.5
446,0.6
447,0.8
448,0.7
449,0.4
450,0.4
451,0.3
452,0.4
453,0.5
454,0.5
455,0.5
456,0.5
457,0.4
458,0.2
459,0
460,0
461,0
462,0.1
463,0.4
464,0.4
465,0.4
466,0.7
467,0.5
468,0.4
469,0.4
470,0.4
471,0.4
472,0.4
473,0.4
474,0.2
475,0
476,0.2
477,0.2
478,0.2
479,0.1
480,0
481,0
482,0.2
483,0.1
484,0.3
485,0.3
486,0.3
487,0.2
488,0.2
489,0.5
490,0.3
491,0.4
492,0.4
493,0.5
494,0.4
495,0.3
496,0.3
497,0.3
498,0.3
499,0.4
500,0.3
501,0.3
502,0.2
503,0.1
504,0
505,0.1
506,0.1
507,0.1
508,0.3
509,0.3
510,0.3
511,0.2
512,0.2
513,0.3
514,0.4
515,0.3
516,0.1
517,0.2
518,0.2
519,0.2
520,0.2
521,0
522,0
523,0
524,0
525,0
526,0.1
527,0.1
528,0.2
529,0.3
530,0.3
531,0.4
532,0.5
533,0.6
534,0.6
535,0.8
536,0.8
537,0.8
538,0.8
539,0.9
540,1
541,0.7
542,0.4
543,0.4
544,0.5
545,0.6
546,0.9
547,1.2
548,1.2
549,1.2
550,1.2
551,1
552,0.9
553,1
554,1.2
555,1.7
556,1.6
557,1.5
558,1.4
559,1.2
560,1.2
561,1.1
562,1
563,1
564,1
565,1
566,1
567,1.1
568,1
569,0.9
570,0.7
571,0.3
572,0.3
573,0.2
574,0.2
575,0.2
576,0.4
577,0.6
578,0.5
579,0.3
580,0.2
581,0
582,0.1
583,0.1
584,0
585,-0.1
586,-0.1
587,-0.1
588,0
589,0.2
590,0.2
591,0
592,0
593,-0.2
594,0
595,0.2
596,0.2
597,0
598,-0.2
599,-0.2
600,-0.2
601,-0.1
602,-0.1
603,-0.1
604,0
605,0
606,-0.1
607,0.3
608,1.1
609,1.9
610,3
611,4.3
612,5.5
613,7.4
614,10.5
615,13.6
616,15.8
617,17.8
618,19.2
619,19.9
620,19.6
621,19
622,18.1
623,16.4
624,12.7
625,8.9
626,6.4
627,4.8
628,3.6
629,2.2
630,0.8
631,0.1
632,-0.3
633,-0.7
634,-0.8
635,-0.4
636,-0.3
637,0
638,0.1
639,0.1
640,0.1
641,0
642,0
643,0.2
644,0.2
645,0.1
646,0
647,-0.1
648,0.1
649,0.1
650,0.1
651,0
652,0
653,-0.2
654,-0.2
655,-0.1
656,0
657,-0.1
658,0
659,0.1
660,0
661,0
662,0
663,0.1
664,0.1
665,0.1
666,0.1
667,0.1
668,0
669,0.1
670,0.2
671,0.3
672,0.1
673,0.1
674,0.2
675,0.3
676,0.3
677,0.3
678,0.3
679,0.5
680,0.8
681,0.9
682,0.7
683,0.7
684,0.5
685,0.4
686,0.5
687,0.5
688,0.3
689,0.3
690,0.6
691,0.7
692,0.8
693,0.8
694,0.9
695,0.9
696,0.9
697,1
698,0.8
699,0.9
700,1.1
701,1
702,1.1
703,1.3
704,1.3
705,1.3
706,1.3
707,1.3
708,1.2
709,1.2
710,1.2
711,1.3
712,1.2
713,1.2
714,1.1
715,1.2
716,1.1
717,1.3
718,1.5
719,1.7
720,1.7
721,1.8
722,1.8
723,1.9
724,2.1
725,2
726,1.9
727,2.2
728,2.3
729,2.5
730,2.8
731,2.8
732,3
733,3
734,2.9
735,2.9
736,3
737,3.3
738,3.3
739,3.3
740,3.3
741,3.3
742,3.5
743,3.6
744,3.7
745,3.8
746,3.8
747,3.8
748,3.8
749,4
750,4.2
751,4.3
752,4.3
753,4.3
754,4.3
755,4
756,4.3
757,4.4
758,4.4
759,4.3
760,4.3
761,4.1
762,4
763,4.1
764,4.3
765,4.3
766,4
767,3.8
768,3.7
769,3.7
770,3.8
771,3.8
772,3.7
773,3.5
774,3.2
775,3
776,2.9
777,2.7
778,2.5
779,2.3
780,2.3
781,2.2
782,2.2
783,2.1
784,2.1
785,1.9
786,1.6
787,1.6
788,1.4
789,1.1
790,1.1
791,1
792,1
793,0.9
794,0.8
795,0.9
796,0.9
797,0.8
798,0.6
799,0.4
800,0.4
801,0.5
802,0.7
803,0.7
804,0.5
805,0.4
806,0.2
807,0.2
808,0
809,0
810,0
811,0.1
812,0
813,-0.1
814,0
815,0.1
816,0
817,0
818,0
819,0
820,0
821,0.1
822,0
823,0
824,0.1
825,0.1
826,0
827,0
828,0
829,0
830,0
831,0
832,0
833,0
834,0
835,0
836,0.1
837,0.1
838,0.1
839,0
840,0
841,0
842,-0.1
843,0
844,0
845,-0.1
846,0.1
847,0.3
848,0.2
849,0.3
850,0
851,-0.1
852,-0.2
853,-0.1
854,0
855,0
856,-0.2
857,-0.1
858,-0.1
859,0
860,0.1
861,0.5
862,0.5
863,0.4
864,0.2
865,0.1
866,0.1
867,0.2
868,0.1
869,0
870,0.1
871,0.2
872,0.3
873,0.5
874,0.5
875,0.3
876,0.3
877,0.2
878,0.2
879,0.3
880,0.4
881,0.5
882,0.6
883,0.4
884,0.3
885,0.3
886,0.5
887,0.6
888,0.6
889,0.4
890,0.1
891,0.2
892,0.3
893,0.4
894,0.4
895,0.3
896,0.3
897,0.4
898,0.3
899,0.3
900,0.4
901,0.3
902,0.3
903,0.3
904,0.3
905,0.3
906,0.3
907,0.3
908,0.2
909,0.1
910,-0.1
911,0
912,-0.1
913,-0.1
914,0.1
915,0.3
916,0.2
917,0.2
918,0.2
919,0.2
920,0.3
921,0.3
922,0.1
923,0.1
924,0.1
925,0.2
926,0.2
927,0.3
928,0.2
929,0.1
930,0
931,0.1
932,0.1
933,0
934,0
935,0.1
936,0.2
937,0.3
938,0
939,0.1
940,0.2
941,0.2
942,0.1
943,0.2
944,0.4
945,0.3
946,0.2
947,0.1
948,0.1
949,0.1
950,0
951,0.2
952,0.2
953,0.2
954,0.2
955,0.3
956,0.3
957,0.4
958,0.4
959,0.4
960,0.1
961,-0.1
962,-0.2
963,-0.1
964,0
965,0.1
966,0
967,0
968,-0.1
969,0
970,0.2
971,0.1
972,0
973,0
974,0
975,-0.1
976,0.1
977,0.4
978,0.4
979,0.3
980,0.4
981,0.4
982,0.4
983,0.3
984,0.2
985,0.1
986,0.1
987,0
988,0
989,0.1
990,0.2
991,0.3
992,0.3
993,0.2
994,0.1
995,0.1
996,0.1
997,0.1
998,0.1
999,0.2
1000,0.3
1001,0.3
1002,0.4
1003,0.3
1004,0.1
1005,0.1
1006,0.2
1007,0.3
1008,0.4
1009,0.2
1010,0.2
1011,0.2
1012,0.3
1013,0.1
1014,0
1015,0.1
1016,0.2
1017,0.2
1018,0.3
1019,0.3
1020,0.3
1021,0.2
1022,0.3
1023,0.4
1024,0.5
1025,0.5
1026,0.4
1027,0.5
1028,0.4
1029,0.4
1030,0.4
1031,0.6
1032,0.6
1033,0.5
1034,0.2
1035,0.4
1036,0.7
1037,0.8
1038,1
1039,1.3
1040,1.5
1041,1.4
1042,1.3
1043,1.1
1044,1.2
1045,1.3
1046,1.2
1047,1.2
1048,1
1049,0.9
1050,1
1051,0.8
1052,0.7
1053,0.9
1054,1.1
1055,1.3
1056,1.2
1057,1.2
1058,1.1
1059,1
1060,0.7
1061,0.7
1062,0.7
1063,0.7
1064,0.5
1065,0.4
1066,0.1
1067,0.2
1068,0.1
1069,0.1
1070,0
1071,0.1
1072,0.2
1073,0.2
1074,0.1
1075,0
1076,-0.1
1077,0
1078,0
1079,0
1080,0
1081,0
1082,-0.1
1083,-0.1
1084,-0.2
1085,-0.2
1086,-0.2
1087,-0.1
1088,-0.1
1089,0
1090,0.2
1091,0.3
1092,0.2
1093,0
1094,0
1095,-0.2
1096,-0.1
1097,0.2
1098,0.7
1099,1.4
1100,2.2
1101,3.3
1102,4.5
1103,5.9
1104,8
1105,10.7
1106,13.7
1107,16
1108,17.9
1109,19.2
1110,20
1111,19.6
1112,19.1
1113,18.3
1114,16.2
1115,12.1
1116,8.1
1117,5.9
1118,4.5
1119,3.3
1120,1.7
1121,0.4
1122,-0.3
1123,-0.6
1124,-0.8
1125,-0.6
1126,0
1127,-0.1
1128,0
1129,0.1
1130,0.1
1131,0.1
1132,0
1133,0.2
1134,0.4
1135,0.4
1136,0.5
1137,0.5
1138,0.4
1139,0.4
1140,0.4
1141,0.5
1142,0.5
1143,0.4
1144,0.2
1145,0.1
1146,0.2
1147,0
1148,0.1
1149,0.1
1150,0
1151,-0.1
1152,0
1153,0
1154,0
1155,0.2
1156,0.3
1157,0.6
1158,0.5
1159,0.7
1160,0.7
1161,0.6
1162,0.3
1163,0.5
1164,0.7
1165,0.8
1166,0.6
1167,0.7
1168,0.9
1169,0.7
1170,0.5
1171,0.5
1172,0.6
1173,0.7
1174,0.8
1175,0.7
1176,0.7
1177,0.7
1178,0.7
1179,0.9
1180,1.1
1181,1.1
1182,1
1183,0.8
1184,0.6
1185,0.7
1186,0.9
1187,1.1
1188,1.2
1189,1.2
1190,1.2
1191,1.2
1192,1.2
1193,1.2
1194,1.2
1195,1.1
1196,1.1
1197,1.2
1198,1.4
1199,1.7
1200,1.6
1201,1.7
1202,1.8
1203,1.8
1204,1.8
1205,1.6
1206,1.7
1207,1.8
1208,1.9
1209,1.9
1210,2.1
1211,2.1
1212,2.2
1213,2.2
1214,2.2
1215,2.3
1216,2.4
1217,2.8
1218,2.9
1219,2.9
1220,2.8
1221,3
1222,3
1223,3
1224,3.2
1225,3.4
1226,3.5
1227,3.4
1228,3.7
1229,3.8
1230,3.9
1231,3.9
1232,3.9
1233,4
1234,4
1235,4.3
1236,4.8
1237,4.8
1238,4.8
1239,4.8
1240,5
1241,5
1242,5.1
1243,5.1
1244,5.1
1245,5
1246,4.8
1247,4.9
1248,4.8
1249,5.1
1250,5.2
1251,5.1
1252,5.2
1253,5.3
1254,5.1
1255,5
1256,5
1257,5
1258,5
1259,5.1
1260,5
1261,4.8
1262,4.6
1263,4.5
1264,4.4
1265,4.2
1266,4.1
1267,4
1268,4.1
1269,3.9
1270,3.6
1271,3.6
1272,3.6
1273,3.7
1274,3.6
1275,3.3
1276,3
1277,3
1278,2.9
1279,2.5
1280,2.4
1281,2.4
1282,2.2
1283,2.1
1284,2.1
1285,1.9
1286,2
1287,2.1
1288,1.8
1289,1.7
1290,1.7
1291,1.7
1292,1.5
1293,1.4
1294,1.4
1295,1.5
1296,1.5
1297,1.5
1298,1.4
1299,1.3
1300,1.3
1301,1.2
1302,1.1
1303,1.2
1304,1
1305,1.1
1306,1.1
1307,1
1308,1
1309,1.2
1310,1.2
1311,1.2
1312,1.4
1313,1.2
1314,1.2
1315,1.1
1316,1
1317,0.8
1318,0.8
1319,1
1320,1
1321,0.9
1322,0.8
1323,0.8
1324,0.9
1325,1
1326,1
1327,1
1328,1
1329,0.7
1330,0.7
1331,0.8
1332,0.8
1333,1.1
1334,1.2
1335,1.2
1336,1.2
1337,1.2
1338,1.1
1339,1.1
1340,1
1341,0.9
1342,0.9
1343,1
1344,1
1345,0.8
1346,0.7
1347,0.9
1348,1
1349,1.1
1350,1
1351,1
1352,0.7
1353,0.5
1354,0.5
1355,0.7
1356,0.7
1357,0.9
1358,1.1
1359,1.1
1360,0.9
1361,0.8
1362,0.8
1363,0.8
1364,1
1365,1
1366,0.9
1367,0.8
1368,0.9
1369,0.9
1370,0.9
1371,1
1372,1
1373,1.1
1374,1.3
1375,1.1
1376,0.8
1377,0.8
1378,0.8
1379,0.8
1380,0.9
1381,1.1
1382,0.8
1383,0.6
1384,0.5
1385,0.9
1386,0.9
1387,0.7
1388,0.8
1389,0.9
1390,0.7
1391,0.6
1392,0.7
1393,1
1394,0.9
1395,0.9
1396,1.2
1397,0.9
1398,0.7
1399,0.7
1400,0.7
1401,0.8
1402,0.8
1403,0.8
1404,0.7
1405,0.5
1406,0.3
1407,0.4
1408,0.6
1409,0.4
1410,0.4
1411,0.5
1412,0.5
1413,0.6
1414,0.7
1415,0.7
1416,0.7
1417,0.6
1418,0.6
1419,0.5
1420,0.4
1421,0.5
1422,0.6
1423,0.7
1424,0.7
1425,0.8
1426,0.7
1427,0.7
1428,0.6
1429,0.6
1430,0.6
1431,0.5
1432,0.4
1433,0.3
1434,0.1
1435,0.2
1436,0.5
1437,0.6
1438,0.5
1439,0.3
1440,0.3
1441,0.2
1442,0.2
1443,0.4
1444,0.6
1445,0.6
1446,0.5
1447,0.4
1448,0.4
1449,0.5
1450,0.5
1451,0.4
1452,0.4
1453,0.3
1454,0.1
1455,0.3
1456,0.4
1457,0.3
1458,0.5
1459,0.3
1460,0.4
1461,0.6
1462,0.5
1463,0.4
1464,0.3
1465,0.2
1466,0.4
1467,0.4
1468,0.2
1469,0.2
1470,0.3
1471,0.5
1472,0.3
1473,0.1
1474,0.3
1475,0
1476,0
1477,0.1
1478,0.2
1479,0.4
1480,0.4
1481,0.2
1482,0
1483,0
1484,0.1
1485,0.2
1486,0.2
1487,0.1
1488,-0.1
1489,-0.1
1490,0
1491,0.1
1492,0.3
1493,0.6
1494,0.6
1495,0.6
1496,0.6
1497,0.5
1498,0.4
1499,0.4
1500,0.3
1501,0.2
1502,0.4
1503,0.4
1504,0.4
1505,0.6
1506,0.8
1507,0.8
1508,0.8
1509,0.9
1510,0.9
1511,1
1512,1
1513,0.9
1514,0.9
1515,0.9
1516,0.9
1517,0.8
1518,1
1519,1.1
1520,1.2
1521,1
1522,0.6
1523,0.6
1524,0.5
1525,0.4
1526,0.3
1527,0.4
1528,0.4
1529,0.4
1530,0.4
1531,0.5
1532,0.5
1533,0.4
1534,0.3
1535,0.1
1536,0
1537,0
1538,-0.1
1539,-0.2
1540,-0.2
1541,-0.1
1542,-0.3
1543,-0.4
1544,-0.6
1545,-0.6
1546,-0.5
1547,-0.6
1548,-0.6
1549,-0.6
1550,-0.5
1551,-0.5
1552,-0.4
1553,-0.3
1554,-0.4
1555,-0.5
1556,-0.7
1557,-0.8
1558,-0.6
1559,-0.4
1560,-0.4
1561,-0.4
1562,-0.5
1563,-0.6
1564,-0.6
1565,-0.6
1566,-0.6
1567,-0.7
1568,-0.4
1569,0.1
1570,0.9
1571,2.2
1572,3.2
1573,4.3
1574,6.6
1575,9.5
1576,13
1577,15.5
1578,17.4
1579,19.1
1580,20.3
1581,19.9
1582,19.4
1583,18.5
1584,16.9
1585,13.3
1586,9
1587,6.1
1588,4.3
1589,2.7
1590,1.1
1591,-0.6
1592,-1.8
1593,-2.5
1594,-2.6
1595,-2.3
1596,-2.2
1597,-2.2
1598,-2.1
1599,-1.6
1600,-1.3
1601,-1.1
1602,-1
1603,-0.8
1604,-0.9
1605,-0.6
1606,-0.5
1607,-0.6
1608,-0.7
1609,-0.8
1610,-0.9
1611,-1
1612,-0.9
1613,-1
1614,-1
1615,-0.9
1616,-0.7
1617,-0.7
1618,-0.7
1619,-0.8
1620,-1
1621,-1
1622,-0.9
1623,-0.8
1624,-0.8
1625,-1
1626,-0.9
1627,-0.9
1628,-0.8
1629,-0.8
1630,-1
1631,-0.9
1632,-1
1633,-1.3
1634,-1.1
1635,-1
1636,-0.8
1637,-1
1638,-0.9
1639,-0.9
1640,-0.9
1641,-0.8
1642,-0.8
1643,-0.6
1644,-0.5
1645,-0.6
1646,-0.6
1647,-0.6
1648,-0.9
1649,-1
1650,-1.1
1651,-0.9
1652,-0.8
1653,-0.8
1654,-1
1655,-1.2
1656,-1.1
1657,-1
1658,-1
1659,-1
1660,-0.8
1661,-0.5
1662,-0.7
1663,-0.8
1664,-0.5
1665,-0.5
1666,-0.6
1667,-0.7
1668,-0.6
1669,-0.5
1670,-0.1
1671,-0.1
1672,-0.3
1673,-0.4
1674,-0.2
1675,-0.1
1676,-0.2
1677,-0.2
1678,-0.3
1679,-0.1
1680,0.2
1681,0.3
1682,0.1
1683,0.1
1684,0.1
1685,0.3
1686,0.2
1687,0.2
1688,0.1
1689,0.1
1690,0.3
1691,0.4
1692,0.5
1693,0.7
1694,0.8
1695,0.8
1696,0.8
1697,0.9
1698,1
1699,1.2
1700,1.3
1701,1.3
1702,1.4
1703,1.4
1704,1.4
1705,1.5
1706,1.5
1707,1.6
1708,1.6
1709,1.5
1710,1.8
1711,2.1
1712,2.1
1713,2
1714,1.9
1715,1.9
1716,2
1717,1.9
1718,2
1719,2.1
1720,2.3
1721,2.3
1722,2.4
1723,2.4
1724,2.3
1725,2.2
1726,2.1
1727,2.1
1728,2.2
1729,2.1
1730,1.9
1731,1.7
1732,1.9
1733,1.6
1734,1.5
1735,1.2
1736,1
1737,0.9
1738,0.6
1739,0.4
1740,0.4
1741,0.2
1742,0.1
1743,0
1744,-0.1
1745,-0.4
1746,-0.5
1747,-0.4
1748,-0.3
1749,-0.3
1750,-0.4
1751,-0.6
1752,-0.9
1753,-1.2
1754,-1.3
1755,-1.4
1756,-1.4
1757,-1.7
1758,-1.8
1759,-1.7
1760,-1.6
1761,-1.8
1762,-1.8
1763,-1.9
1764,-1.8
1765,-1.8
1766,-1.9
1767,-1.9
1768,-2.1
1769,-2.2
1770,-2.1
1771,-2.1
1772,-2.2
1773,-2.2
1774,-2.3
1775,-2.5
1776,-2.4
1777,-2.2
1778,-2.4
1779,-2.4
1780,-2.3
1781,-2.3
1782,-2.4
1783,-2.3
1784,-2.4
1785,-2.6
1786,-2.4
1787,-2.4
1788,-2.4
1789,-2.4
1790,-2.2
1791,-2.2
1792,-2.3
1793,-2.4
1794,-2.5
1795,-2.7
1796,-2.8
1797,-2.6
1798,-2.3
1799,-2.3
1800,-2.1
1801,-2.3
1802,-2.4
1803,-2.2
1804,-2.4
1805,-2.3
1806,-2.5
1807,-2.4
1808,-2.2
1809,-2.2
1810,-2.1
1811,-2.1
1812,-2.1
1813,-2.1
1814,-2.2
1815,-2.2
1816,-2.2
1817,-2.1
1818,-2
1819,-1.9
1820,-1.6
1821,-1.8
1822,-1.8
1823,-1.8
1824,-1.7
1825,-1.8
1826,-1.7
1827,-1.8
1828,-1.6
1829,-1.6
1830,-1.7
1831,-1.6
1832,-1.8
1833,-1.9
1834,-1.8
1835,-1.7
1836,-1.8
1837,-1.8
1838,-1.7
1839,-1.6
1840,-1.7
1841,-1.7
1842,-1.7
1843,-1.6
1844,-1.7
1845,-1.8
1846,-1.9
1847,-1.8
1848,-1.6
1849,-1.6
1850,-1.6
1851,-1.7
1852,-1.7
1853,-1.7
1854,-1.6
1855,-1.7
1856,-1.6
1857,-1.5
1858,-1.5
1859,-1.4
1860,-1.4
1861,-1.6
1862,-1.6
1863,-1.6
1864,-1.6
1865,-1.7
1866,-1.8
1867,-1.8
1868,-1.8
1869,-1.8
1870,-1.8
1871,-1.8
1872,-1.8
1873,-1.8
1874,-1.8
1875,-1.8
1876,-1.7
1877,-1.7
1878,-1.8
1879,-1.7
1880,-1.7
1881,-1.6
1882,-1.8
1883,-1.8
1884,-1.5
1885,-1.5
1886,-1.8
1887,-1.7
1888,-1.7
1889,-1.7
1890,-1.9
1891,-2
1892,-1.9
1893,-1.9
1894,-2.2
1895,-2.2
1896,-2.1
1897,-2
1898,-1.9
1899,-1.8
1900,-1.8
1901,-1.7
1902,-1.8
1903,-2
1904,-2.2
1905,-2.3
1906,-2
1907,-1.7
1908,-1.7
1909,-1.7
1910,-1.6
1911,-1.8
1912,-1.7
1913,-1.7
1914,-1.7
1915,-1.7
1916,-1.7
1917,-1.7
1918,-2
1919,-1.9
1920,-1.8
1921,-1.6
1922,-1.7
1923,-1.7
1924,-1.7
1925,-1.7
1926,-1.9
1927,-1.7
1928,-1.7
1929,-1.8
1930,-1.8
1931,-1.7
1932,-1.8
1933,-2
1934,-2
1935,-1.8
1936,-1.7
1937,-1.9
1938,-1.9
1939,-1.9
1940,-1.8
1941,-1.8
1942,-1.7
1943,-1.8
1944,-1.9
1945,-1.8
1946,-2
1947,-1.9
1948,-1.7
1949,-1.5
1950,-1.5
1951,-1.5
1952,-1.5
1953,-1.3
1954,-1.4
1955,-1.5
1956,-1.4
1957,-1.5
1958,-1.5
1959,-1.1
1960,-1.1
1961,-1.3
1962,-1.4
1963,-1.2
1964,-1.1
1965,-1.1
1966,-1.1
1967,-1.1
1968,-1
1969,-0.8
1970,-0.7
1971,-0.7
1972,-0.5
1973,-0.4
1974,-0.2
1975,-0.2
1976,-0.4
1977,-0.5
1978,-0.6
1979,-0.4
1980,-0.4
1981,-0.4
1982,-0.5
1983,-0.5
1984,-0.3
1985,-0.2
1986,-0.4
1987,-0.3
1988,-0.2
1989,-0.3
1990,-0.4
1991,-0.4
1992,-0.4
1993,-0.6
1994,-0.8
1995,-0.6
1996,-0.6
1997,-0.8
1998,-0.7
1999,-0.8
2000,-0.9
2001,-1
2002,-1.3
2003,-1.6
2004,-1.6
2005,-1.6
2006,-1.6
2007,-1.4
2008,-1.5
2009,-1.4
2010,-1.1
2011,-1.1
2012,-1.1
2013,-1.2
2014,-1.3
2015,-1.4
2016,-1.3
2017,-1.2
2018,-1.3
2019,-1.1
2020,-1.1
2021,-1.2
2022,-1.2
2023,-1.3
2024,-1.3
2025,-1.6
2026,-1.6
2027,-1.5
2028,-1.6
2029,-1.3
2030,-1.3
2031,-1.3
2032,-1.3
2033,-1.3
2034,-1.2
2035,-1.1
2036,-0.4
2037,0.6
2038,1.7
2039,2.8
2040,3.9
2041,5.8
2042,8.8
2043,11.7
2044,14.1
2045,16.1
2046,17.9
2047,19.2
2048,19
2049,18.5
2050,17.8
2051,16.7
2052,13.3
2053,9.1
2054,6.2
2055,4.2
2056,2.7
2057,1.2
2058,-0.4
2059,-1.6
2060,-2.3
2061,-2.5
2062,-2.3
2063,-1.6
2064,-1.6
2065,-1.6
2066,-1.4
2067,-1.3
2068,-1.1
2069,-0.9
2070,-0.7
2071,-0.6
2072,-0.7
2073,-0.8
2074,-0.7
2075,-0.5
2076,-0.5
2077,-0.6
2078,-0.7
2079,-0.9
2080,-0.9
2081,-0.7
2082,-0.6
2083,-0.7
2084,-0.8
2085,-0.7
2086,-0.6
2087,-0.6
2088,-0.9
2089,-0.9
2090,-0.6
2091,-0.5
2092,-0.6
2093,-0.4
2094,-0.3
2095,-0.3
2096,-0.3
2097,-0.3
2098,-0.4
2099,-0.4
2100,-0.3
2101,-0.3
2102,-0.4
2103,-0.2
2104,0.1
2105,0
2106,0
2107,-0.1
2108,0
2109,-0.2
2110,-0.1
2111,0
2112,0
2113,0.1
2114,0.2
2115,0
2116,0.1
2117,0.2
2118,0.3
2119,0.4
2120,0.5
2121,0.4
2122,0.3
2123,0.4
2124,0.4
2125,0.5
2126,0.5
2127,0.7
2128,0.6
2129,0.5
2130,0.6
2131,0.5
2132,0.7
2133,0.9
2134,0.9
2135,0.9
2136,0.7
2137,0.8
2138,0.9
2139,1.2
2140,1
2141,0.9
2142,1.1
2143,1.1
2144,1.1
2145,1.2
2146,1.2
2147,1.3
2148,1.3
2149,1.3
2150,1.3
2151,1.4
2152,1.7
2153,1.7
2154,1.8
2155,1.9
2156,1.9
2157,2
2158,2.3
2159,2.4
2160,2.3
2161,2.3
2162,2.2
2163,2.3
2164,2.3
2165,2.4
2166,2.5
2167,2.7
2168,2.9
2169,2.9
2170,3
2171,3.2
2172,3.5
2173,3.7
2174,3.7
2175,3.9
2176,4
2177,4
2178,4
2179,4
2180,4
2181,4.1
2182,4.1
2183,4.2
2184,4.3
2185,4.3
2186,4.2
2187,4.2
2188,4.2
2189,4.3
2190,4.3
2191,4.1
2192,4.1
2193,4.1
2194,4
2195,3.9
2196,3.8
2197,3.8
2198,3.8
2199,3.7
2200,3.8
2201,3.8
2202,3.4
2203,3.2
2204,3.2
2205,3.2
2206,3.1
2207,3
2208,2.8
2209,2.6
2210,2.5
2211,2.1
2212,2.1
2213,2.1
2214,1.9
2215,1.7
2216,1.5
2217,1.3
2218,1.5
2219,1.4
2220,1.3
2221,1.2
2222,1.1
2223,1
2224,0.9
2225,0.8
2226,0.8
2227,0.7
2228,0.5
2229,0.5
2230,0.5
2231,0.6
2232,0.7
2233,0.6
2234,0.6
2235,0.6
2236,0.5
2237,0.2
2238,0.1
2239,-0.1
2240,0
2241,0
2242,0.2
2243,0.3
2244,0.3
2245,0.1
2246,0.2
2247,0.2
2248,0.2
2249,0.3
2250,0.3
2251,0.2
2252,0.2
2253,0.3
2254,0.3
2255,0.3
2256,0.2
2257,0.2
2258,0.5
2259,0.4
2260,0.3
2261,0.4
2262,0.2
2263,0.2
2264,0.2
2265,0.2
2266,0.3
2267,0.4
2268,0.4
2269,0.5
2270,0.6
2271,0.7
2272,0.5
2273,0.5
2274,0.4
2275,0.4
2276,0.3
2277,0.3
2278,0.2
2279,0.2
2280,0.2
2281,0.3
2282,0.4
2283,0.5
2284,0.5
2285,0.6
2286,0.5
2287,0.6
2288,0.6
2289,0.6
2290,0.7
2291,0.6
2292,0.5
2293,0.6
2294,0.5
2295,0.5
2296,0.5
2297,0.7
2298,0.9
2299,0.9
2300,0.7
2301,0.7
2302,0.8
2303,0.9
2304,0.9
2305,0.8
2306,1
2307,0.9
2308,0.7
2309,0.5
2310,0.5
2311,0.4
2312,0.5
2313,0.6
2314,0.8
2315,0.7
2316,0.8
2317,0.8
2318,0.7
2319,0.7
2320,0.7
2321,0.8
2322,0.8
2323,0.6
2324,0.4
2325,0.6
2326,0.7
2327,0.7
2328,0.6
2329,0.7
2330,0.8
2331,0.7
2332,0.6
2333,0.5
2334,0.5
2335,0.8
2336,0.8
2337,0.5
2338,0.4
2339,0.3
2340,0.2
2341,0.2
2342,0.4
2343,0.6
2344,0.7
2345,0.6
2346,0.6
2347,0.6
2348,0.6
2349,0.4
2350,0.3
2351,0.4
2352,0.4
2353,0.4
2354,0.4
2355,0.6
2356,0.4
2357,0.4
2358,0.6
2359,0.6
2360,0.6
2361,0.4
2362,0.3
2363,0.4
2364,0.3
2365,0.4
2366,0.1
2367,0.1
2368,0.1
2369,0.1
2370,0.2
2371,0
2372,0
2373,0.1
2374,0.2
2375,0.1
2376,0.3
2377,0.3
2378,0.4
2379,0.3
2380,0.3
2381,0.3
2382,0.1
2383,0
2384,0
2385,0.1
2386,0.2
2387,0.3
2388,0.1
2389,0
2390,0.2
2391,0.1
2392,0.2
2393,0.1
2394,0
2395,0
2396,0.1
2397,0.4
2398,0.6
2399,0.4
2400,0.2
2401,0.2
2402,0
2403,0.1
2404,0.2
2405,0.2
2406,0.2
2407,0.1
2408,0.2
2409,0.1
2410,0.1
2411,0.1
2412,0.2
2413,0.3
2414,0.3
2415,0.3
2416,0.2
2417,0.1
2418,0
2419,0
2420,0
2421,0
2422,0.2
2423,0.4
2424,0.3
2425,0.2
2426,0.1
2427,0
2428,0
2429,0
2430,0.1
2431,0.1
2432,0.2
2433,0.3
2434,0.3
2435,0.3
2436,0.2
2437,0.3
2438,0.2
2439,0.3
2440,0.5
2441,0.3
2442,0.1
2443,0
2444,0
2445,0.1
2446,0.5
2447,0.6
2448,0.8
2449,0.7
2450,0.7
2451,0.7
2452,0.8
2453,0.6
2454,0.5
2455,0.4
2456,0.4
2457,0.7
2458,0.9
2459,0.9
2460,1
2461,1.2
2462,1.2
2463,0.9
2464,0.9
2465,0.9
2466,0.9
2467,1
2468,0.9
2469,1
2470,1.2
2471,1.1
2472,1.1
2473,1.1
2474,1
2475,1
2476,1.2
2477,1.1
2478,1.1
2479,0.8
2480,0.7
2481,0.8
2482,0.7
2483,0.6
2484,0.4
2485,0
2486,-0.1
2487,0
2488,0.3
2489,0.1
2490,0
2491,-0.1
2492,0
2493,-0.2
2494,0
2495,-0.1
2496,0
2497,-0.1
2498,-0.3
2499,-0.3
2500,-0.1
2501,0
2502,0
2503,0
2504,0.2
2505,0
2506,-0.1
2507,-0.2
2508,-0.2
2509,-0.2
2510,-0.2
2511,-0.2
2512,-0.3
2513,-0.3
2514,-0.3
2515,-0.1
2516,-0.1
2517,-0.1
2518,-0.1
2519,0.1
2520,0.7
2521,1.5
2522,2.7
2523,3.7
2524,4.9
2525,6.8
2526,9.4
2527,12.4
2528,14.8
2529,16.9
2530,18.5
2531,19.8
2532,19.7
2533,18.9
2534,18.2
2535,16.9
2536,13.9
2537,9.8
2538,6.7
2539,4.8
2540,3.4
2541,2.2
2542,0.7
2543,-0.1
2544,-0.5
2545,-0.8
2546,-0.9
2547,-0.5
2548,-0.2
2549,-0.2
2550,-0.2
2551,-0.1
2552,0
2553,0
2554,0
2555,0
2556,0
2557,0
2558,0
2559,-0.1
2560,0
2561,0.2
2562,0.1
2563,0
2564,0
2565,0
2566,-0.1
2567,0
2568,0
2569,0
2570,0
2571,0
2572,0
2573,0
2574,0
2575,0
2576,-0.1
2577,0
2578,0.1
2579,0
2580,0
2581,0.1
2582,0
2583,0
2584,0.2
2585,0.2
2586,0
2587,0
2588,0
2589,0
2590,0
2591,0.2
2592,0.2
2593,0.3
2594,0.4
2595,0.5
2596,0.6
2597,0.3
2598,0.3
2599,0.2
2600,0.1
2601,0.3
2602,0.4
2603,0.4
2604,0.3
2605,0.5
2606,0.6
2607,0.8
2608,0.8
2609,0.6
2610,0.5
2611,0.5
2612,0.4
2613,0.4
2614,0.4
2615,0.8
2616,1
2617,1
2618,0.9
2619,1.1
2620,1.2
2621,1.2
2622,1.2
2623,1.1
2624,1.2
2625,1.2
2626,1.2
2627,1.1
2628,1.3
2629,1.6
2630,1.7
2631,1.6
2632,1.7
2633,1.7
2634,1.6
2635,1.6
2636,1.7
2637,1.8
2638,1.9
2639,1.8
2640,2
2641,2.3
2642,2.2
2643,2.1
2644,2.4
2645,2.7
2646,2.7
2647,2.9
2648,3.1
2649,3.3
2650,3.3
2651,3.5
2652,3.6
2653,3.4
2654,3.4
2655,3.6
2656,3.5
2657,3.8
2658,3.9
2659,4.1
2660,4.2
2661,4.2
2662,4.4
2663,4.5
2664,4.4
2665,4.3
2666,4.3
2667,4.3
2668,4.4
2669,4.4
2670,4.5
2671,4.5
2672,4.6
2673,4.6
2674,4.8
2675,4.7
2676,4.5
2677,4.4
2678,4.5
2679,4.4
2680,4.4
2681,4.3
2682,4.2
2683,4.1
2684,4.1
2685,4.1
2686,3.9
2687,3.6
2688,3.3
2689,3.2
2690,3
2691,2.9
2692,2.9
2693,2.8
2694,2.7
2695,2.4
2696,2.3
2697,2.2
2698,2.2
2699,2.1
2700,2
2701,1.9
2702,1.7
2703,1.4
2704,1.4
2705,1.4
2706,1.4
2707,1.3
2708,1.1
2709,1
2710,1.1
2711,0.7
2712,0.6
2713,0.7
2714,0.6
2715,0.4
2716,0.4
2717,0.3
2718,0.4
2719,0.3
2720,0.4
2721,0.6
2722,0.5
2723,0.4
2724,0.4
2725,0.4
2726,0.5
2727,0.5
2728,0.6
2729,0.6
2730,0.5
2731,0.5
2732,0.6
2733,0.5
2734,0.5
2735,0.5
2736,0.4
2737,0.4
2738,0.6
2739,0.4
2740,0.3
2741,0.3
2742,0.3
2743,0.2
2744,0.2
2745,0.1
2746,0.2
2747,0.5
2748,0.4
2749,0.3
2750,0.3
2751,0.4
2752,0.4
2753,0.4
2754,0.2
2755,0.2
2756,0.3
2757,0.2
2758,0.2
2759,0.4
2760,0.2
2761,0.3
2762,0.3
2763,0.2
2764,0.1
2765,0.2
2766,0.4
2767,0.3
2768,0.2
2769,0
2770,0.1
2771,0.2
2772,0.2
2773,0.3
2774,0.6
2775,0.7
2776,0.7
2777,0.6
2778,0.6
2779,0.5
2780,0.4
2781,0.4
2782,0.5
2783,0.2
2784,0.3
2785,0.4
2786,0.3
2787,0.3
2788,0.2
2789,0.3
2790,0.5
2791,0.5
2792,0.5
2793,0.5
2794,0.6
2795,0.4
2796,0.4
2797,0.4
2798,0.3
2799,0.3
2800,0.5
2801,0.5
2802,0.4
2803,0.4
2804,0.4
2805,0.4
2806,0.4
2807,0.5
2808,0.6
2809,0.6
2810,0.4
2811,0.3
2812,0.3
2813,0.3
2814,0.3
2815,0.2
2816,0.2
2817,0.2
2818,0.1
2819,0.1
2820,0
2821,0.3
2822,0.3
2823,0.3
2824,0.2
2825,0.1
2826,0.2
2827,0.4
2828,0.4
2829,0.5
2830,0.3
2831,0.2
2832,0.2
2833,0.4
2834,0.3
2835,0.3
2836,0.2
2837,0.1
2838,0
2839,0
2840,0
2841,0
2842,0.1
2843,0
2844,0
2845,0.3
2846,0.3
2847,0.2
2848,0.1
2849,0.1
2850,0.2
2851,0.2
2852,0.2
2853,0.3
2854,0.1
2855,0
2856,-0.1
2857,-0.2
2858,-0.1
2859,0
2860,0
2861,0.1
2862,0.2
2863,0.3
2864,0.4
2865,0.4
2866,0.2
2867,0
2868,0
2869,-0.1
2870,-0.1
2871,-0.2
2872,-0.2
2873,-0.2
2874,-0.2
2875,0
2876,0.1
2877,0.1
2878,0.1
2879,0.3
2880,0.3
2881,0.3
2882,0.3
2883,0.2
2884,0.2
2885,0.2
2886,0.1
2887,0
2888,0
2889,0.1
2890,0
2891,0.1
2892,0.1
2893,0
2894,0
2895,0.1
2896,0
2897,0.2
2898,0.2
2899,0.1
2900,0
2901,-0.1
2902,-0.1
2903,0
2904,0
2905,0
2906,0
2907,0
2908,-0.1
2909,0
2910,0.1
2911,0.2
2912,0.3
2913,0.1
2914,0.1
2915,0
2916,0.1
2917,0.1
2918,-0.1
2919,0
2920,0
2921,0.2
2922,0.5
2923,0.3
2924,0.3
2925,0.1
2926,0.1
2927,0.2
2928,0.2
2929,0.4
2930,0.4
2931,0.3
2932,0.3
2933,0.4
2934,0.6
2935,0.4
2936,0.4
2937,0.5
2938,0.4
2939,0.4
2940,0.6
2941,0.8
2942,0.7
2943,0.7
2944,0.7
2945,0.5
2946,0.7
2947,1
2948,1.1
2949,1.1
2950,1.3
2951,1.2
2952,1.1
2953,1.1
2954,1.2
2955,1.1
2956,1.2
2957,1.1
2958,1.1
2959,1
2960,0.8
2961,0.9
2962,1
2963,1.2
2964,1.1
2965,0.8
2966,0.8
2967,0.7
2968,0.5
2969,0.4
2970,0.4
2971,0.3
2972,0.3
2973,0.2
2974,0.1
2975,0.1
2976,0.3
2977,0.3
2978,0.2
2979,0.1
2980,0
2981,0
2982,0
2983,0
2984,0.1
2985,0.1
2986,0.2
2987,0.2
2988,0.3
2989,0.3
2990,0.3
2991,0.3
2992,0.1
2993,0.1
2994,0
2995,0
2996,0
2997,-0.1
2998,-0.1
2999,0
3000,0
3001,-0.3
3002,-0.3
3003,-0.2
3004,0.1
3005,0.4
3006,0.7
3007,1.4
3008,2.4
3009,3.5
3010,4.4
3011,5.9
3012,8.2
3013,11.4
3014,14.4
3015,16.4
3016,18.3
3017,19.9
3018,20.1
3019,19.4
3020,18.8
3021,17.7
3022,15.4
3023,11.2
3024,7.8
3025,5.9
3026,4.9
3027,3.5
3028,1.8
3029,0.6
3030,-0.1
3031,-0.4
3032,-0.7
3033,-0.2
3034,0.1
3035,0
3036,0
3037,0.2
3038,0.4
3039,0.4
3040,0.4
3041,0.5
3042,0.7
3043,0.7
3044,0.7
3045,0.6
3046,0.6
3047,0.7
3048,0.6
3049,0.5
3050,0.6
3051,0.7
3052,0.6
3053,0.6
3054,0.4
3055,0.4
3056,0.4
3057,0.5
3058,0.7
3059,0.9
3060,0.8
3061,0.9
3062,0.9
3063,0.9
3064,0.7
3065,0.6
3066,0.6
3067,0.6
3068,0.6
3069,0.8
3070,0.8
3071,1
3072,1
3073,1.1
3074,1.2
3075,1.1
3076,1.2
3077,1
3078,1
3079,1.1
3080,1.2
3081,1.2
3082,1.2
3083,1.4
3084,1.4
3085,1.4
3086,1.4
3087,1.2
3088,1.1
3089,1.1
3090,1.4
3091,1.5
3092,1.7
3093,1.7
3094,1.6
3095,1.7
3096,1.8
3097,1.6
3098,1.4
3099,1.4
3100,1.5
3101,1.5
3102,1.6
3103,1.5
3104,1.7
3105,1.9
3106,1.8
3107,1.7
3108,1.8
3109,1.7
3110,1.8
3111,2
3112,2.1
3113,2.1
3114,2.1
3115,2.2
3116,2.2
3117,2.2
3118,2.3
3119,2.2
3120,2.3
3121,2.4
3122,2.6
3123,2.9
3124,3.2
3125,3.3
3126,3.4
3127,3.3
3128,3.6
3129,3.8
3130,4
3131,3.9
3132,3.8
3133,3.9
3134,3.7
3135,4
3136,4.1
3137,3.9
3138,4.2
3139,4.4
3140,4.6
3141,4.7
3142,4.8
3143,4.7
3144,4.8
3145,5.2
3146,5.4
3147,5.3
3148,5.3
3149,5.3
3150,5.3
3151,5.5
3152,5.5
3153,5.5
3154,5.7
3155,5.8
3156,6
3157,5.9
3158,5.8
3159,5.9
3160,6
3161,6.1
3162,6
3163,6
3164,5.7
3165,5.7
3166,5.8
3167,5.7
3168,5.6
3169,5.4
3170,5.4
3171,5.1
3172,5
3173,4.9
3174,4.8
3175,4.8
3176,4.7
3177,4.5
3178,4.2
3179,4
3180,4.1
3181,4.1
3182,3.9
3183,3.8
3184,3.6
3185,3.5
3186,3.5
3187,3.3
3188,3.1
3189,3
3190,3.1
3191,2.9
3192,2.7
3193,2.6
3194,2.6
3195,2.6
3196,2.5
3197,2.4
3198,2.5
3199,2.5
3200,2.5
3201,2.3
3202,2.1
3203,2
3204,2
3205,2.1
3206,1.9
3207,1.7
3208,1.7
3209,1.5
3210,1.7
3211,1.7
3212,1.6
3213,1.7
3214,1.9
3215,1.9
3216,1.9
3217,2
3218,2.3
3219,2.3
3220,2.3
3221,2.2
3222,2.2
3223,2
3224,2.1
3225,2.1
3226,2.1
3227,2.1
3228,2
3229,2
3230,1.8
3231,1.6
3232,1.6
3233,1.8
3234,2.1
3235,2.1
3236,2.1
3237,2.2
3238,2.1
3239,2
3240,2
3241,2
3242,1.7
3243,1.9
3244,2
3245,2
3246,2.1
3247,2
3248,1.9
3249,2.1
3250,2
3251,2
3252,2.1
3253,2.1
3254,2
3255,2
3256,2.3
3257,2.3
3258,2.1
3259,1.9
3260,1.8
3261,2.1
3262,2.1
3263,2.1
3264,2.2
3265,2.1
3266,2
3267,1.9
3268,2
3269,2.1
3270,2.2
3271,2.2
3272,2.4
3273,2.3
3274,2.4
3275,2.4
3276,2.4
3277,2.5
3278,2.4
3279,2.2
3280,2
3281,1.8
3282,1.9
3283,1.8
3284,1.6
3285,1.6
3286,1.9
3287,2.2
3288,2.4
3289,2.3
3290,2.2
3291,2
3292,2
3293,1.9
3294,1.9
3295,1.7
3296,1.6
3297,1.7
3298,1.8
3299,2
3300,2.1
3301,2
3302,1.7
3303,1.7
3304,1.7
3305,1.5
3306,1.3
3307,1.3
3308,1.3
3309,1.4
3310,1.4
3311,1.4
3312,1.4
3313,1.6
3314,1.6
3315,1.4
3316,1.4
3317,1.5
3318,1.3
3319,0.9
3320,0.8
3321,1
3322,0.9
3323,1
3324,1
3325,0.7
3326,0.6
3327,0.6
3328,0.6
3329,0.5
3330,0.6
3331,0.5
3332,0.5
3333,0.5
3334,0.5
3335,0.4
3336,0.5
3337,0.7
3338,0.9
3339,0.7
3340,0.7
3341,0.8
3342,0.6
3343,0.4
3344,0.3
3345,0.2
3346,0
3347,-0.1
3348,0.1
3349,0.2
3350,0.2
3351,0.4
3352,0.3
3353,0
3354,-0.1
3355,0
3356,0
3357,0.1
3358,0.1
3359,-0.1
3360,0
3361,-0.1
3362,-0.1
3363,-0.1
3364,-0.1
3365,0
3366,0.1
3367,0
3368,0
3369,0
3370,0.1
3371,0.1
3372,0
3373,-0.3
3374,-0.4
3375,-0.3
3376,-0.2
3377,-0.2
3378,-0.5
3379,-0.6
3380,-0.6
3381,-0.6
3382,-0.7
3383,-0.6
3384,-0.4
3385,-0.4
3386,-0.4
3387,-0.3
3388,-0.3
3389,-0.4
3390,-0.2
3391,-0.2
3392,-0.4
3393,-0.6
3394,-0.4
3395,-0.4
3396,-0.2
3397,-0.1
3398,-0.2
3399,-0.2
3400,-0.1
3401,-0.3
3402,-0.3
3403,-0.4
3404,-0.4
3405,-0.4
3406,-0.3
3407,-0.3
3408,-0.3
3409,-0.2
3410,0
3411,0
3412,0.1
3413,0.2
3414,0.3
3415,0.3
3416,0.5
3417,0.4
3418,0.3
3419,0.2
3420,0.1
3421,0.1
3422,0
3423,0
3424,0.1
3425,-0.1
3426,-0.1
3427,0
3428,0
3429,0
3430,0.2
3431,0
3432,-0.2
3433,-0.5
3434,-0.6
3435,-0.6
3436,-0.8
3437,-1.2
3438,-1.4
3439,-1.4
3440,-1.4
3441,-1.2
3442,-1.2
3443,-1.2
3444,-1.2
3445,-1.4
3446,-1.6
3447,-1.6
3448,-1.4
3449,-1.5
3450,-1.7
3451,-1.7
3452,-1.7
3453,-1.9
3454,-2
3455,-1.9
3456,-1.7
3457,-1.7
3458,-1.7
3459,-1.9
3460,-1.8
3461,-1.9
3462,-1.7
3463,-1.9
3464,-2.1
3465,-2
3466,-2.1
3467,-2.3
3468,-2.1
3469,-2
3470,-2.1
3471,-2
3472,-1.5
3473,-0.9
3474,0
3475,1.2
3476,2.7
3477,4.3
3478,6.9
3479,10.3
3480,13.1
3481,15.2
3482,16.8
3483,18
3484,18.3
3485,17.9
3486,17.4
3487,16.1
3488,13.1
3489,8.7
3490,5.4
3491,3.4
3492,1.9
3493,0.6
3494,-1.2
3495,-2.7
3496,-3.6
3497,-4.1
3498,-4.1
3499,-3.9
3500,-3.8
3501,-3.7
3502,-3.5
3503,-3.4
3504,-3.4
3505,-3.4
3506,-3.2
3507,-2.9
3508,-2.7
3509,-2.6
3510,-2.6
3511,-2.6
3512,-2.5
3513,-2.6
3514,-2.8
3515,-2.9
3516,-3
3517,-3.1
3518,-3
3519,-3.1
3520,-3.1
3521,-2.7
3522,-2.6
3523,-2.7
3524,-3
3525,-3.1
3526,-3
3527,-3.1
3528,-3
3529,-3.3
3530,-3.1
3531,-2.9
3532,-3
3533,-3.2
3534,-3.3
3535,-3.1
3536,-3.1
3537,-3.2
3538,-3.3
3539,-3.3
3540,-3.2
3541,-3.2
3542,-3.2
3543,-3.2
3544,-3
3545,-3
3546,-3.2
3547,-3.3
3548,-3.3
3549,-3.3
3550,-3.2
3551,-3.2
3552,-3.2
3553,-3.1
3554,-3
3555,-2.9
3556,-2.9
3557,-3.1
3558,-3.1
3559,-3.1
3560,-3
3561,-3
3562,-3.1
3563,-3.1
3564,-2.9
3565,-2.9
3566,-2.8
3567,-3
3568,-3
3569,-2.8
3570,-2.7
3571,-2.8
3572,-2.8
3573,-2.8
3574,-2.9
3575,-3
3576,-3
3577,-2.7
3578,-2.5
3579,-2.7
3580,-2.5
3581,-2.3
3582,-2.3
3583,-2.2
3584,-2.1
3585,-2.1
3586,-2.1
3587,-2.1
3588,-2.1
3589,-2
3590,-1.6
3591,-1.3
3592,-1.4
3593,-1.4
3594,-1.5
3595,-1.4
3596,-1.2
3597,-0.9
3598,-0.7
3599,-0.5
3600,-0.4
3601,-0.3
3602,-0.2
3603,-0.2
3604,-0.2
3605,-0.2
3606,-0.2
3607,0
3608,0.2
3609,0.3
3610,0.2
3611,0.2
3612,0.1
3613,0
3614,0.2
3615,0.3
3616,0.3
3617,0.4
3618,0.7
3619,0.9
3620,1.1
3621,1.1
3622,0.9
3623,0.8
3624,0.8
3625,0.8
3626,0.7
3627,0.8
3628,0.9
3629,0.8
3630,0.7
3631,0.6
3632,0.4
3633,0.4
3634,0.5
3635,0.3
3636,0.1
3637,0.1
3638,0
3639,0
3640,-0.1
3641,-0.2
3642,-0.4
3643,-0.4
3644,-0.4
3645,-0.5
3646,-0.7
3647,-0.8
3648,-0.9
3649,-0.9
3650,-1
3651,-1.3
3652,-1.5
3653,-1.8
3654,-1.9
3655,-2
3656,-2.1
3657,-2.1
3658,-2.1
3659,-2.3
3660,-2.3
3661,-2.4
3662,-2.4
3663,-2.4
3664,-2.5
3665,-2.6
3666,-2.7
3667,-2.5
3668,-2.4
3669,-2.3
3670,-2.2
3671,-2.5
3672,-2.8
3673,-2.7
3674,-2.9
3675,-2.9
3676,-3
3677,-3.1
3678,-2.8
3679,-2.8
3680,-2.6
3681,-2.6
3682,-2.7
3683,-2.8
3684,-2.7
3685,-2.7
3686,-2.7
3687,-2.7
3688,-2.4
3689,-2.5
3690,-2.6
3691,-2.6
3692,-2.7
3693,-2.9
3694,-2.8
3695,-2.7
3696,-2.8
3697,-2.5
3698,-2.5
3699,-2.6
3700,-2.6
3701,-2.8
3702,-2.6
3703,-2.5
3704,-2.3
3705,-2.4
3706,-2.4
3707,-2.5
3708,-2.6
3709,-2.6
3710,-2.4
3711,-2.3
3712,-2.2
3713,-2.2
3714,-2.3
3715,-2.3
3716,-2.2
3717,-2
3718,-2
3719,-2.1
3720,-2.3
3721,-2.1
3722,-1.9
3723,-1.8
3724,-1.8
3725,-2.1
3726,-2
3727,-1.9
3728,-1.9
3729,-1.7
3730,-1.6
3731,-1.6
3732,-1.5
3733,-1.5
3734,-1.5
3735,-1.5
3736,-1.7
3737,-1.7
3738,-1.7
3739,-1.6
3740,-1.5
3741,-1.6
3742,-1.7
3743,-1.4
3744,-1.5
3745,-1.5
3746,-1.5
3747,-1.5
3748,-1.5
3749,-1.4
3750,-1.1
3751,-1.2
3752,-1.4
3753,-1.5
3754,-1.4
3755,-1.6
3756,-1.5
3757,-1.5
3758,-1.4
3759,-1.5
3760,-1.6
3761,-1.6
3762,-1.6
3763,-1.6
3764,-1.5
3765,-1.5
3766,-1.5
3767,-1.5
3768,-1.5
3769,-1.6
3770,-1.6
3771,-1.4
3772,-1.4
3773,-1.4
3774,-1.4
3775,-1.4
3776,-1.4
3777,-1.4
3778,-1.7
3779,-1.7
3780,-1.7
3781,-1.7
3782,-1.6
3783,-1.5
3784,-1.5
3785,-1.4
3786,-1.4
3787,-1.4
3788,-1.4
3789,-1.4
3790,-1.6
3791,-1.7
3792,-1.7
3793,-1.5
3794,-1.5
3795,-1.6
3796,-1.5
3797,-1.6
3798,-1.5
3799,-1.3
3800,-1.4
3801,-1.5
3802,-1.4
3803,-1.3
3804,-1.3
3805,-1.3
3806,-1.4
3807,-1.5
3808,-1.5
3809,-1.3
3810,-1.3
3811,-1.5
3812,-1.4
3813,-1.4
3814,-1.4
3815,-1.4
3816,-1.4
3817,-1.2
3818,-1.2
3819,-1.4
3820,-1.5
3821,-1.5
3822,-1.5
3823,-1.5
3824,-1.6
3825,-1.6
3826,-1.5
3827,-1.5
3828,-1.3
3829,-1.3
3830,-1.2
3831,-1.5
3832,-1.6
3833,-1.5
3834,-1.6
3835,-1.5
3836,-1.4
3837,-1.3
3838,-1.3
3839,-1.3
3840,-1.2
3841,-1.2
3842,-1.4
3843,-1.4
3844,-1.4
3845,-1.4
3846,-1.4
3847,-1.3
3848,-1.4
3849,-1.5
3850,-1.5
3851,-1.3
3852,-1.5
3853,-1.4
3854,-1.4
3855,-1.3
3856,-1.1
3857,-0.9
3858,-0.8
3859,-0.8
3860,-0.8
3861,-0.6
3862,-0.6
3863,-0.9
3864,-0.9
3865,-0.7
3866,-0.7
3867,-0.8
3868,-0.8
3869,-0.6
3870,-0.7
3871,-0.9
3872,-0.9
3873,-0.7
3874,-0.5
3875,-0.3
3876,-0.2
3877,-0.1
3878,-0.1
3879,-0.1
3880,0
3881,0
3882,0.1
3883,0.1
3884,0.2
3885,0.3
3886,0.3
3887,0.1
3888,0
3889,-0.1
3890,-0.2
3891,-0.1
3892,-0.3
3893,-0.3
3894,-0.3
3895,-0.3
3896,-0.5
3897,-0.7
3898,-0.6
3899,-0.7
3900,-0.9
3901,-1
3902,-1.3
3903,-1.2
3904,-0.9
3905,-1
3906,-1.3
3907,-1.3
3908,-1.1
3909,-1.1
3910,-0.9
3911,-0.9
3912,-1.1
3913,-1.2
3914,-1.4
3915,-1.5
3916,-1.3
3917,-1.2
3918,-1.3
3919,-1.2
3920,-1
3921,-1
3922,-0.9
3923,-0.9
3924,-0.8
3925,-0.6
3926,-0.5
3927,-0.6
3928,-0.8
3929,-0.9
3930,-1
3931,-1
3932,-0.9
3933,-0.9
3934,-0.5
3935,0
3936,0.9
3937,2.1
3938,3.2
3939,4.3
3940,6.3
3941,9.3
3942,12.6
3943,14.9
3944,16.7
3945,18.4
3946,19.5
3947,19.6
3948,19.2
3949,18.6
3950,17.1
3951,13.9
3952,9.9
3953,6.9
3954,5.1
3955,3.7
3956,2.2
3957,0.4
3958,-0.6
3959,-1
3960,-1.1
3961,-1
3962,-0.9
3963,-0.9
3964,-1
3965,-0.8
3966,-0.7
3967,-0.6
3968,-0.6
3969,-0.4
3970,-0.2
3971,-0.1
3972,-0.2
3973,-0.4
3974,-0.3
3975,-0.3
3976,-0.4
3977,-0.4
3978,-0.4
3979,-0.3
3980,-0.4
3981,-0.3
3982,-0.3
3983,-0.4
3984,-0.4
3985,-0.2
3986,-0.2
3987,-0.2
3988,-0.5
3989,-0.2
3990,-0.2
3991,-0.3
3992,-0.4
3993,-0.2
3994,-0.1
3995,-0.2
3996,-0.1
3997,-0.1
3998,-0.1
3999,-0.1
4000,-0.2
4001,-0.2
4002,-0.1
4003,0
4004,0.1
4005,0
4006,0.1
4007,0.2
4008,0.1
4009,0.3
4010,0.3
4011,0.2
4012,0.2
4013,0.1
4014,0.1
4015,0.1
4016,0.1
4017,0.2
4018,0.2
4019,0.1
4020,0.1
4021,0.2
4022,0.4
4023,0.3
4024,0.4
4025,0.6
4026,0.6
4027,0.7
4028,0.5
4029,0.3
4030,0.4
4031,0.4
4032,0.4
4033,0.6
4034,0.8
4035,0.8
4036,0.8
4037,0.9
4038,1.1
4039,1.1
4040,1.1
4041,1.1
4042,1.2
4043,1.2
4044,1.2
4045,1.2
4046,1.4
4047,1.4
4048,1.6
4049,1.7
4050,1.7
4051,1.6
4052,1.6
4053,1.8
4054,2.1
4055,2.1
4056,2.2
4057,2.2
4058,2.4
4059,2.6
4060,2.7
4061,2.8
4062,2.6
4063,2.8
4064,2.9
4065,2.9
4066,2.9
4067,3.1
4068,3.1
4069,3.2
4070,3.3
4071,3.4
4072,3.6
4073,3.8
4074,3.8
4075,3.8
4076,3.9
4077,4.1
4078,4.1
4079,4.3
4080,4.4
4081,4.4
4082,4.4
4083,4.6
4084,4.9
4085,4.8
4086,4.5
4087,4.6
4088,4.6
4089,4.6
4090,4.6
4091,4.6
4092,4.6
4093,4.3
4094,4.2
4095,4.2
4096,4.1
4097,4.1
4098,4.1
4099,4.1
4100,4
4101,3.8
4102,3.6
4103,3.5
4104,3.3
4105,3.1
4106,3.1
4107,3.2
4108,3
4109,3.1
4110,3.1
4111,2.9
4112,2.7
4113,2.6
4114,2.5
4115,2.2
4116,2.1
4117,1.9
4118,1.7
4119,1.6
4120,1.6
4121,1.6
4122,1.7
4123,1.7
4124,1.4
4125,1.3
4126,1
4127,1.1
4128,1.1
4129,1.1
4130,1
4131,1
4132,1
4133,0.9
4134,0.9
4135,1
4136,0.8
4137,1
4138,1.1
4139,0.9
4140,0.8
4141,0.7
4142,0.6
4143,0.7
4144,0.7
4145,0.9
4146,0.9
4147,0.8
4148,0.6
4149,0.6
4150,0.7
4151,0.6
4152,0.5
4153,0.7
4154,0.7
4155,0.6
4156,0.6
4157,0.6
4158,0.6
4159,0.7
4160,0.7
4161,1
4162,1
4163,0.9
4164,0.9
4165,0.8
4166,0.7
4167,0.6
4168,0.7
4169,0.7
4170,0.8
4171,0.8
4172,0.6
4173,0.7
4174,1
4175,1.1
4176,1.1
4177,1
4178,1.1
4179,1.2
4180,0.8
4181,0.8
4182,0.9
4183,1
4184,1
4185,1
4186,1
4187,1
4188,1
4189,0.9
4190,0.9
4191,0.8
4192,0.9
4193,0.9
4194,0.9
4195,1
4196,1.3
4197,1.2
4198,1.3
4199,1.1
4200,1.2
4201,1.2
4202,1.2
4203,1.2
4204,1.2
4205,1.1
4206,1
4207,1
4208,1.2
4209,1.3
4210,1.3
4211,1.2
4212,1.3
4213,1.3
4214,1.2
4215,1.2
4216,1.3
4217,1.1
4218,1.3
4219,1.2
4220,1
4221,1.1
4222,1
4223,1.1
4224,1
4225,1
4226,0.9
4227,0.7
4228,0.7
4229,0.9
4230,0.9
4231,0.8
4232,0.8
4233,0.8
4234,1
4235,1.1
4236,1.1
4237,0.9
4238,0.8
4239,0.8
4240,0.8
4241,0.8
4242,0.8
4243,0.7
4244,0.8
4245,0.8
4246,0.9
4247,1
4248,0.9
4249,0.8
4250,0.8
4251,0.8
4252,0.7
4253,0.6
4254,0.5
4255,0.5
4256,0.6
4257,0.6
4258,0.7
4259,0.7
4260,0.7
4261,0.6
4262,0.7
4263,0.8
4264,0.6
4265,0.7
4266,0.8
4267,0.6
4268,0.6
4269,0.6
4270,0.6
4271,0.6
4272,0.4
4273,0.4
4274,0.5
4275,0.5
4276,0.5
4277,0.4
4278,0.3
4279,0.4
4280,0.7
4281,0.8
4282,0.8
4283,0.5
4284,0.4
4285,0.5
4286,0.5
4287,0.6
4288,0.6
4289,0.7
4290,0.5
4291,0.5
4292,0.4
4293,0.3
4294,0.3
4295,0.4
4296,0.4
4297,0.3
4298,0.4
4299,0.7
4300,0.4
4301,0.3
4302,0.4
4303,0.4
4304,0.4
4305,0.4
4306,0.4
4307,0.5
4308,0.6
4309,0.6
4310,0.6
4311,0.6
4312,0.5
4313,0.5
4314,0.6
4315,0.7
4316,0.7
4317,0.5
4318,0.6
4319,0.5
4320,0.6
4321,0.6
4322,0.5
4323,0.6
4324,0.5
4325,0.4
4326,0.5
4327,0.4
4328,0.3
4329,0.4
4330,0.5
4331,0.5
4332,0.7
4333,0.9
4334,0.8
4335,0.8
4336,0.8
4337,0.7
4338,0.8
4339,0.8
4340,0.9
4341,1
4342,1
4343,1.2
4344,1
4345,1
4346,1.3
4347,1.4
4348,1.4
4349,1.1
4350,1.1
4351,1.1
4352,1.3
4353,1.4
4354,1.4
4355,1.3
4356,1.2
4357,1
4358,0.8
4359,0.7
4360,0.9
4361,1.1
4362,1.1
4363,1.3
4364,1.3
4365,1.1
4366,1.1
4367,1.1
4368,0.9
4369,0.6
4370,0.4
4371,0.2
4372,0.2
4373,0.4
4374,0.3
4375,0.2
4376,0.1
4377,0
4378,0
4379,0
4380,0
4381,-0.1
4382,0
4383,-0.1
4384,0
4385,0
4386,-0.1
4387,-0.1
4388,0
4389,-0.1
4390,0
4391,0.1
4392,0.1
4393,0
4394,-0.2
4395,-0.1
4396,-0.1
4397,0
4398,0.2
4399,0
4400,0
4401,0.1
4402,0
4403,0
4404,0.4
4405,1.3
4406,2.5
4407,3.4
4408,4.2
4409,5.6
4410,8
4411,11
4412,13.8
4413,15.9
4414,17.8
4415,19
4416,19.5
4417,19.2
4418,18.7
4419,17.3
4420,15.2
4421,11.4
4422,8.1
4423,5.9
4424,4.6
4425,3.3
4426,1.6
4427,0.5
4428,0
4429,-0.4
4430,-0.7
4431,-0.5
4432,-0.2
4433,-0.1
4434,0
4435,0
4436,0
4437,0
4438,-0.1
4439,0
4440,0.2
4441,0.2
4442,0
4443,0.1
4444,0.1
4445,0.1
4446,0.1
4447,0.1
4448,0.1
4449,0.3
4450,0.4
4451,0.2
4452,0.1
4453,0.1
4454,0
4455,-0.1
4456,0
4457,0
4458,-0.1
4459,-0.2
4460,0
4461,0
4462,-0.1
4463,-0.1
4464,-0.1
4465,-0.2
4466,-0.1
4467,0
4468,0
4469,0.1
4470,0
4471,-0.1
4472,-0.1
4473,0
4474,0.2
4475,0.1
4476,0
4477,0
4478,0
4479,0.1
4480,0.3
4481,0.6
4482,0.6
4483,0.3
4484,0
4485,0.1
4486,0.3
4487,0.2
4488,0.4
4489,0.5
4490,0.4
4491,0.5
4492,0.5
4493,0.6
4494,0.4
4495,0.3
4496,0.4
4497,0.7
4498,0.7
4499,0.7
4500,0.7
4501,0.8
4502,0.6
4503,0.7
4504,1
4505,1.2
4506,1.1
4507,1.1
4508,1.1
4509,1.1
4510,1.3
4511,1.4
4512,1.3
4513,1.3
4514,1.3
4515,1.3
4516,1.2
4517,1.2
4518,1.2
4519,1.2
4520,1.6
4521,1.7
4522,1.8
4523,1.9
4524,1.8
4525,1.7
4526,2
4527,2
4528,2.1
4529,2.3
4530,2.5
4531,2.7
4532,2.7
4533,2.8
4534,2.9
4535,2.9
4536,2.9
4537,3
4538,3.3
4539,3.4
4540,3.4
4541,3.5
4542,3.5
4543,3.6
4544,3.7
4545,3.7
4546,3.5
4547,3.4
4548,3.7
4549,3.9
4550,3.9
4551,3.8
4552,4
4553,4
4554,4
4555,4.3
4556,4.3
4557,4.2
4558,4.2
4559,4.1
4560,4.1
4561,4.2
4562,4.2
4563,4.2
4564,4.1
4565,3.9
4566,3.6
4567,3.7
4568,3.8
4569,3.6
4570,3.5
4571,3.5
4572,3.3
4573,3.3
4574,3
4575,2.6
4576,2.3
4577,2.3
4578,2.1
4579,2.1
4580,2.1
4581,2.1
4582,2
4583,1.8
4584,1.7
4585,1.6
4586,1.5
4587,1.2
4588,1
4589,1
4590,0.9
4591,0.9
4592,0.9
4593,0.7
4594,0.6
4595,0.6
4596,0.6
4597,0.8
4598,0.7
4599,0.6
4600,0.6
4601,0.7
4602,0.7
4603,0.4
4604,0.4
4605,0.4
4606,0.2
4607,0.2
4608,0.2
4609,0.2
4610,0.4
4611,0.2
4612,0.2
4613,0.3
4614,0.1
4615,0.1
4616,0.1
4617,0
4618,0.1
4619,0.1
4620,0
4621,0.2
4622,0.4
4623,0.2
4624,0.2
4625,0.3
4626,0.2
4627,0.1
4628,0
4629,0
4630,0.1
4631,0.3
4632,0.2
4633,0.1
4634,0.2
4635,0.2
4636,0.1
4637,0.1
4638,0.2
4639,0.2
4640,0.3
4641,0.4
4642,0.2
4643,0.2
4644,0.2
4645,0.3
4646,0.4
4647,0.4
4648,0.3
4649,0.3
4650,0.4
4651,0.4
4652,0.2
4653,0.3
4654,0.4
4655,0.2
4656,0.2
4657,0.6
4658,0.7
4659,0.8
4660,0.7
4661,0.5
4662,0.4
4663,0.4
4664,0.6
4665,0.7
4666,0.8
4667,0.7
4668,0.7
4669,0.8
4670,0.7
4671,0.7
4672,0.6
4673,0.6
4674,0.8
4675,0.8
4676,0.8
4677,0.7
4678,0.5
4679,0.5
4680,0.7
4681,0.8
4682,0.9
4683,0.7
4684,0.7
4685,0.5
4686,0.5
4687,0.6
4688,0.9
4689,0.8
4690,0.9
4691,0.8
4692,0.9
4693,0.7
4694,0.9
4695,0.9
4696,0.7
4697,0.6
4698,0.5
4699,0.5
4700,0.6
4701,0.6
4702,0.7
4703,0.6
4704,0.6
4705,0.6
4706,0.6
4707,0.6
4708,0.6
4709,0.6
4710,0.7
4711,0.6
4712,0.7
4713,0.5
4714,0.2
4715,0.3
4716,0.3
4717,0.4
4718,0.6
4719,0.5
4720,0.5
4721,0.6
4722,0.7
4723,0.7
4724,0.5
4725,0.5
4726,0.4
4727,0.4
4728,0.5
4729,0.4
4730,0.5
4731,0.7
4732,0.5
4733,0.5
4734,0.3
4735,0.2
4736,0.5
4737,0.5
4738,0.6
4739,0.5
4740,0.5
4741,0.5
4742,0.4
4743,0.5
4744,0.4
4745,0.4
4746,0.4
4747,0.5
4748,0.5
4749,0.4
4750,0.3
4751,0.2
4752,0.2
4753,0.4
4754,0.3
4755,0.3
4756,0.5
4757,0.7
4758,0.6
4759,0.4
4760,0.2
4761,0.2
4762,0.2
4763,0.1
4764,0.3
4765,0.3
4766,0.4
4767,0.3
4768,0.3
4769,0.3
4770,0.3
4771,0.4
4772,0.3
4773,0.1
4774,0.3
4775,0.3
4776,0.2
4777,0.3
4778,0.3
4779,0.2
4780,0.2
4781,0.3
4782,0.6
4783,0.3
4784,0.1
4785,0.3
4786,0.5
4787,0.5
4788,0.3
4789,0.4
4790,0.4
4791,0.3
4792,0.1
4793,0.1
4794,0.4
4795,0.5
4796,0.4
4797,0.4
4798,0.5
4799,0.6
4800,0.5
4801,0.5
4802,0.4
4803,0.4
4804,0.4
4805,0.6
4806,0.6
4807,0.8
4808,0.8
4809,0.9
4810,1
4811,1
4812,0.9
4813,0.9
4814,1
4815,1.1
4816,1.2
4817,1.4
4818,1.5
4819,1.5
4820,1.6
4821,1.6
4822,1.4
4823,1.4
4824,1.4
4825,1.4
4826,1.2
4827,1.2
4828,1.3
4829,1.1
4830,1
4831,0.8
4832,0.7
4833,0.8
4834,0.8
4835,0.7
4836,0.7
4837,0.8
4838,0.7
4839,0.4
4840,0.2
4841,0.1
4842,0.1
4843,0.2
4844,0.2
4845,0.1
4846,0
4847,0.2
4848,0
4849,0
4850,0
4851,0.1
4852,0.2
4853,0.1
4854,0
4855,0
4856,0
4857,-0.1
4858,0
4859,0.2
4860,0.1
4861,0
4862,0
4863,0.2
4864,0.2
4865,0
4866,0
4867,0
4868,0
4869,0.2
4870,0.4
4871,0.3
4872,0.2
4873,0.2
4874,0.7
4875,1.1
4876,1.7
4877,3
4878,4.2
4879,5.4
4880,7.6
4881,10.5
4882,13.7
4883,16.2
4884,18
4885,19.1
4886,19.8
4887,19.4
4888,18.9
4889,18
4890,15.9
4891,11.9
4892,8.1
4893,5.8
4894,4.5
4895,3.3
4896,1.5
4897,0.1
4898,-0.5
4899,-0.9
4900,-1.2
4901,-1.2
4902,-0.5
4903,-0.3
4904,-0.3
4905,-0.1
4906,0.1
4907,0.3
4908,0
4909,0.1
4910,0.5
4911,0.6
4912,0.6
4913,0.3
4914,0.1
4915,0
4916,0.2
4917,0.1
4918,0.1
4919,0
4920,0.1
4921,0.3
4922,0.2
4923,0
4924,-0.2
4925,-0.2
4926,-0.3
4927,-0.3
4928,-0.3
4929,-0.3
4930,-0.1
4931,0
4932,0.3
4933,0.3
4934,0.1
4935,0
4936,0
4937,-0.1
4938,0
4939,0.2
4940,0.5
4941,0.5
4942,0.4
4943,0.4
4944,0.4
4945,0.3
4946,0.4
4947,0.3
4948,0.3
4949,0.3
4950,0.2
4951,0
4952,0
4953,0
4954,0.1
4955,0.2
4956,0.3
4957,0.2
4958,0.3
4959,0.4
4960,0.6
4961,0.8
4962,0.8
4963,0.8
4964,0.6
4965,0.5
4966,0.5
4967,0.7
4968,0.6
4969,0.6
4970,0.7
4971,0.7
4972,0.4
4973,0.5
4974,0.9
4975,1
4976,1.2
4977,1
4978,1
4979,1.1
4980,1.3
4981,1.3
4982,1.3
4983,1.4
4984,1.5
4985,1.5
4986,1.5
4987,1.9
4988,2.2
4989,2
4990,1.8
4991,1.7
4992,1.7
4993,1.8
4994,2.1
4995,1.9
4996,1.8
4997,2
4998,2.2
4999,2.4
5000,2.5
