TS,Reading,Flag,TS2,Reading2,Flag2
1,-25,5,2000,-25,5
2,-25,5,2001,-25,5
3,-26,5,2002,-24,5
4,-27,5,2003,-25,5
5,-27,5,2004,-26,5
6,-27,5,2005,-25,5
7,-27,5,2006,-24,5
8,-26,5,2007,-23,5
9,-26,5,2008,-24,5
10,-26,5,2009,-24,5
11,-26,5,2010,-23,5
12,-26,5,2011,-22,5
13,-27,5,2012,-22,5
14,-27,5,2013,-23,5
15,-27,5,2014,-24,5
16,-27,5,2015,-24,5
17,-28,5,2016,-25,5
18,-29,5,2017,-25,5
19,-29,5,2018,-25,5
20,-28,5,2019,-25,5
21,-28,5,2020,-25,5
22,-28,5,2021,-22,5
23,-26,5,2022,-21,5
24,-23,5,2023,-20,5
25,-23,5,2024,-20,5
26,-24,5,2025,-21,5
27,-25,5,2026,-21,5
28,-25,5,2027,-21,5
29,-27,5,2028,-22,5
30,-27,5,2029,-22,5
31,-27,5,2030,-21,5
32,-28,5,2031,-22,5
33,-28,5,2032,-22,5
34,-29,5,2033,-23,5
35,-27,5,2034,-23,5
36,-26,5,2035,-22,5
37,-26,5,2036,-21,5
38,-25,5,2037,-23,5
39,-25,5,2038,-24,5
40,-26,5,2039,-25,5
41,-26,5,2040,-26,5
42,-26,5,2041,-26,5
43,-26,5,2042,-25,5
44,-25,5,2043,-23,5
45,-25,5,2044,-22,5
46,-25,5,2045,-21,5
47,-26,5,2046,-21,5
48,-26,5,2047,-21,5
49,-26,5,2048,-23,5
50,-25,5,2049,-25,5
51,-25,5,2050,-26,5
52,-25,5,2051,-25,5
53,-26,5,2052,-25,5
54,-27,5,2053,-25,5
55,-25,5,2054,-24,5
56,-24,5,2055,-24,5
57,-24,5,2056,-24,5
58,-24,5,2057,-24,5
59,-24,5,2058,-24,5
60,-23,5,2059,-23,5
61,-23,5,2060,-22,5
62,-23,5,2061,-22,5
63,-21,5,2062,-23,5
64,-20,5,2063,-23,5
65,-20,5,2064,-23,5
66,-20,5,2065,-23,5
67,-19,5,2066,-24,5
68,-16,5,2067,-24,5
69,-14,5,2068,-24,5
70,-15,5,2069,-24,5
71,-14,5,2070,-23,5
72,-13,5,2071,-23,5
73,-13,5,2072,-23,5
74,-13,5,2073,-23,5
75,-13,5,2074,-24,5
76,-14,5,2075,-23,5
77,-14,5,2076,-20,5
78,-15,5,2077,-19,5
79,-16,5,2078,-20,5
80,-17,5,2079,-20,5
81,-18,5,2080,-20,5
82,-21,5,2081,-21,5
83,-23,5,2082,-22,5
84,-23,5,2083,-22,5
85,-26,5,2084,-22,5
86,-29,5,2085,-23,5
87,-31,5,2086,-23,5
88,-32,5,2087,-23,5
89,-31,5,2088,-24,5
90,-30,5,2089,-22,5
91,-30,5,2090,-21,5
92,-30,5,2091,-20,5
93,-29,5,2092,-20,5
94,-29,5,2093,-20,5
95,-27,5,2094,-19,5
96,-27,5,2095,-18,5
97,-26,5,2096,-17,5
98,-24,5,2097,-16,5
99,-22,5,2098,-17,5
100,-22,5,2099,-17,5
101,-21,5,2100,-17,5
102,-22,5,2101,-16,5
103,-21,5,2102,-15,5
104,-22,5,2103,-14,5
105,-23,5,2104,-13,5
106,-23,5,2105,-13,5
107,-25,5,2106,-13,5
108,-26,5,2107,-13,5
109,-27,5,2108,-13,5
110,-28,5,2109,-14,5
111,-29,5,2110,-15,5
112,-30,5,2111,-16,5
113,-31,5,2112,-16,5
114,-30,5,2113,-16,5
115,-30,5,2114,-16,5
116,-31,5,2115,-19,5
117,-30,5,2116,-21,5
118,-30,5,2117,-23,5
119,-30,5,2118,-25,5
120,-29,5,2119,-27,5
121,-29,5,2120,-29,5
122,-30,5,2121,-28,5
123,-29,5,2122,-28,5
124,-28,5,2123,-28,5
125,-26,5,2124,-28,5
126,-26,5,2125,-27,5
127,-26,5,2126,-24,5
128,-26,5,2127,-23,5
129,-26,5,2128,-22,5
130,-27,5,2129,-21,5
131,-28,5,2130,-21,5
132,-28,5,2131,-21,5
133,-27,5,2132,-20,5
134,-27,5,2133,-20,5
135,-28,5,2134,-20,5
136,-28,5,2135,-22,5
137,-28,5,2136,-23,5
138,-27,5,2137,-24,5
139,-26,5,2138,-25,5
140,-25,5,2139,-25,5
141,-22,5,2140,-26,5
142,-17,5,2141,-26,5
143,-6,5,2142,-26,5
144,17,5,2143,-27,5
145,44,5,2144,-29,5
146,67,5,2145,-30,5
147,69,5,2146,-29,5
148,69,5,2147,-30,5
149,69,5,2148,-31,5
150,69,5,2149,-30,5
151,69,5,2150,-29,5
152,69,5,2151,-28,5
153,69,5,2152,-29,5
154,69,5,2153,-29,5
155,47,5,2154,-28,5
156,11,5,2155,-29,5
157,-41,5,2156,-29,5
158,-100,5,2157,-29,5
159,-107,5,2158,-30,5
160,-107,5,2159,-29,5
161,-107,5,2160,-29,5
162,-107,5,2161,-28,5
163,-107,5,2162,-27,5
164,-107,5,2163,-28,5
165,-107,5,2164,-29,5
166,-107,5,2165,-27,5
167,-107,5,2166,-26,5
168,-92,5,2167,-26,5
169,-74,5,2168,-27,5
170,-61,5,2169,-27,5
171,-50,5,2170,-26,5
172,-41,5,2171,-24,5
173,-34,5,2172,-21,5
174,-27,5,2173,-14,5
175,-21,5,2174,-1,5
176,-17,5,2175,21,5
177,-16,5,2176,45,5
178,-14,5,2177,62,5
179,-11,5,2178,69,5
180,-8,5,2179,69,5
181,-6,5,2180,69,5
182,-5,5,2181,69,5
183,-4,5,2182,69,5
184,-3,5,2183,69,5
185,-3,5,2184,69,5
186,-1,5,2185,69,5
187,0,5,2186,69,5
188,0,5,2187,46,5
189,0,5,2188,-3,5
190,1,5,2189,-68,5
191,1,5,2190,-107,5
192,2,5,2191,-107,5
193,3,5,2192,-107,5
194,2,5,2193,-107,5
195,2,5,2194,-107,5
196,3,5,2195,-107,5
197,4,5,2196,-107,5
198,3,5,2197,-107,5
199,3,5,2198,-107,5
200,5,5,2199,-95,5
201,6,5,2200,-77,5
202,6,5,2201,-62,5
203,7,5,2202,-49,5
204,8,5,2203,-40,5
205,8,5,2204,-34,5
206,9,5,2205,-29,5
207,9,5,2206,-25,5
208,9,5,2207,-20,5
209,11,5,2208,-17,5
210,11,5,2209,-13,5
211,12,5,2210,-10,5
212,13,5,2211,-7,5
213,14,5,2212,-6,5
214,15,5,2213,-4,5
215,15,5,2214,-3,5
216,14,5,2215,-3,5
217,15,5,2216,-2,5
218,17,5,2217,-1,5
219,17,5,2218,-1,5
220,17,5,2219,-1,5
221,16,5,2220,0,5
222,16,5,2221,1,5
223,16,5,2222,2,5
224,17,5,2223,4,5
225,19,5,2224,4,5
226,20,5,2225,4,5
227,21,5,2226,4,5
228,22,5,2227,4,5
229,22,5,2228,4,5
230,24,5,2229,5,5
231,25,5,2230,6,5
232,25,5,2231,7,5
233,26,5,2232,8,5
234,27,5,2233,9,5
235,28,5,2234,9,5
236,30,5,2235,10,5
237,33,5,2236,10,5
238,35,5,2237,11,5
239,35,5,2238,11,5
240,36,5,2239,11,5
241,38,5,2240,13,5
242,39,5,2241,13,5
243,40,5,2242,14,5
244,41,5,2243,14,5
245,42,5,2244,14,5
246,44,5,2245,15,5
247,46,5,2246,16,5
248,48,5,2247,17,5
249,49,5,2248,16,5
250,51,5,2249,16,5
251,54,5,2250,17,5
252,56,5,2251,17,5
253,58,5,2252,19,5
254,61,5,2253,21,5
255,64,5,2254,22,5
256,66,5,2255,22,5
257,68,5,2256,23,5
258,69,5,2257,23,5
259,69,5,2258,25,5
260,69,5,2259,26,5
261,69,5,2260,27,5
262,69,5,2261,26,5
263,69,5,2262,27,5
264,69,5,2263,30,5
265,69,5,2264,31,5
266,69,5,2265,33,5
267,69,5,2266,34,5
268,69,5,2267,35,5
269,69,5,2268,37,5
270,69,5,2269,38,5
271,69,5,2270,39,5
272,69,5,2271,40,5
273,69,5,2272,41,5
274,69,5,2273,42,5
275,69,5,2274,43,5
276,69,5,2275,44,5
277,69,5,2276,44,5
278,69,5,2277,44,5
279,69,5,2278,45,5
280,69,5,2279,48,5
281,69,5,2280,50,5
282,69,5,2281,53,5
283,69,5,2282,55,5
284,69,5,2283,58,5
285,69,5,2284,60,5
286,69,5,2285,62,5
287,69,5,2286,64,5
288,69,5,2287,66,5
289,69,5,2288,68,5
290,69,5,2289,69,5
291,69,5,2290,69,5
292,69,5,2291,69,5
293,69,5,2292,69,5
294,69,5,2293,69,5
295,69,5,2294,69,5
296,69,5,2295,69,5
297,69,5,2296,69,5
298,69,5,2297,69,5
299,69,5,2298,69,5
300,69,5,2299,69,5
301,69,5,2300,69,5
302,69,5,2301,69,5
303,69,5,2302,69,5
304,69,5,2303,69,5
305,69,5,2304,69,5
306,69,5,2305,69,5
307,69,5,2306,69,5
308,69,5,2307,69,5
309,65,5,2308,69,5
310,60,5,2309,69,5
311,54,5,2310,69,5
312,48,5,2311,69,5
313,43,5,2312,69,5
314,39,5,2313,69,5
315,34,5,2314,69,5
316,28,5,2315,69,5
317,24,5,2316,69,5
318,20,5,2317,69,5
319,17,5,2318,69,5
320,15,5,2319,69,5
321,11,5,2320,69,5
322,8,5,2321,69,5
323,5,5,2322,69,5
324,2,5,2323,69,5
325,1,5,2324,69,5
326,0,5,2325,69,5
327,-2,5,2326,69,5
328,-5,5,2327,69,5
329,-7,5,2328,69,5
330,-10,5,2329,69,5
331,-11,5,2330,69,5
332,-11,5,2331,69,5
333,-12,5,2332,69,5
334,-13,5,2333,69,5
335,-14,5,2334,69,5
336,-14,5,2335,69,5
337,-13,5,2336,69,5
338,-15,5,2337,69,5
339,-16,5,2338,69,5
340,-17,5,2339,69,5
341,-15,5,2340,69,5
342,-14,5,2341,64,5
343,-15,5,2342,58,5
344,-17,5,2343,53,5
345,-17,5,2344,49,5
346,-18,5,2345,44,5
347,-19,5,2346,39,5
348,-20,5,2347,34,5
349,-20,5,2348,30,5
350,-20,5,2349,27,5
351,-20,5,2350,22,5
352,-20,5,2351,17,5
353,-19,5,2352,13,5
354,-19,5,2353,9,5
355,-19,5,2354,7,5
356,-19,5,2355,5,5
357,-20,5,2356,3,5
358,-20,5,2357,1,5
359,-19,5,2358,0,5
360,-19,5,2359,-1,5
361,-19,5,2360,-3,5
362,-19,5,2361,-4,5
363,-19,5,2362,-6,5
364,-19,5,2363,-7,5
365,-19,5,2364,-9,5
366,-18,5,2365,-11,5
367,-17,5,2366,-13,5
368,-16,5,2367,-14,5
369,-16,5,2368,-15,5
370,-17,5,2369,-16,5
371,-17,5,2370,-16,5
372,-15,5,2371,-16,5
373,-16,5,2372,-16,5
374,-16,5,2373,-16,5
375,-15,5,2374,-16,5
376,-16,5,2375,-16,5
377,-17,5,2376,-17,5
378,-17,5,2377,-17,5
379,-16,5,2378,-17,5
380,-16,5,2379,-15,5
381,-17,5,2380,-14,5
382,-18,5,2381,-14,5
383,-17,5,2382,-14,5
384,-16,5,2383,-14,5
385,-15,5,2384,-15,5
386,-15,5,2385,-16,5
387,-15,5,2386,-16,5
388,-16,5,2387,-16,5
389,-15,5,2388,-16,5
390,-14,5,2389,-17,5
391,-13,5,2390,-16,5
392,-13,5,2391,-15,5
393,-15,5,2392,-14,5
394,-15,5,2393,-13,5
395,-15,5,2394,-13,5
396,-15,5,2395,-13,5
397,-16,5,2396,-14,5
398,-16,5,2397,-15,5
399,-16,5,2398,-16,5
400,-15,5,2399,-16,5
401,-15,5,2400,-17,5
402,-15,5,2401,-16,5
403,-16,5,2402,-16,5
404,-16,5,2403,-17,5
405,-15,5,2404,-17,5
406,-15,5,2405,-16,5
407,-14,5,2406,-15,5
408,-15,5,2407,-15,5
409,-17,5,2408,-14,5
410,-17,5,2409,-14,5
411,-17,5,2410,-14,5
412,-19,5,2411,-14,5
413,-19,5,2412,-16,5
414,-19,5,2413,-18,5
415,-19,5,2414,-17,5
416,-19,5,2415,-17,5
417,-19,5,2416,-16,5
418,-18,5,2417,-16,5
419,-16,5,2418,-15,5
420,-16,5,2419,-15,5
421,-17,5,2420,-15,5
422,-18,5,2421,-16,5
423,-19,5,2422,-16,5
424,-19,5,2423,-17,5
425,-20,5,2424,-18,5
426,-20,5,2425,-18,5
427,-20,5,2426,-19,5
428,-21,5,2427,-17,5
429,-21,5,2428,-17,5
430,-22,5,2429,-16,5
431,-21,5,2430,-17,5
432,-20,5,2431,-16,5
433,-20,5,2432,-16,5
434,-21,5,2433,-17,5
435,-22,5,2434,-18,5
436,-22,5,2435,-18,5
437,-21,5,2436,-18,5
438,-21,5,2437,-18,5
439,-22,5,2438,-19,5
440,-22,5,2439,-18,5
441,-23,5,2440,-18,5
442,-23,5,2441,-19,5
443,-24,5,2442,-18,5
444,-25,5,2443,-17,5
445,-25,5,2444,-17,5
446,-24,5,2445,-18,5
447,-23,5,2446,-20,5
448,-23,5,2447,-22,5
449,-24,5,2448,-21,5
450,-25,5,2449,-20,5
451,-24,5,2450,-20,5
452,-24,5,2451,-19,5
453,-24,5,2452,-19,5
454,-24,5,2453,-20,5
455,-25,5,2454,-20,5
456,-26,5,2455,-19,5
457,-26,5,2456,-18,5
458,-27,5,2457,-18,5
459,-26,5,2458,-19,5
460,-26,5,2459,-19,5
461,-26,5,2460,-20,5
462,-26,5,2461,-21,5
463,-27,5,2462,-22,5
464,-27,5,2463,-23,5
465,-28,5,2464,-24,5
466,-28,5,2465,-24,5
467,-27,5,2466,-24,5
468,-27,5,2467,-24,5
469,-26,5,2468,-23,5
470,-27,5,2469,-22,5
471,-26,5,2470,-20,5
472,-25,5,2471,-20,5
473,-24,5,2472,-21,5
474,-24,5,2473,-22,5
475,-24,5,2474,-22,5
476,-24,5,2475,-23,5
477,-25,5,2476,-23,5
478,-25,5,2477,-26,5
479,-25,5,2478,-27,5
480,-25,5,2479,-27,5
481,-25,5,2480,-27,5
482,-24,5,2481,-26,5
483,-24,5,2482,-26,5
484,-25,5,2483,-25,5
485,-26,5,2484,-24,5
486,-26,5,2485,-22,5
487,-27,5,2486,-21,5
488,-27,5,2487,-22,5
489,-28,5,2488,-24,5
490,-29,5,2489,-23,5
491,-27,5,2490,-24,5
492,-27,5,2491,-23,5
493,-27,5,2492,-23,5
494,-28,5,2493,-24,5
495,-28,5,2494,-25,5
496,-26,5,2495,-25,5
497,-26,5,2496,-24,5
498,-26,5,2497,-25,5
499,-26,5,2498,-25,5
500,-27,5,2499,-25,5
501,-28,5,2500,-25,5
502,-28,5,2501,-26,5
503,-28,5,2502,-25,5
504,-29,5,2503,-26,5
505,-30,5,2504,-26,5
506,-30,5,2505,-26,5
507,-30,5,2506,-27,5
508,-30,5,2507,-27,5
509,-29,5,2508,-26,5
510,-28,5,2509,-25,5
511,-27,5,2510,-25,5
512,-26,5,2511,-25,5
513,-26,5,2512,-25,5
514,-27,5,2513,-26,5
515,-28,5,2514,-27,5
516,-28,5,2515,-26,5
517,-28,5,2516,-26,5
518,-28,5,2517,-26,5
519,-27,5,2518,-27,5
520,-28,5,2519,-27,5
521,-28,5,2520,-26,5
522,-27,5,2521,-25,5
523,-26,5,2522,-25,5
524,-26,5,2523,-24,5
525,-26,5,2524,-24,5
526,-26,5,2525,-25,5
527,-27,5,2526,-27,5
528,-28,5,2527,-27,5
529,-28,5,2528,-27,5
530,-28,5,2529,-26,5
531,-27,5,2530,-26,5
532,-26,5,2531,-27,5
533,-25,5,2532,-27,5
534,-25,5,2533,-26,5
535,-27,5,2534,-25,5
536,-29,5,2535,-25,5
537,-30,5,2536,-24,5
538,-29,5,2537,-22,5
539,-30,5,2538,-22,5
540,-30,5,2539,-24,5
541,-30,5,2540,-24,5
542,-29,5,2541,-24,5
543,-29,5,2542,-23,5
544,-29,5,2543,-23,5
545,-29,5,2544,-25,5
546,-29,5,2545,-26,5
547,-29,5,2546,-25,5
548,-29,5,2547,-24,5
549,-28,5,2548,-23,5
550,-28,5,2549,-23,5
551,-29,5,2550,-22,5
552,-29,5,2551,-21,5
553,-29,5,2552,-22,5
554,-28,5,2553,-24,5
555,-28,5,2554,-25,5
556,-27,5,2555,-24,5
557,-25,5,2556,-24,5
558,-25,5,2557,-26,5
559,-24,5,2558,-25,5
560,-25,5,2559,-25,5
561,-25,5,2560,-24,5
562,-27,5,2561,-24,5
563,-28,5,2562,-24,5
564,-28,5,2563,-24,5
565,-29,5,2564,-23,5
566,-28,5,2565,-23,5
567,-28,5,2566,-23,5
568,-27,5,2567,-24,5
569,-27,5,2568,-24,5
570,-26,5,2569,-23,5
571,-25,5,2570,-23,5
572,-25,5,2571,-23,5
573,-24,5,2572,-23,5
574,-24,5,2573,-23,5
575,-24,5,2574,-23,5
576,-22,5,2575,-23,5
577,-19,5,2576,-23,5
578,-18,5,2577,-23,5
579,-18,5,2578,-23,5
580,-17,5,2579,-22,5
581,-17,5,2580,-22,5
582,-17,5,2581,-20,5
583,-16,5,2582,-20,5
584,-16,5,2583,-20,5
585,-16,5,2584,-21,5
586,-17,5,2585,-22,5
587,-18,5,2586,-22,5
588,-19,5,2587,-21,5
589,-19,5,2588,-21,5
590,-20,5,2589,-21,5
591,-21,5,2590,-22,5
592,-22,5,2591,-22,5
593,-24,5,2592,-22,5
594,-27,5,2593,-20,5
595,-29,5,2594,-20,5
596,-29,5,2595,-20,5
597,-29,5,2596,-21,5
598,-30,5,2597,-21,5
599,-30,5,2598,-22,5
600,-30,5,2599,-22,5
601,-30,5,2600,-21,5
602,-30,5,2601,-20,5
603,-31,5,2602,-19,5
604,-31,5,2603,-19,5
605,-31,5,2604,-19,5
606,-29,5,2605,-19,5
607,-28,5,2606,-18,5
608,-28,5,2607,-18,5
609,-27,5,2608,-19,5
610,-26,5,2609,-19,5
611,-24,5,2610,-18,5
612,-23,5,2611,-17,5
613,-23,5,2612,-16,5
614,-24,5,2613,-16,5
615,-26,5,2614,-16,5
616,-28,5,2615,-14,5
617,-29,5,2616,-14,5
618,-30,5,2617,-15,5
619,-31,5,2618,-15,5
620,-33,5,2619,-16,5
621,-34,5,2620,-17,5
622,-34,5,2621,-19,5
623,-33,5,2622,-21,5
624,-33,5,2623,-22,5
625,-33,5,2624,-23,5
626,-33,5,2625,-25,5
627,-34,5,2626,-26,5
628,-34,5,2627,-28,5
629,-34,5,2628,-31,5
630,-34,5,2629,-33,5
631,-34,5,2630,-32,5
632,-34,5,2631,-31,5
633,-34,5,2632,-31,5
634,-34,5,2633,-32,5
635,-34,5,2634,-32,5
636,-32,5,2635,-32,5
637,-32,5,2636,-30,5
638,-32,5,2637,-29,5
639,-32,5,2638,-28,5
640,-32,5,2639,-28,5
641,-32,5,2640,-27,5
642,-31,5,2641,-26,5
643,-30,5,2642,-25,5
644,-30,5,2643,-25,5
645,-30,5,2644,-26,5
646,-31,5,2645,-25,5
647,-29,5,2646,-25,5
648,-28,5,2647,-26,5
649,-27,5,2648,-28,5
650,-25,5,2649,-31,5
651,-23,5,2650,-34,5
652,-18,5,2651,-35,5
653,-4,5,2652,-35,5
654,18,5,2653,-35,5
655,39,5,2654,-36,5
656,54,5,2655,-36,5
657,67,5,2656,-36,5
658,69,5,2657,-34,5
659,69,5,2658,-33,5
660,69,5,2659,-32,5
661,69,5,2660,-32,5
662,69,5,2661,-32,5
663,69,5,2662,-33,5
664,69,5,2663,-34,5
665,57,5,2664,-34,5
666,25,5,2665,-34,5
667,-24,5,2666,-35,5
668,-89,5,2667,-35,5
669,-107,5,2668,-35,5
670,-107,5,2669,-35,5
671,-107,5,2670,-34,5
672,-107,5,2671,-34,5
673,-107,5,2672,-34,5
674,-107,5,2673,-34,5
675,-107,5,2674,-34,5
676,-107,5,2675,-33,5
677,-107,5,2676,-32,5
678,-90,5,2677,-32,5
679,-72,5,2678,-30,5
680,-59,5,2679,-29,5
681,-49,5,2680,-29,5
682,-40,5,2681,-26,5
683,-34,5,2682,-21,5
684,-30,5,2683,-8,5
685,-27,5,2684,15,5
686,-23,5,2685,45,5
687,-19,5,2686,68,5
688,-16,5,2687,69,5
689,-13,5,2688,69,5
690,-11,5,2689,69,5
691,-10,5,2690,69,5
692,-9,5,2691,69,5
693,-8,5,2692,69,5
694,-7,5,2693,69,5
695,-5,5,2694,69,5
696,-4,5,2695,50,5
697,-3,5,2696,9,5
698,-2,5,2697,-48,5
699,0,5,2698,-107,5
700,0,5,2699,-107,5
701,1,5,2700,-107,5
702,1,5,2701,-107,5
703,1,5,2702,-107,5
704,1,5,2703,-107,5
705,1,5,2704,-107,5
706,2,5,2705,-107,5
707,2,5,2706,-107,5
708,2,5,2707,-107,5
709,2,5,2708,-101,5
710,2,5,2709,-82,5
711,3,5,2710,-67,5
712,4,5,2711,-55,5
713,5,5,2712,-47,5
714,6,5,2713,-39,5
715,7,5,2714,-33,5
716,8,5,2715,-28,5
717,8,5,2716,-23,5
718,9,5,2717,-20,5
719,11,5,2718,-16,5
720,12,5,2719,-13,5
721,12,5,2720,-10,5
722,11,5,2721,-8,5
723,13,5,2722,-8,5
724,14,5,2723,-8,5
725,16,5,2724,-8,5
726,17,5,2725,-8,5
727,15,5,2726,-7,5
728,15,5,2727,-7,5
729,15,5,2728,-7,5
730,16,5,2729,-6,5
731,16,5,2730,-5,5
732,17,5,2731,-5,5
733,18,5,2732,-4,5
734,19,5,2733,-4,5
735,19,5,2734,-2,5
736,20,5,2735,-1,5
737,22,5,2736,-1,5
738,23,5,2737,-1,5
739,24,5,2738,0,5
740,25,5,2739,1,5
741,26,5,2740,2,5
742,27,5,2741,4,5
743,28,5,2742,4,5
744,30,5,2743,3,5
745,32,5,2744,3,5
746,32,5,2745,3,5
747,33,5,2746,3,5
748,34,5,2747,4,5
749,35,5,2748,5,5
750,36,5,2749,7,5
751,36,5,2750,8,5
752,36,5,2751,8,5
753,39,5,2752,8,5
754,41,5,2753,8,5
755,42,5,2754,9,5
756,43,5,2755,10,5
757,45,5,2756,11,5
758,47,5,2757,13,5
759,49,5,2758,12,5
760,51,5,2759,12,5
761,52,5,2760,12,5
762,53,5,2761,14,5
763,54,5,2762,16,5
764,57,5,2763,18,5
765,59,5,2764,18,5
766,61,5,2765,18,5
767,63,5,2766,18,5
768,65,5,2767,18,5
769,69,5,2768,19,5
770,69,5,2769,19,5
771,69,5,2770,20,5
772,69,5,2771,22,5
773,69,5,2772,24,5
774,69,5,2773,25,5
775,69,5,2774,27,5
776,69,5,2775,28,5
777,69,5,2776,28,5
778,69,5,2777,28,5
779,69,5,2778,28,5
780,69,5,2779,30,5
781,69,5,2780,33,5
782,69,5,2781,34,5
783,69,5,2782,36,5
784,69,5,2783,37,5
785,69,5,2784,37,5
786,69,5,2785,38,5
787,69,5,2786,42,5
788,69,5,2787,45,5
789,69,5,2788,47,5
790,69,5,2789,48,5
791,69,5,2790,50,5
792,69,5,2791,51,5
793,69,5,2792,53,5
794,69,5,2793,54,5
795,69,5,2794,56,5
796,69,5,2795,60,5
797,69,5,2796,62,5
798,69,5,2797,64,5
799,69,5,2798,66,5
800,69,5,2799,69,5
801,69,5,2800,69,5
802,69,5,2801,69,5
803,69,5,2802,69,5
804,69,5,2803,69,5
805,69,5,2804,69,5
806,69,5,2805,69,5
807,69,5,2806,69,5
808,69,5,2807,69,5
809,69,5,2808,69,5
810,69,5,2809,69,5
811,69,5,2810,69,5
812,69,5,2811,69,5
813,69,5,2812,69,5
814,69,5,2813,69,5
815,69,5,2814,69,5
816,69,5,2815,69,5
817,69,5,2816,69,5
818,69,5,2817,69,5
819,68,5,2818,69,5
820,62,5,2819,69,5
821,58,5,2820,69,5
822,53,5,2821,69,5
823,48,5,2822,69,5
824,43,5,2823,69,5
825,39,5,2824,69,5
826,34,5,2825,69,5
827,30,5,2826,69,5
828,26,5,2827,69,5
829,22,5,2828,69,5
830,16,5,2829,69,5
831,11,5,2830,69,5
832,8,5,2831,69,5
833,5,5,2832,69,5
834,3,5,2833,69,5
835,1,5,2834,69,5
836,0,5,2835,69,5
837,0,5,2836,69,5
838,-1,5,2837,69,5
839,-3,5,2838,69,5
840,-5,5,2839,69,5
841,-6,5,2840,69,5
842,-8,5,2841,69,5
843,-11,5,2842,69,5
844,-12,5,2843,69,5
845,-13,5,2844,69,5
846,-15,5,2845,69,5
847,-15,5,2846,69,5
848,-15,5,2847,69,5
849,-16,5,2848,69,5
850,-17,5,2849,63,5
851,-18,5,2850,57,5
852,-18,5,2851,50,5
853,-18,5,2852,45,5
854,-17,5,2853,41,5
855,-17,5,2854,36,5
856,-17,5,2855,33,5
857,-18,5,2856,29,5
858,-18,5,2857,25,5
859,-19,5,2858,20,5
860,-19,5,2859,16,5
861,-18,5,2860,12,5
862,-18,5,2861,9,5
863,-17,5,2862,6,5
864,-17,5,2863,4,5
865,-18,5,2864,2,5
866,-17,5,2865,1,5
867,-17,5,2866,0,5
868,-16,5,2867,-4,5
869,-15,5,2868,-8,5
870,-13,5,2869,-10,5
871,-13,5,2870,-10,5
872,-14,5,2871,-12,5
873,-14,5,2872,-14,5
874,-12,5,2873,-14,5
875,-12,5,2874,-15,5
876,-13,5,2875,-16,5
877,-15,5,2876,-17,5
878,-15,5,2877,-18,5
879,-16,5,2878,-17,5
880,-16,5,2879,-18,5
881,-16,5,2880,-19,5
882,-16,5,2881,-19,5
883,-15,5,2882,-19,5
884,-15,5,2883,-20,5
885,-16,5,2884,-21,5
886,-16,5,2885,-22,5
887,-16,5,2886,-22,5
888,-16,5,2887,-21,5
889,-16,5,2888,-21,5
890,-16,5,2889,-20,5
891,-15,5,2890,-20,5
892,-15,5,2891,-21,5
893,-15,5,2892,-21,5
894,-15,5,2893,-22,5
895,-16,5,2894,-21,5
896,-16,5,2895,-21,5
897,-16,5,2896,-21,5
898,-15,5,2897,-21,5
899,-15,5,2898,-20,5
900,-16,5,2899,-19,5
901,-18,5,2900,-21,5
902,-18,5,2901,-22,5
903,-18,5,2902,-23,5
904,-17,5,2903,-22,5
905,-17,5,2904,-21,5
906,-17,5,2905,-22,5
907,-17,5,2906,-21,5
908,-18,5,2907,-20,5
909,-17,5,2908,-19,5
910,-17,5,2909,-19,5
911,-18,5,2910,-18,5
912,-18,5,2911,-18,5
913,-17,5,2912,-18,5
914,-18,5,2913,-17,5
915,-18,5,2914,-17,5
916,-18,5,2915,-17,5
917,-17,5,2916,-18,5
918,-18,5,2917,-18,5
919,-20,5,2918,-19,5
920,-20,5,2919,-19,5
921,-19,5,2920,-19,5
922,-19,5,2921,-18,5
923,-20,5,2922,-18,5
924,-21,5,2923,-18,5
925,-21,5,2924,-17,5
926,-21,5,2925,-15,5
927,-21,5,2926,-15,5
928,-21,5,2927,-16,5
929,-21,5,2928,-17,5
930,-20,5,2929,-17,5
931,-19,5,2930,-18,5
932,-18,5,2931,-17,5
933,-18,5,2932,-15,5
934,-18,5,2933,-16,5
935,-19,5,2934,-16,5
936,-19,5,2935,-15,5
937,-19,5,2936,-14,5
938,-19,5,2937,-14,5
939,-20,5,2938,-14,5
940,-22,5,2939,-15,5
941,-23,5,2940,-15,5
942,-24,5,2941,-15,5
943,-23,5,2942,-13,5
944,-22,5,2943,-13,5
945,-22,5,2944,-14,5
946,-22,5,2945,-14,5
947,-22,5,2946,-15,5
948,-22,5,2947,-16,5
949,-21,5,2948,-17,5
950,-21,5,2949,-16,5
951,-21,5,2950,-15,5
952,-21,5,2951,-13,5
953,-21,5,2952,-13,5
954,-22,5,2953,-15,5
955,-21,5,2954,-17,5
956,-21,5,2955,-17,5
957,-21,5,2956,-16,5
958,-22,5,2957,-16,5
959,-22,5,2958,-19,5
960,-24,5,2959,-20,5
961,-24,5,2960,-21,5
962,-23,5,2961,-21,5
963,-23,5,2962,-20,5
964,-23,5,2963,-19,5
965,-23,5,2964,-19,5
966,-25,5,2965,-19,5
967,-24,5,2966,-19,5
968,-23,5,2967,-20,5
969,-24,5,2968,-21,5
970,-24,5,2969,-21,5
971,-24,5,2970,-20,5
972,-25,5,2971,-20,5
973,-24,5,2972,-20,5
974,-24,5,2973,-20,5
975,-24,5,2974,-20,5
976,-25,5,2975,-21,5
977,-26,5,2976,-19,5
978,-26,5,2977,-18,5
979,-26,5,2978,-19,5
980,-27,5,2979,-20,5
981,-27,5,2980,-21,5
982,-28,5,2981,-22,5
983,-27,5,2982,-23,5
984,-27,5,2983,-24,5
985,-26,5,2984,-24,5
986,-26,5,2985,-24,5
987,-27,5,2986,-24,5
988,-26,5,2987,-24,5
989,-26,5,2988,-23,5
990,-26,5,2989,-24,5
991,-26,5,2990,-23,5
992,-27,5,2991,-22,5
993,-27,5,2992,-21,5
994,-27,5,2993,-21,5
995,-28,5,2994,-22,5
996,-28,5,2995,-24,5
997,-28,5,2996,-24,5
998,-29,5,2997,-25,5
999,-30,5,2998,-26,5
1000,-30,5,2999,-26,5
1001,-29,5,3000,-26,5
1002,-27,5,3001,-28,5
1003,-27,5,3002,-29,5
1004,-27,5,3003,-29,5
1005,-26,5,3004,-30,5
1006,-25,5,3005,-31,5
1007,-25,5,3006,-30,5
1008,-26,5,3007,-29,5
1009,-25,5,3008,-28,5
1010,-24,5,3009,-27,5
1011,-24,5,3010,-27,5
1012,-24,5,3011,-27,5
1013,-24,5,3012,-27,5
1014,-26,5,3013,-27,5
1015,-28,5,3014,-28,5
1016,-28,5,3015,-27,5
1017,-28,5,3016,-26,5
1018,-27,5,3017,-26,5
1019,-26,5,3018,-26,5
1020,-26,5,3019,-26,5
1021,-27,5,3020,-27,5
1022,-28,5,3021,-27,5
1023,-29,5,3022,-27,5
1024,-29,5,3023,-27,5
1025,-29,5,3024,-27,5
1026,-27,5,3025,-27,5
1027,-26,5,3026,-27,5
1028,-26,5,3027,-25,5
1029,-25,5,3028,-24,5
1030,-26,5,3029,-23,5
1031,-27,5,3030,-24,5
1032,-26,5,3031,-24,5
1033,-25,5,3032,-25,5
1034,-25,5,3033,-26,5
1035,-27,5,3034,-27,5
1036,-28,5,3035,-26,5
1037,-28,5,3036,-26,5
1038,-25,5,3037,-28,5
1039,-24,5,3038,-28,5
1040,-24,5,3039,-28,5
1041,-24,5,3040,-27,5
1042,-25,5,3041,-27,5
1043,-25,5,3042,-27,5
1044,-27,5,3043,-27,5
1045,-27,5,3044,-27,5
1046,-28,5,3045,-27,5
1047,-29,5,3046,-29,5
1048,-28,5,3047,-28,5
1049,-29,5,3048,-27,5
1050,-29,5,3049,-26,5
1051,-28,5,3050,-26,5
1052,-28,5,3051,-26,5
1053,-27,5,3052,-25,5
1054,-27,5,3053,-25,5
1055,-28,5,3054,-25,5
1056,-28,5,3055,-25,5
1057,-27,5,3056,-27,5
1058,-26,5,3057,-29,5
1059,-27,5,3058,-26,5
1060,-26,5,3059,-25,5
1061,-25,5,3060,-25,5
1062,-25,5,3061,-25,5
1063,-24,5,3062,-25,5
1064,-24,5,3063,-26,5
1065,-24,5,3064,-25,5
1066,-24,5,3065,-25,5
1067,-26,5,3066,-24,5
1068,-26,5,3067,-25,5
1069,-26,5,3068,-26,5
1070,-26,5,3069,-27,5
1071,-27,5,3070,-27,5
1072,-27,5,3071,-27,5
1073,-26,5,3072,-27,5
1074,-26,5,3073,-26,5
1075,-26,5,3074,-25,5
1076,-26,5,3075,-24,5
1077,-25,5,3076,-24,5
1078,-24,5,3077,-25,5
1079,-23,5,3078,-25,5
1080,-22,5,3079,-26,5
1081,-20,5,3080,-25,5
1082,-18,5,3081,-25,5
1083,-17,5,3082,-26,5
1084,-17,5,3083,-27,5
1085,-17,5,3084,-28,5
1086,-18,5,3085,-27,5
1087,-17,5,3086,-27,5
1088,-16,5,3087,-26,5
1089,-16,5,3088,-26,5
1090,-16,5,3089,-26,5
1091,-16,5,3090,-26,5
1092,-16,5,3091,-26,5
1093,-16,5,3092,-25,5
1094,-16,5,3093,-25,5
1095,-16,5,3094,-25,5
1096,-15,5,3095,-26,5
1097,-15,5,3096,-25,5
1098,-16,5,3097,-25,5
1099,-17,5,3098,-26,5
1100,-19,5,3099,-26,5
1101,-21,5,3100,-24,5
1102,-21,5,3101,-23,5
1103,-22,5,3102,-23,5
1104,-23,5,3103,-24,5
1105,-25,5,3104,-24,5
1106,-27,5,3105,-24,5
1107,-28,5,3106,-25,5
1108,-27,5,3107,-25,5
1109,-27,5,3108,-24,5
1110,-28,5,3109,-23,5
1111,-27,5,3110,-23,5
1112,-27,5,3111,-23,5
1113,-27,5,3112,-22,5
1114,-27,5,3113,-21,5
1115,-28,5,3114,-20,5
1116,-27,5,3115,-19,5
1117,-26,5,3116,-19,5
1118,-27,5,3117,-19,5
1119,-28,5,3118,-19,5
1120,-28,5,3119,-18,5
1121,-28,5,3120,-17,5
1122,-29,5,3121,-17,5
1123,-30,5,3122,-17,5
1124,-30,5,3123,-16,5
1125,-30,5,3124,-16,5
1126,-31,5,3125,-15,5
1127,-31,5,3126,-15,5
1128,-31,5,3127,-15,5
1129,-32,5,3128,-13,5
1130,-31,5,3129,-13,5
1131,-31,5,3130,-14,5
1132,-30,5,3131,-13,5
1133,-29,5,3132,-13,5
1134,-27,5,3133,-15,5
1135,-27,5,3134,-16,5
1136,-28,5,3135,-17,5
1137,-30,5,3136,-18,5
1138,-31,5,3137,-19,5
1139,-31,5,3138,-21,5
1140,-30,5,3139,-24,5
1141,-30,5,3140,-26,5
1142,-29,5,3141,-27,5
1143,-29,5,3142,-26,5
1144,-32,5,3143,-27,5
1145,-33,5,3144,-28,5
1146,-32,5,3145,-29,5
1147,-31,5,3146,-29,5
1148,-30,5,3147,-28,5
1149,-29,5,3148,-28,5
1150,-29,5,3149,-27,5
1151,-29,5,3150,-25,5
1152,-28,5,3151,-22,5
1153,-26,5,3152,-21,5
1154,-24,5,3153,-20,5
1155,-22,5,3154,-19,5
1156,-20,5,3155,-19,5
1157,-18,5,3156,-20,5
1158,-10,5,3157,-22,5
1159,10,5,3158,-22,5
1160,39,5,3159,-24,5
1161,62,5,3160,-25,5
1162,69,5,3161,-26,5
1163,69,5,3162,-27,5
1164,69,5,3163,-28,5
1165,69,5,3164,-28,5
1166,69,5,3165,-29,5
1167,69,5,3166,-28,5
1168,69,5,3167,-28,5
1169,69,5,3168,-28,5
1170,59,5,3169,-30,5
1171,23,5,3170,-30,5
1172,-32,5,3171,-31,5
1173,-95,5,3172,-33,5
1174,-107,5,3173,-32,5
1175,-107,5,3174,-31,5
1176,-107,5,3175,-31,5
1177,-107,5,3176,-31,5
1178,-107,5,3177,-31,5
1179,-107,5,3178,-31,5
1180,-107,5,3179,-30,5
1181,-107,5,3180,-29,5
1182,-107,5,3181,-27,5
1183,-95,5,3182,-27,5
1184,-77,5,3183,-28,5
1185,-62,5,3184,-28,5
1186,-51,5,3185,-28,5
1187,-42,5,3186,-29,5
1188,-34,5,3187,-30,5
1189,-28,5,3188,-30,5
1190,-24,5,3189,-29,5
1191,-19,5,3190,-28,5
1192,-16,5,3191,-26,5
1193,-13,5,3192,-24,5
1194,-10,5,3193,-21,5
1195,-8,5,3194,-16,5
1196,-5,5,3195,-1,5
1197,-3,5,3196,23,5
1198,-2,5,3197,45,5
1199,0,5,3198,59,5
1200,0,5,3199,69,5
1201,0,5,3200,69,5
1202,0,5,3201,69,5
1203,0,5,3202,69,5
1204,1,5,3203,69,5
1205,2,5,3204,69,5
1206,2,5,3205,69,5
1207,3,5,3206,69,5
1208,3,5,3207,63,5
1209,4,5,3208,28,5
1210,4,5,3209,-25,5
1211,5,5,3210,-89,5
1212,5,5,3211,-107,5
1213,5,5,3212,-107,5
1214,6,5,3213,-107,5
1215,7,5,3214,-107,5
1216,7,5,3215,-107,5
1217,7,5,3216,-107,5
1218,7,5,3217,-107,5
1219,8,5,3218,-107,5
1220,8,5,3219,-107,5
1221,8,5,3220,-93,5
1222,8,5,3221,-75,5
1223,8,5,3222,-59,5
1224,9,5,3223,-47,5
1225,10,5,3224,-40,5
1226,11,5,3225,-34,5
1227,12,5,3226,-29,5
1228,13,5,3227,-25,5
1229,14,5,3228,-21,5
1230,16,5,3229,-17,5
1231,18,5,3230,-14,5
1232,18,5,3231,-13,5
1233,17,5,3232,-10,5
1234,17,5,3233,-6,5
1235,17,5,3234,-5,5
1236,17,5,3235,-4,5
1237,18,5,3236,-4,5
1238,19,5,3237,-3,5
1239,19,5,3238,-3,5
1240,18,5,3239,-3,5
1241,19,5,3240,-2,5
1242,20,5,3241,-2,5
1243,20,5,3242,-1,5
1244,23,5,3243,0,5
1245,24,5,3244,1,5
1246,25,5,3245,2,5
1247,26,5,3246,3,5
1248,27,5,3247,4,5
1249,27,5,3248,4,5
1250,28,5,3249,5,5
1251,29,5,3250,5,5
1252,30,5,3251,6,5
1253,31,5,3252,6,5
1254,33,5,3253,7,5
1255,35,5,3254,8,5
1256,38,5,3255,9,5
1257,40,5,3256,9,5
1258,41,5,3257,9,5
1259,42,5,3258,8,5
1260,45,5,3259,8,5
1261,47,5,3260,8,5
1262,49,5,3261,9,5
1263,51,5,3262,12,5
1264,53,5,3263,14,5
1265,54,5,3264,15,5
1266,54,5,3265,16,5
1267,56,5,3266,17,5
1268,57,5,3267,16,5
1269,59,5,3268,15,5
1270,62,5,3269,16,5
1271,64,5,3270,18,5
1272,66,5,3271,17,5
1273,68,5,3272,17,5
1274,69,5,3273,19,5
1275,69,5,3274,21,5
1276,69,5,3275,21,5
1277,69,5,3276,21,5
1278,69,5,3277,22,5
1279,69,5,3278,24,5
1280,69,5,3279,26,5
1281,69,5,3280,27,5
1282,69,5,3281,27,5
1283,69,5,3282,27,5
1284,69,5,3283,28,5
1285,69,5,3284,28,5
1286,69,5,3285,29,5
1287,69,5,3286,30,5
1288,69,5,3287,31,5
1289,69,5,3288,32,5
1290,69,5,3289,32,5
1291,69,5,3290,32,5
1292,69,5,3291,35,5
1293,69,5,3292,38,5
1294,69,5,3293,40,5
1295,69,5,3294,41,5
1296,69,5,3295,42,5
1297,69,5,3296,44,5
1298,69,5,3297,45,5
1299,69,5,3298,46,5
1300,69,5,3299,48,5
1301,69,5,3300,50,5
1302,69,5,3301,51,5
1303,69,5,3302,52,5
1304,69,5,3303,53,5
1305,69,5,3304,54,5
1306,69,5,3305,58,5
1307,69,5,3306,61,5
1308,69,5,3307,62,5
1309,69,5,3308,64,5
1310,69,5,3309,67,5
1311,69,5,3310,69,5
1312,69,5,3311,69,5
1313,69,5,3312,69,5
1314,69,5,3313,69,5
1315,69,5,3314,69,5
1316,69,5,3315,69,5
1317,69,5,3316,69,5
1318,69,5,3317,69,5
1319,69,5,3318,69,5
1320,69,5,3319,69,5
1321,69,5,3320,69,5
1322,69,5,3321,69,5
1323,68,5,3322,69,5
1324,63,5,3323,69,5
1325,58,5,3324,69,5
1326,53,5,3325,69,5
1327,48,5,3326,69,5
1328,41,5,3327,69,5
1329,37,5,3328,69,5
1330,32,5,3329,69,5
1331,28,5,3330,69,5
1332,25,5,3331,69,5
1333,22,5,3332,69,5
1334,18,5,3333,69,5
1335,14,5,3334,69,5
1336,12,5,3335,69,5
1337,10,5,3336,69,5
1338,7,5,3337,69,5
1339,4,5,3338,69,5
1340,1,5,3339,69,5
1341,0,5,3340,69,5
1342,-3,5,3341,69,5
1343,-5,5,3342,69,5
1344,-7,5,3343,69,5
1345,-9,5,3344,69,5
1346,-9,5,3345,69,5
1347,-10,5,3346,69,5
1348,-12,5,3347,69,5
1349,-13,5,3348,69,5
1350,-14,5,3349,69,5
1351,-15,5,3350,69,5
1352,-15,5,3351,69,5
1353,-15,5,3352,69,5
1354,-16,5,3353,69,5
1355,-17,5,3354,69,5
1356,-17,5,3355,69,5
1357,-17,5,3356,69,5
1358,-16,5,3357,69,5
1359,-16,5,3358,69,5
1360,-15,5,3359,69,5
1361,-16,5,3360,69,5
1362,-18,5,3361,69,5
1363,-20,5,3362,62,5
1364,-18,5,3363,56,5
1365,-18,5,3364,50,5
1366,-18,5,3365,45,5
1367,-18,5,3366,41,5
1368,-18,5,3367,36,5
1369,-18,5,3368,31,5
1370,-18,5,3369,26,5
1371,-18,5,3370,22,5
1372,-19,5,3371,19,5
1373,-19,5,3372,16,5
1374,-19,5,3373,13,5
1375,-19,5,3374,10,5
1376,-19,5,3375,7,5
1377,-17,5,3376,5,5
1378,-16,5,3377,1,5
1379,-16,5,3378,-1,5
1380,-16,5,3379,-2,5
1381,-16,5,3380,-4,5
1382,-15,5,3381,-5,5
1383,-13,5,3382,-8,5
1384,-13,5,3383,-10,5
1385,-12,5,3384,-11,5
1386,-12,5,3385,-10,5
1387,-13,5,3386,-12,5
1388,-15,5,3387,-13,5
1389,-15,5,3388,-15,5
1390,-14,5,3389,-15,5
1391,-14,5,3390,-16,5
1392,-15,5,3391,-18,5
1393,-16,5,3392,-19,5
1394,-16,5,3393,-19,5
1395,-14,5,3394,-19,5
1396,-13,5,3395,-19,5
1397,-14,5,3396,-19,5
1398,-12,5,3397,-19,5
1399,-12,5,3398,-19,5
1400,-12,5,3399,-19,5
1401,-13,5,3400,-19,5
1402,-13,5,3401,-19,5
1403,-13,5,3402,-20,5
1404,-12,5,3403,-19,5
1405,-12,5,3404,-18,5
1406,-12,5,3405,-18,5
1407,-13,5,3406,-18,5
1408,-13,5,3407,-18,5
1409,-12,5,3408,-18,5
1410,-11,5,3409,-18,5
1411,-11,5,3410,-18,5
1412,-11,5,3411,-18,5
1413,-10,5,3412,-18,5
1414,-9,5,3413,-19,5
1415,-10,5,3414,-19,5
1416,-12,5,3415,-18,5
1417,-13,5,3416,-18,5
1418,-12,5,3417,-18,5
1419,-12,5,3418,-18,5
1420,-12,5,3419,-18,5
1421,-12,5,3420,-17,5
1422,-11,5,3421,-16,5
1423,-11,5,3422,-15,5
1424,-10,5,3423,-16,5
1425,-11,5,3424,-17,5
1426,-10,5,3425,-17,5
1427,-11,5,3426,-17,5
1428,-10,5,3427,-18,5
1429,-10,5,3428,-18,5
1430,-10,5,3429,-19,5
1431,-11,5,3430,-18,5
1432,-11,5,3431,-18,5
1433,-11,5,3432,-18,5
1434,-12,5,3433,-19,5
1435,-14,5,3434,-18,5
1436,-14,5,3435,-18,5
1437,-14,5,3436,-19,5
1438,-14,5,3437,-20,5
1439,-14,5,3438,-21,5
1440,-14,5,3439,-21,5
1441,-14,5,3440,-21,5
1442,-15,5,3441,-21,5
1443,-16,5,3442,-21,5
1444,-16,5,3443,-21,5
1445,-17,5,3444,-21,5
1446,-19,5,3445,-20,5
1447,-19,5,3446,-20,5
1448,-19,5,3447,-21,5
1449,-18,5,3448,-21,5
1450,-17,5,3449,-20,5
1451,-16,5,3450,-20,5
1452,-15,5,3451,-20,5
1453,-15,5,3452,-22,5
1454,-16,5,3453,-22,5
1455,-17,5,3454,-22,5
1456,-18,5,3455,-22,5
1457,-17,5,3456,-22,5
1458,-17,5,3457,-23,5
1459,-17,5,3458,-23,5
1460,-18,5,3459,-23,5
1461,-19,5,3460,-23,5
1462,-20,5,3461,-23,5
1463,-19,5,3462,-21,5
1464,-19,5,3463,-20,5
1465,-19,5,3464,-21,5
1466,-19,5,3465,-21,5
1467,-20,5,3466,-21,5
1468,-20,5,3467,-21,5
1469,-20,5,3468,-22,5
1470,-22,5,3469,-22,5
1471,-22,5,3470,-23,5
1472,-22,5,3471,-23,5
1473,-21,5,3472,-22,5
1474,-21,5,3473,-20,5
1475,-20,5,3474,-20,5
1476,-19,5,3475,-21,5
1477,-19,5,3476,-22,5
1478,-19,5,3477,-22,5
1479,-20,5,3478,-23,5
1480,-20,5,3479,-23,5
1481,-20,5,3480,-21,5
1482,-21,5,3481,-21,5
1483,-21,5,3482,-21,5
1484,-21,5,3483,-22,5
1485,-22,5,3484,-24,5
1486,-21,5,3485,-24,5
1487,-21,5,3486,-24,5
1488,-20,5,3487,-24,5
1489,-21,5,3488,-25,5
1490,-21,5,3489,-26,5
1491,-22,5,3490,-26,5
1492,-24,5,3491,-26,5
1493,-25,5,3492,-26,5
1494,-24,5,3493,-27,5
1495,-24,5,3494,-25,5
1496,-24,5,3495,-23,5
1497,-25,5,3496,-22,5
1498,-24,5,3497,-22,5
1499,-22,5,3498,-22,5
1500,-22,5,3499,-24,5
1501,-22,5,3500,-25,5
1502,-22,5,3501,-26,5
1503,-21,5,3502,-25,5
1504,-20,5,3503,-25,5
1505,-19,5,3504,-25,5
1506,-20,5,3505,-26,5
1507,-21,5,3506,-27,5
1508,-22,5,3507,-27,5
1509,-23,5,3508,-27,5
1510,-23,5,3509,-27,5
1511,-23,5,3510,-28,5
1512,-24,5,3511,-28,5
1513,-24,5,3512,-26,5
1514,-24,5,3513,-26,5
1515,-23,5,3514,-27,5
1516,-23,5,3515,-27,5
1517,-23,5,3516,-27,5
1518,-23,5,3517,-27,5
1519,-22,5,3518,-27,5
1520,-22,5,3519,-27,5
1521,-22,5,3520,-26,5
1522,-23,5,3521,-25,5
1523,-23,5,3522,-26,5
1524,-23,5,3523,-26,5
1525,-23,5,3524,-26,5
1526,-24,5,3525,-26,5
1527,-25,5,3526,-27,5
1528,-26,5,3527,-26,5
1529,-25,5,3528,-25,5
1530,-25,5,3529,-26,5
1531,-23,5,3530,-27,5
1532,-22,5,3531,-27,5
1533,-23,5,3532,-27,5
1534,-25,5,3533,-29,5
1535,-27,5,3534,-29,5
1536,-27,5,3535,-28,5
1537,-26,5,3536,-28,5
1538,-25,5,3537,-27,5
1539,-25,5,3538,-26,5
1540,-25,5,3539,-26,5
1541,-26,5,3540,-27,5
1542,-26,5,3541,-27,5
1543,-24,5,3542,-27,5
1544,-24,5,3543,-27,5
1545,-25,5,3544,-28,5
1546,-26,5,3545,-29,5
1547,-26,5,3546,-29,5
1548,-26,5,3547,-28,5
1549,-27,5,3548,-28,5
1550,-28,5,3549,-27,5
1551,-27,5,3550,-25,5
1552,-27,5,3551,-25,5
1553,-27,5,3552,-26,5
1554,-28,5,3553,-26,5
1555,-28,5,3554,-26,5
1556,-27,5,3555,-26,5
1557,-27,5,3556,-27,5
1558,-28,5,3557,-28,5
1559,-27,5,3558,-29,5
1560,-26,5,3559,-28,5
1561,-25,5,3560,-28,5
1562,-25,5,3561,-29,5
1563,-24,5,3562,-28,5
1564,-23,5,3563,-26,5
1565,-23,5,3564,-26,5
1566,-23,5,3565,-26,5
1567,-24,5,3566,-26,5
1568,-23,5,3567,-26,5
1569,-22,5,3568,-27,5
1570,-22,5,3569,-28,5
1571,-22,5,3570,-28,5
1572,-22,5,3571,-28,5
1573,-23,5,3572,-28,5
1574,-25,5,3573,-28,5
1575,-26,5,3574,-27,5
1576,-25,5,3575,-27,5
1577,-25,5,3576,-26,5
1578,-25,5,3577,-26,5
1579,-25,5,3578,-27,5
1580,-25,5,3579,-28,5
1581,-24,5,3580,-29,5
1582,-23,5,3581,-28,5
1583,-21,5,3582,-27,5
1584,-19,5,3583,-27,5
1585,-17,5,3584,-27,5
1586,-16,5,3585,-26,5
1587,-16,5,3586,-26,5
1588,-17,5,3587,-26,5
1589,-17,5,3588,-26,5
1590,-16,5,3589,-27,5
1591,-16,5,3590,-27,5
1592,-15,5,3591,-27,5
1593,-15,5,3592,-27,5
1594,-16,5,3593,-27,5
1595,-18,5,3594,-27,5
1596,-19,5,3595,-27,5
1597,-20,5,3596,-28,5
1598,-21,5,3597,-28,5
1599,-23,5,3598,-25,5
1600,-25,5,3599,-25,5
1601,-27,5,3600,-25,5
1602,-28,5,3601,-25,5
1603,-30,5,3602,-26,5
1604,-32,5,3603,-28,5
1605,-33,5,3604,-29,5
1606,-32,5,3605,-27,5
1607,-32,5,3606,-26,5
1608,-31,5,3607,-26,5
1609,-30,5,3608,-25,5
1610,-29,5,3609,-25,5
1611,-28,5,3610,-26,5
1612,-28,5,3611,-27,5
1613,-28,5,3612,-28,5
1614,-27,5,3613,-28,5
1615,-26,5,3614,-27,5
1616,-25,5,3615,-27,5
1617,-24,5,3616,-27,5
1618,-23,5,3617,-26,5
1619,-23,5,3618,-25,5
1620,-24,5,3619,-24,5
1621,-25,5,3620,-25,5
1622,-25,5,3621,-27,5
1623,-27,5,3622,-26,5
1624,-28,5,3623,-25,5
1625,-30,5,3624,-25,5
1626,-30,5,3625,-26,5
1627,-31,5,3626,-25,5
1628,-31,5,3627,-25,5
1629,-30,5,3628,-24,5
1630,-30,5,3629,-23,5
1631,-31,5,3630,-24,5
1632,-31,5,3631,-25,5
1633,-31,5,3632,-23,5
1634,-31,5,3633,-21,5
1635,-30,5,3634,-19,5
1636,-30,5,3635,-18,5
1637,-31,5,3636,-18,5
1638,-32,5,3637,-19,5
1639,-33,5,3638,-19,5
1640,-32,5,3639,-18,5
1641,-32,5,3640,-17,5
1642,-32,5,3641,-16,5
1643,-32,5,3642,-16,5
1644,-32,5,3643,-16,5
1645,-32,5,3644,-17,5
1646,-31,5,3645,-17,5
1647,-30,5,3646,-16,5
1648,-30,5,3647,-16,5
1649,-30,5,3648,-19,5
1650,-29,5,3649,-20,5
1651,-28,5,3650,-21,5
1652,-29,5,3651,-22,5
1653,-28,5,3652,-23,5
1654,-27,5,3653,-26,5
1655,-26,5,3654,-28,5
1656,-24,5,3655,-31,5
1657,-21,5,3656,-33,5
1658,-17,5,3657,-32,5
1659,-7,5,3658,-31,5
1660,14,5,3659,-31,5
1661,40,5,3660,-30,5
1662,59,5,3661,-30,5
1663,69,5,3662,-30,5
1664,69,5,3663,-29,5
1665,69,5,3664,-29,5
1666,69,5,3665,-28,5
1667,69,5,3666,-27,5
1668,69,5,3667,-26,5
1669,69,5,3668,-25,5
1670,69,5,3669,-24,5
1671,55,5,3670,-25,5
1672,23,5,3671,-25,5
1673,-23,5,3672,-25,5
1674,-84,5,3673,-26,5
1675,-107,5,3674,-27,5
1676,-107,5,3675,-27,5
1677,-107,5,3676,-29,5
1678,-107,5,3677,-30,5
1679,-107,5,3678,-31,5
1680,-107,5,3679,-32,5
1681,-107,5,3680,-35,5
1682,-107,5,3681,-35,5
1683,-107,5,3682,-35,5
1684,-100,5,3683,-35,5
1685,-81,5,3684,-34,5
1686,-65,5,3685,-33,5
1687,-52,5,3686,-32,5
1688,-40,5,3687,-32,5
1689,-32,5,3688,-32,5
1690,-26,5,3689,-31,5
1691,-23,5,3690,-31,5
1692,-21,5,3691,-30,5
1693,-17,5,3692,-29,5
1694,-14,5,3693,-29,5
1695,-11,5,3694,-29,5
1696,-10,5,3695,-29,5
1697,-8,5,3696,-30,5
1698,-5,5,3697,-29,5
1699,-4,5,3698,-30,5
1700,-4,5,3699,-30,5
1701,-3,5,3700,-30,5
1702,-2,5,3701,-30,5
1703,-1,5,3702,-30,5
1704,0,5,3703,-30,5
1705,1,5,3704,-30,5
1706,2,5,3705,-29,5
1707,4,5,3706,-27,5
1708,5,5,3707,-25,5
1709,6,5,3708,-23,5
1710,6,5,3709,-21,5
1711,5,5,3710,-14,5
1712,5,5,3711,4,5
1713,5,5,3712,36,5
1714,6,5,3713,66,5
1715,7,5,3714,69,5
1716,7,5,3715,69,5
1717,7,5,3716,69,5
1718,7,5,3717,69,5
1719,9,5,3718,69,5
1720,10,5,3719,69,5
1721,11,5,3720,69,5
1722,11,5,3721,69,5
1723,12,5,3722,69,5
1724,12,5,3723,36,5
1725,13,5,3724,-15,5
1726,15,5,3725,-78,5
1727,17,5,3726,-107,5
1728,16,5,3727,-107,5
1729,18,5,3728,-107,5
1730,19,5,3729,-107,5
1731,19,5,3730,-107,5
1732,20,5,3731,-107,5
1733,20,5,3732,-107,5
1734,20,5,3733,-107,5
1735,19,5,3734,-107,5
1736,18,5,3735,-106,5
1737,18,5,3736,-86,5
1738,19,5,3737,-70,5
1739,21,5,3738,-58,5
1740,21,5,3739,-48,5
1741,23,5,3740,-38,5
1742,25,5,3741,-31,5
1743,27,5,3742,-26,5
1744,27,5,3743,-22,5
1745,25,5,3744,-17,5
1746,25,5,3745,-13,5
1747,27,5,3746,-9,5
1748,28,5,3747,-6,5
1749,28,5,3748,-4,5
1750,29,5,3749,-3,5
1751,31,5,3750,-2,5
1752,33,5,3751,-2,5
1753,35,5,3752,-2,5
1754,36,5,3753,-2,5
1755,36,5,3754,0,5
1756,36,5,3755,1,5
1757,38,5,3756,1,5
1758,39,5,3757,1,5
1759,42,5,3758,1,5
1760,45,5,3759,0,5
1761,47,5,3760,1,5
1762,48,5,3761,2,5
1763,49,5,3762,3,5
1764,51,5,3763,4,5
1765,52,5,3764,6,5
1766,54,5,3765,5,5
1767,56,5,3766,5,5
1768,58,5,3767,5,5
1769,60,5,3768,5,5
1770,63,5,3769,7,5
1771,66,5,3770,9,5
1772,67,5,3771,9,5
1773,69,5,3772,9,5
1774,69,5,3773,9,5
1775,69,5,3774,9,5
1776,69,5,3775,10,5
1777,69,5,3776,12,5
1778,69,5,3777,12,5
1779,69,5,3778,14,5
1780,69,5,3779,14,5
1781,69,5,3780,14,5
1782,69,5,3781,13,5
1783,69,5,3782,12,5
1784,69,5,3783,12,5
1785,69,5,3784,12,5
1786,69,5,3785,15,5
1787,69,5,3786,16,5
1788,69,5,3787,18,5
1789,69,5,3788,20,5
1790,69,5,3789,20,5
1791,69,5,3790,21,5
1792,69,5,3791,21,5
1793,69,5,3792,22,5
1794,69,5,3793,23,5
1795,69,5,3794,23,5
1796,69,5,3795,23,5
1797,69,5,3796,23,5
1798,69,5,3797,24,5
1799,69,5,3798,25,5
1800,69,5,3799,26,5
1801,69,5,3800,26,5
1802,69,5,3801,28,5
1803,69,5,3802,30,5
1804,69,5,3803,31,5
1805,69,5,3804,33,5
1806,69,5,3805,35,5
1807,69,5,3806,37,5
1808,69,5,3807,37,5
1809,69,5,3808,37,5
1810,69,5,3809,39,5
1811,69,5,3810,41,5
1812,69,5,3811,43,5
1813,69,5,3812,44,5
1814,69,5,3813,44,5
1815,69,5,3814,44,5
1816,69,5,3815,47,5
1817,69,5,3816,50,5
1818,69,5,3817,52,5
1819,69,5,3818,54,5
1820,69,5,3819,56,5
1821,69,5,3820,59,5
1822,69,5,3821,60,5
1823,69,5,3822,62,5
1824,69,5,3823,64,5
1825,67,5,3824,67,5
1826,63,5,3825,69,5
1827,57,5,3826,69,5
1828,52,5,3827,69,5
1829,47,5,3828,69,5
1830,43,5,3829,69,5
1831,39,5,3830,69,5
1832,34,5,3831,69,5
1833,28,5,3832,69,5
1834,23,5,3833,69,5
1835,20,5,3834,69,5
1836,16,5,3835,69,5
1837,13,5,3836,69,5
1838,9,5,3837,69,5
1839,6,5,3838,69,5
1840,3,5,3839,69,5
1841,1,5,3840,69,5
1842,0,5,3841,69,5
1843,0,5,3842,69,5
1844,-3,5,3843,69,5
1845,-6,5,3844,69,5
1846,-8,5,3845,69,5
1847,-8,5,3846,69,5
1848,-9,5,3847,69,5
1849,-10,5,3848,69,5
1850,-9,5,3849,69,5
1851,-12,5,3850,69,5
1852,-13,5,3851,69,5
1853,-13,5,3852,69,5
1854,-15,5,3853,69,5
1855,-16,5,3854,69,5
1856,-15,5,3855,69,5
1857,-15,5,3856,69,5
1858,-15,5,3857,69,5
1859,-16,5,3858,69,5
1860,-16,5,3859,69,5
1861,-15,5,3860,69,5
1862,-16,5,3861,69,5
1863,-16,5,3862,69,5
1864,-16,5,3863,69,5
1865,-17,5,3864,69,5
1866,-17,5,3865,69,5
1867,-17,5,3866,69,5
1868,-17,5,3867,69,5
1869,-16,5,3868,69,5
1870,-16,5,3869,69,5
1871,-15,5,3870,69,5
1872,-14,5,3871,69,5
1873,-13,5,3872,69,5
1874,-13,5,3873,69,5
1875,-14,5,3874,69,5
1876,-14,5,3875,69,5
1877,-14,5,3876,64,5
1878,-14,5,3877,60,5
1879,-15,5,3878,54,5
1880,-17,5,3879,48,5
1881,-15,5,3880,43,5
1882,-15,5,3881,39,5
1883,-15,5,3882,33,5
1884,-15,5,3883,29,5
1885,-15,5,3884,25,5
1886,-15,5,3885,20,5
1887,-15,5,3886,16,5
1888,-15,5,3887,12,5
1889,-14,5,3888,10,5
1890,-14,5,3889,7,5
1891,-15,5,3890,5,5
1892,-16,5,3891,3,5
1893,-16,5,3892,0,5
1894,-15,5,3893,-1,5
1895,-15,5,3894,-4,5
1896,-14,5,3895,-8,5
1897,-14,5,3896,-10,5
1898,-15,5,3897,-12,5
1899,-15,5,3898,-12,5
1900,-16,5,3899,-13,5
1901,-17,5,3900,-16,5
1902,-17,5,3901,-18,5
1903,-17,5,3902,-18,5
1904,-16,5,3903,-18,5
1905,-15,5,3904,-18,5
1906,-15,5,3905,-16,5
1907,-16,5,3906,-15,5
1908,-16,5,3907,-15,5
1909,-16,5,3908,-16,5
1910,-16,5,3909,-17,5
1911,-15,5,3910,-17,5
1912,-14,5,3911,-17,5
1913,-14,5,3912,-17,5
1914,-14,5,3913,-18,5
1915,-16,5,3914,-19,5
1916,-17,5,3915,-19,5
1917,-17,5,3916,-19,5
1918,-17,5,3917,-19,5
1919,-17,5,3918,-18,5
1920,-18,5,3919,-17,5
1921,-17,5,3920,-16,5
1922,-17,5,3921,-16,5
1923,-18,5,3922,-16,5
1924,-18,5,3923,-17,5
1925,-17,5,3924,-18,5
1926,-16,5,3925,-17,5
1927,-15,5,3926,-18,5
1928,-16,5,3927,-18,5
1929,-17,5,3928,-17,5
1930,-16,5,3929,-17,5
1931,-16,5,3930,-17,5
1932,-17,5,3931,-17,5
1933,-18,5,3932,-18,5
1934,-19,5,3933,-18,5
1935,-20,5,3934,-17,5
1936,-19,5,3935,-17,5
1937,-18,5,3936,-16,5
1938,-16,5,3937,-17,5
1939,-16,5,3938,-19,5
1940,-17,5,3939,-18,5
1941,-19,5,3940,-16,5
1942,-18,5,3941,-15,5
1943,-17,5,3942,-14,5
1944,-17,5,3943,-16,5
1945,-16,5,3944,-17,5
1946,-16,5,3945,-17,5
1947,-17,5,3946,-16,5
1948,-19,5,3947,-15,5
1949,-19,5,3948,-13,5
1950,-18,5,3949,-13,5
1951,-17,5,3950,-15,5
1952,-18,5,3951,-17,5
1953,-21,5,3952,-18,5
1954,-24,5,3953,-17,5
1955,-23,5,3954,-15,5
1956,-23,5,3955,-14,5
1957,-22,5,3956,-14,5
1958,-22,5,3957,-14,5
1959,-22,5,3958,-14,5
1960,-23,5,3959,-13,5
1961,-23,5,3960,-13,5
1962,-22,5,3961,-14,5
1963,-22,5,3962,-13,5
1964,-22,5,3963,-12,5
1965,-21,5,3964,-12,5
1966,-20,5,3965,-13,5
1967,-20,5,3966,-11,5
1968,-21,5,3967,-11,5
1969,-21,5,3968,-11,5
1970,-21,5,3969,-11,5
1971,-21,5,3970,-12,5
1972,-22,5,3971,-13,5
1973,-23,5,3972,-14,5
1974,-24,5,3973,-15,5
1975,-23,5,3974,-16,5
1976,-23,5,3975,-15,5
1977,-22,5,3976,-14,5
1978,-22,5,3977,-14,5
1979,-22,5,3978,-14,5
1980,-22,5,3979,-15,5
1981,-22,5,3980,-15,5
1982,-21,5,3981,-13,5
1983,-22,5,3982,-12,5
1984,-23,5,3983,-13,5
1985,-22,5,3984,-13,5
1986,-23,5,3985,-14,5
1987,-23,5,3986,-15,5
1988,-24,5,3987,-16,5
1989,-24,5,3988,-16,5
1990,-24,5,3989,-15,5
1991,-23,5,3990,-15,5
1992,-23,5,3991,-16,5
1993,-22,5,3992,-17,5
1994,-22,5,3993,-18,5
1995,-23,5,3994,-18,5
1996,-22,5,3995,-17,5
1997,-23,5,3996,-17,5
1998,-23,5,3997,-17,5
1999,-24,5,3998,-18,5
2000,-25,5,3999,-19,5
2001,-25,5,4000,-20,5
2002,-25,5,4001,-19,5
2003,-24,5,4002,-19,5
2004,-25,5,4003,-18,5
2005,-26,5,4004,-18,5
2006,-25,5,4005,-19,5
2007,-24,5,4006,-20,5
2008,-23,5,4007,-21,5
2009,-24,5,4008,-22,5
2010,-24,5,4009,-21,5
2011,-23,5,4010,-20,5
2012,-22,5,4011,-18,5
2013,-22,5,4012,-18,5
2014,-23,5,4013,-17,5
2015,-24,5,4014,-17,5
2016,-24,5,4015,-19,5
2017,-25,5,4016,-20,5
2018,-25,5,4017,-20,5
2019,-25,5,4018,-21,5
2020,-25,5,4019,-21,5
2021,-25,5,4020,-21,5
2022,-22,5,4021,-23,5
2023,-21,5,4022,-23,5
2024,-20,5,4023,-24,5
2025,-20,5,4024,-24,5
2026,-21,5,4025,-24,5
2027,-21,5,4026,-24,5
2028,-21,5,4027,-24,5
2029,-22,5,4028,-24,5
2030,-22,5,4029,-23,5
2031,-21,5,4030,-22,5
2032,-22,5,4031,-23,5
2033,-22,5,4032,-22,5
2034,-23,5,4033,-21,5
2035,-23,5,4034,-20,5
2036,-22,5,4035,-21,5
2037,-21,5,4036,-23,5
2038,-23,5,4037,-25,5
2039,-24,5,4038,-25,5
2040,-25,5,4039,-26,5
2041,-26,5,4040,-26,5
2042,-26,5,4041,-25,5
2043,-25,5,4042,-26,5
2044,-23,5,4043,-25,5
2045,-22,5,4044,-25,5
2046,-21,5,4045,-24,5
2047,-21,5,4046,-23,5
2048,-21,5,4047,-23,5
2049,-23,5,4048,-24,5
2050,-25,5,4049,-24,5
2051,-26,5,4050,-24,5
2052,-25,5,4051,-23,5
2053,-25,5,4052,-23,5
2054,-25,5,4053,-22,5
2055,-24,5,4054,-23,5
2056,-24,5,4055,-23,5
2057,-24,5,4056,-24,5
2058,-24,5,4057,-25,5
2059,-24,5,4058,-24,5
2060,-23,5,4059,-23,5
2061,-22,5,4060,-23,5
2062,-22,5,4061,-23,5
2063,-23,5,4062,-23,5
2064,-23,5,4063,-24,5
2065,-23,5,4064,-24,5
2066,-23,5,4065,-24,5
2067,-24,5,4066,-23,5
2068,-24,5,4067,-22,5
2069,-24,5,4068,-23,5
2070,-24,5,4069,-24,5
2071,-23,5,4070,-24,5
2072,-23,5,4071,-25,5
2073,-23,5,4072,-27,5
2074,-23,5,4073,-27,5
2075,-24,5,4074,-27,5
2076,-23,5,4075,-27,5
2077,-20,5,4076,-27,5
2078,-19,5,4077,-28,5
2079,-20,5,4078,-27,5
2080,-20,5,4079,-26,5
2081,-20,5,4080,-25,5
2082,-21,5,4081,-23,5
2083,-22,5,4082,-23,5
2084,-22,5,4083,-22,5
2085,-22,5,4084,-22,5
2086,-23,5,4085,-22,5
2087,-23,5,4086,-23,5
2088,-23,5,4087,-24,5
2089,-24,5,4088,-24,5
2090,-22,5,4089,-24,5
2091,-21,5,4090,-24,5
2092,-20,5,4091,-24,5
2093,-20,5,4092,-24,5
2094,-20,5,4093,-24,5
2095,-19,5,4094,-23,5
2096,-18,5,4095,-24,5
2097,-17,5,4096,-25,5
2098,-16,5,4097,-26,5
2099,-17,5,4098,-26,5
2100,-17,5,4099,-26,5
2101,-17,5,4100,-26,5
2102,-16,5,4101,-26,5
2103,-15,5,4102,-27,5
2104,-14,5,4103,-28,5
2105,-13,5,4104,-26,5
2106,-13,5,4105,-25,5
2107,-13,5,4106,-24,5
2108,-13,5,4107,-24,5
2109,-13,5,4108,-22,5
2110,-14,5,4109,-19,5
2111,-15,5,4110,-19,5
2112,-16,5,4111,-22,5
2113,-16,5,4112,-24,5
2114,-16,5,4113,-26,5
2115,-16,5,4114,-27,5
2116,-19,5,4115,-26,5
2117,-21,5,4116,-26,5
2118,-23,5,4117,-26,5
2119,-25,5,4118,-27,5
2120,-27,5,4119,-25,5
2121,-29,5,4120,-25,5
2122,-28,5,4121,-24,5
2123,-28,5,4122,-23,5
2124,-28,5,4123,-24,5
2125,-28,5,4124,-24,5
2126,-27,5,4125,-24,5
2127,-24,5,4126,-25,5
2128,-23,5,4127,-25,5
2129,-22,5,4128,-25,5
2130,-21,5,4129,-25,5
2131,-21,5,4130,-23,5
2132,-21,5,4131,-22,5
2133,-20,5,4132,-21,5
2134,-20,5,4133,-19,5
2135,-20,5,4134,-19,5
2136,-22,5,4135,-19,5
2137,-23,5,4136,-20,5
2138,-24,5,4137,-20,5
2139,-25,5,4138,-21,5
2140,-25,5,4139,-19,5
2141,-26,5,4140,-16,5
2142,-26,5,4141,-16,5
2143,-26,5,4142,-15,5
2144,-27,5,4143,-15,5
2145,-29,5,4144,-15,5
2146,-30,5,4145,-15,5
2147,-29,5,4146,-16,5
2148,-30,5,4147,-17,5
2149,-31,5,4148,-16,5
2150,-30,5,4149,-16,5
2151,-29,5,4150,-16,5
2152,-28,5,4151,-17,5
2153,-29,5,4152,-19,5
2154,-29,5,4153,-21,5
2155,-28,5,4154,-22,5
2156,-29,5,4155,-23,5
2157,-29,5,4156,-24,5
2158,-29,5,4157,-25,5
2159,-30,5,4158,-26,5
2160,-29,5,4159,-28,5
2161,-29,5,4160,-31,5
2162,-28,5,4161,-31,5
2163,-27,5,4162,-31,5
2164,-28,5,4163,-32,5
2165,-29,5,4164,-33,5
2166,-27,5,4165,-32,5
2167,-26,5,4166,-30,5
2168,-26,5,4167,-29,5
2169,-27,5,4168,-27,5
2170,-27,5,4169,-27,5
2171,-26,5,4170,-26,5
2172,-24,5,4171,-24,5
2173,-21,5,4172,-23,5
2174,-14,5,4173,-22,5
2175,-1,5,4174,-22,5
2176,21,5,4175,-23,5
2177,45,5,4176,-24,5
2178,62,5,4177,-26,5
2179,69,5,4178,-27,5
2180,69,5,4179,-27,5
2181,69,5,4180,-27,5
2182,69,5,4181,-28,5
2183,69,5,4182,-30,5
2184,69,5,4183,-32,5
2185,69,5,4184,-33,5
2186,69,5,4185,-33,5
2187,69,5,4186,-34,5
2188,46,5,4187,-33,5
2189,-3,5,4188,-32,5
2190,-68,5,4189,-32,5
2191,-107,5,4190,-32,5
2192,-107,5,4191,-32,5
2193,-107,5,4192,-32,5
2194,-107,5,4193,-32,5
2195,-107,5,4194,-31,5
2196,-107,5,4195,-31,5
2197,-107,5,4196,-32,5
2198,-107,5,4197,-32,5
2199,-107,5,4198,-31,5
2200,-95,5,4199,-31,5
2201,-77,5,4200,-30,5
2202,-62,5,4201,-28,5
2203,-49,5,4202,-28,5
2204,-40,5,4203,-29,5
2205,-34,5,4204,-30,5
2206,-29,5,4205,-31,5
2207,-25,5,4206,-30,5
2208,-20,5,4207,-28,5
2209,-17,5,4208,-28,5
2210,-13,5,4209,-28,5
2211,-10,5,4210,-27,5
2212,-7,5,4211,-26,5
2213,-6,5,4212,-23,5
2214,-4,5,4213,-20,5
2215,-3,5,4214,-13,5
2216,-3,5,4215,4,5
2217,-2,5,4216,29,5
2218,-1,5,4217,50,5
2219,-1,5,4218,65,5
2220,-1,5,4219,69,5
2221,0,5,4220,69,5
2222,1,5,4221,69,5
2223,2,5,4222,69,5
2224,4,5,4223,69,5
2225,4,5,4224,69,5
2226,4,5,4225,69,5
2227,4,5,4226,65,5
2228,4,5,4227,41,5
2229,4,5,4228,2,5
2230,5,5,4229,-53,5
2231,6,5,4230,-107,5
2232,7,5,4231,-107,5
2233,8,5,4232,-107,5
2234,9,5,4233,-107,5
2235,9,5,4234,-107,5
2236,10,5,4235,-107,5
2237,10,5,4236,-107,5
2238,11,5,4237,-107,5
2239,11,5,4238,-107,5
2240,11,5,4239,-107,5
2241,13,5,4240,-86,5
2242,13,5,4241,-68,5
2243,14,5,4242,-55,5
2244,14,5,4243,-45,5
2245,14,5,4244,-37,5
2246,15,5,4245,-32,5
2247,16,5,4246,-29,5
2248,17,5,4247,-25,5
2249,16,5,4248,-19,5
2250,16,5,4249,-15,5
2251,17,5,4250,-12,5
2252,17,5,4251,-10,5
2253,19,5,4252,-9,5
2254,21,5,4253,-9,5
2255,22,5,4254,-9,5
2256,22,5,4255,-7,5
2257,23,5,4256,-5,5
2258,23,5,4257,-4,5
2259,25,5,4258,-1,5
2260,26,5,4259,0,5
2261,27,5,4260,2,5
2262,26,5,4261,1,5
2263,27,5,4262,0,5
2264,30,5,4263,0,5
2265,31,5,4264,1,5
2266,33,5,4265,2,5
2267,34,5,4266,3,5
2268,35,5,4267,4,5
2269,37,5,4268,4,5
2270,38,5,4269,4,5
2271,39,5,4270,4,5
2272,40,5,4271,5,5
2273,41,5,4272,7,5
2274,42,5,4273,7,5
2275,43,5,4274,6,5
2276,44,5,4275,6,5
2277,44,5,4276,6,5
2278,44,5,4277,8,5
2279,45,5,4278,10,5
2280,48,5,4279,11,5
2281,50,5,4280,12,5
2282,53,5,4281,13,5
2283,55,5,4282,13,5
2284,58,5,4283,15,5
2285,60,5,4284,15,5
2286,62,5,4285,16,5
2287,64,5,4286,15,5
2288,66,5,4287,15,5
2289,68,5,4288,15,5
2290,69,5,4289,16,5
2291,69,5,4290,17,5
2292,69,5,4291,16,5
2293,69,5,4292,17,5
2294,69,5,4293,18,5
2295,69,5,4294,19,5
2296,69,5,4295,20,5
2297,69,5,4296,22,5
2298,69,5,4297,24,5
2299,69,5,4298,24,5
2300,69,5,4299,23,5
2301,69,5,4300,22,5
2302,69,5,4301,23,5
2303,69,5,4302,24,5
2304,69,5,4303,26,5
2305,69,5,4304,27,5
2306,69,5,4305,28,5
2307,69,5,4306,30,5
2308,69,5,4307,31,5
2309,69,5,4308,32,5
2310,69,5,4309,32,5
2311,69,5,4310,34,5
2312,69,5,4311,35,5
2313,69,5,4312,37,5
2314,69,5,4313,39,5
2315,69,5,4314,41,5
2316,69,5,4315,41,5
2317,69,5,4316,42,5
2318,69,5,4317,44,5
2319,69,5,4318,45,5
2320,69,5,4319,47,5
2321,69,5,4320,49,5
2322,69,5,4321,52,5
2323,69,5,4322,55,5
2324,69,5,4323,57,5
2325,69,5,4324,57,5
2326,69,5,4325,58,5
2327,69,5,4326,60,5
2328,69,5,4327,63,5
2329,69,5,4328,66,5
2330,69,5,4329,68,5
2331,69,5,4330,69,5
2332,69,5,4331,69,5
2333,69,5,4332,69,5
2334,69,5,4333,69,5
2335,69,5,4334,69,5
2336,69,5,4335,69,5
2337,69,5,4336,69,5
2338,69,5,4337,69,5
2339,69,5,4338,69,5
2340,69,5,4339,69,5
2341,69,5,4340,69,5
2342,64,5,4341,69,5
2343,58,5,4342,69,5
2344,53,5,4343,69,5
2345,49,5,4344,69,5
2346,44,5,4345,69,5
2347,39,5,4346,69,5
2348,34,5,4347,69,5
2349,30,5,4348,69,5
2350,27,5,4349,69,5
2351,22,5,4350,69,5
2352,17,5,4351,69,5
2353,13,5,4352,69,5
2354,9,5,4353,69,5
2355,7,5,4354,69,5
2356,5,5,4355,69,5
2357,3,5,4356,69,5
2358,1,5,4357,69,5
2359,0,5,4358,69,5
2360,-1,5,4359,69,5
2361,-3,5,4360,69,5
2362,-4,5,4361,69,5
2363,-6,5,4362,69,5
2364,-7,5,4363,69,5
2365,-9,5,4364,69,5
2366,-11,5,4365,69,5
2367,-13,5,4366,69,5
2368,-14,5,4367,69,5
2369,-15,5,4368,69,5
2370,-16,5,4369,69,5
2371,-16,5,4370,69,5
2372,-16,5,4371,69,5
2373,-16,5,4372,69,5
2374,-16,5,4373,69,5
2375,-16,5,4374,69,5
2376,-16,5,4375,69,5
2377,-17,5,4376,69,5
2378,-17,5,4377,69,5
2379,-17,5,4378,69,5
2380,-15,5,4379,69,5
2381,-14,5,4380,68,5
2382,-14,5,4381,62,5
2383,-14,5,4382,56,5
2384,-14,5,4383,51,5
2385,-15,5,4384,47,5
2386,-16,5,4385,42,5
2387,-16,5,4386,38,5
2388,-16,5,4387,34,5
2389,-16,5,4388,30,5
2390,-17,5,4389,26,5
2391,-16,5,4390,20,5
2392,-15,5,4391,14,5
2393,-14,5,4392,10,5
2394,-13,5,4393,6,5
2395,-13,5,4394,3,5
2396,-13,5,4395,1,5
2397,-14,5,4396,0,5
2398,-15,5,4397,-2,5
2399,-16,5,4398,-4,5
2400,-16,5,4399,-7,5
2401,-17,5,4400,-9,5
2402,-16,5,4401,-10,5
2403,-16,5,4402,-11,5
2404,-17,5,4403,-12,5
2405,-17,5,4404,-13,5
2406,-16,5,4405,-15,5
2407,-15,5,4406,-16,5
2408,-15,5,4407,-16,5
2409,-14,5,4408,-17,5
2410,-14,5,4409,-18,5
2411,-14,5,4410,-18,5
2412,-14,5,4411,-19,5
2413,-16,5,4412,-21,5
2414,-18,5,4413,-23,5
2415,-17,5,4414,-22,5
2416,-17,5,4415,-21,5
2417,-16,5,4416,-20,5
2418,-16,5,4417,-20,5
2419,-15,5,4418,-19,5
2420,-15,5,4419,-20,5
2421,-15,5,4420,-21,5
2422,-16,5,4421,-22,5
2423,-16,5,4422,-22,5
2424,-17,5,4423,-21,5
2425,-18,5,4424,-19,5
2426,-18,5,4425,-17,5
2427,-19,5,4426,-19,5
2428,-17,5,4427,-19,5
2429,-17,5,4428,-19,5
2430,-16,5,4429,-18,5
2431,-17,5,4430,-18,5
2432,-16,5,4431,-19,5
2433,-16,5,4432,-20,5
2434,-17,5,4433,-20,5
2435,-18,5,4434,-19,5
2436,-18,5,4435,-18,5
2437,-18,5,4436,-16,5
2438,-18,5,4437,-16,5
2439,-19,5,4438,-17,5
2440,-18,5,4439,-19,5
2441,-18,5,4440,-21,5
2442,-19,5,4441,-20,5
2443,-18,5,4442,-19,5
2444,-17,5,4443,-18,5
2445,-17,5,4444,-19,5
2446,-18,5,4445,-19,5
2447,-20,5,4446,-20,5
2448,-22,5,4447,-19,5
2449,-21,5,4448,-18,5
2450,-20,5,4449,-18,5
2451,-20,5,4450,-19,5
2452,-19,5,4451,-18,5
2453,-19,5,4452,-17,5
2454,-20,5,4453,-18,5
2455,-20,5,4454,-18,5
2456,-19,5,4455,-19,5
2457,-18,5,4456,-20,5
2458,-18,5,4457,-22,5
2459,-19,5,4458,-21,5
2460,-19,5,4459,-21,5
2461,-20,5,4460,-21,5
2462,-21,5,4461,-20,5
2463,-22,5,4462,-20,5
2464,-23,5,4463,-21,5
2465,-24,5,4464,-21,5
2466,-24,5,4465,-21,5
2467,-24,5,4466,-20,5
2468,-24,5,4467,-19,5
2469,-23,5,4468,-20,5
2470,-22,5,4469,-21,5
2471,-20,5,4470,-21,5
2472,-20,5,4471,-21,5
2473,-21,5,4472,-21,5
2474,-22,5,4473,-21,5
2475,-22,5,4474,-20,5
2476,-23,5,4475,-21,5
2477,-23,5,4476,-22,5
2478,-26,5,4477,-23,5
2479,-27,5,4478,-22,5
2480,-27,5,4479,-23,5
2481,-27,5,4480,-24,5
2482,-26,5,4481,-25,5
2483,-26,5,4482,-24,5
2484,-25,5,4483,-21,5
2485,-24,5,4484,-21,5
2486,-22,5,4485,-21,5
2487,-21,5,4486,-23,5
2488,-22,5,4487,-24,5
2489,-24,5,4488,-24,5
2490,-23,5,4489,-24,5
2491,-24,5,4490,-24,5
2492,-23,5,4491,-24,5
2493,-23,5,4492,-23,5
2494,-24,5,4493,-22,5
2495,-25,5,4494,-22,5
2496,-25,5,4495,-23,5
2497,-24,5,4496,-24,5
2498,-25,5,4497,-24,5
2499,-25,5,4498,-25,5
2500,-25,5,4499,-27,5
2501,-25,5,4500,-27,5
2502,-26,5,4501,-25,5
2503,-25,5,4502,-23,5
2504,-26,5,4503,-24,5
2505,-26,5,4504,-24,5
2506,-26,5,4505,-24,5
2507,-27,5,4506,-25,5
2508,-27,5,4507,-25,5
2509,-26,5,4508,-25,5
2510,-25,5,4509,-25,5
2511,-25,5,4510,-25,5
2512,-25,5,4511,-25,5
2513,-25,5,4512,-24,5
2514,-26,5,4513,-24,5
2515,-27,5,4514,-24,5
2516,-26,5,4515,-25,5
2517,-26,5,4516,-26,5
2518,-26,5,4517,-28,5
2519,-27,5,4518,-27,5
2520,-27,5,4519,-27,5
2521,-26,5,4520,-26,5
2522,-25,5,4521,-25,5
2523,-25,5,4522,-27,5
2524,-24,5,4523,-29,5
2525,-24,5,4524,-30,5
2526,-25,5,4525,-31,5
2527,-27,5,4526,-31,5
2528,-27,5,4527,-30,5
2529,-27,5,4528,-28,5
2530,-26,5,4529,-26,5
2531,-26,5,4530,-26,5
2532,-27,5,4531,-27,5
2533,-27,5,4532,-26,5
2534,-26,5,4533,-26,5
2535,-25,5,4534,-27,5
2536,-25,5,4535,-30,5
2537,-24,5,4536,-32,5
2538,-22,5,4537,-32,5
2539,-22,5,4538,-33,5
2540,-24,5,4539,-32,5
2541,-24,5,4540,-31,5
2542,-24,5,4541,-30,5
2543,-23,5,4542,-30,5
2544,-23,5,4543,-30,5
2545,-25,5,4544,-31,5
2546,-26,5,4545,-32,5
2547,-25,5,4546,-31,5
2548,-24,5,4547,-29,5
2549,-23,5,4548,-28,5
2550,-23,5,4549,-27,5
2551,-22,5,4550,-29,5
2552,-21,5,4551,-30,5
2553,-22,5,4552,-30,5
2554,-24,5,4553,-30,5
2555,-25,5,4554,-30,5
2556,-24,5,4555,-31,5
2557,-24,5,4556,-32,5
2558,-26,5,4557,-32,5
2559,-25,5,4558,-31,5
2560,-25,5,4559,-32,5
2561,-24,5,4560,-32,5
2562,-24,5,4561,-32,5
2563,-24,5,4562,-33,5
2564,-24,5,4563,-31,5
2565,-23,5,4564,-30,5
2566,-23,5,4565,-31,5
2567,-23,5,4566,-31,5
2568,-24,5,4567,-30,5
2569,-24,5,4568,-29,5
2570,-23,5,4569,-29,5
2571,-23,5,4570,-29,5
2572,-23,5,4571,-30,5
2573,-23,5,4572,-30,5
2574,-23,5,4573,-29,5
2575,-23,5,4574,-30,5
2576,-23,5,4575,-30,5
2577,-23,5,4576,-29,5
2578,-23,5,4577,-28,5
2579,-23,5,4578,-28,5
2580,-22,5,4579,-28,5
2581,-22,5,4580,-30,5
2582,-20,5,4581,-30,5
2583,-20,5,4582,-30,5
2584,-20,5,4583,-31,5
2585,-21,5,4584,-31,5
2586,-22,5,4585,-32,5
2587,-22,5,4586,-30,5
2588,-21,5,4587,-28,5
2589,-21,5,4588,-29,5
2590,-21,5,4589,-29,5
2591,-22,5,4590,-29,5
2592,-22,5,4591,-30,5
2593,-22,5,4592,-31,5
2594,-20,5,4593,-31,5
2595,-20,5,4594,-29,5
2596,-20,5,4595,-29,5
2597,-21,5,4596,-29,5
2598,-21,5,4597,-30,5
2599,-22,5,4598,-30,5
2600,-22,5,4599,-30,5
2601,-21,5,4600,-29,5
2602,-20,5,4601,-29,5
2603,-19,5,4602,-30,5
2604,-19,5,4603,-31,5
2605,-19,5,4604,-31,5
2606,-19,5,4605,-30,5
2607,-18,5,4606,-30,5
2608,-18,5,4607,-30,5
2609,-19,5,4608,-30,5
2610,-19,5,4609,-30,5
2611,-18,5,4610,-31,5
2612,-17,5,4611,-32,5
2613,-16,5,4612,-31,5
2614,-16,5,4613,-30,5
2615,-16,5,4614,-30,5
2616,-14,5,4615,-30,5
2617,-14,5,4616,-30,5
2618,-15,5,4617,-31,5
2619,-15,5,4618,-31,5
2620,-16,5,4619,-31,5
2621,-17,5,4620,-30,5
2622,-19,5,4621,-29,5
2623,-21,5,4622,-29,5
2624,-22,5,4623,-29,5
2625,-23,5,4624,-30,5
2626,-25,5,4625,-29,5
2627,-26,5,4626,-29,5
2628,-28,5,4627,-30,5
2629,-31,5,4628,-30,5
2630,-33,5,4629,-29,5
2631,-32,5,4630,-29,5
2632,-31,5,4631,-29,5
2633,-31,5,4632,-30,5
2634,-32,5,4633,-31,5
2635,-32,5,4634,-30,5
2636,-32,5,4635,-29,5
2637,-30,5,4636,-28,5
2638,-29,5,4637,-29,5
2639,-28,5,4638,-29,5
2640,-28,5,4639,-28,5
2641,-27,5,4640,-28,5
2642,-26,5,4641,-29,5
2643,-25,5,4642,-30,5
2644,-25,5,4643,-31,5
2645,-26,5,4644,-31,5
2646,-25,5,4645,-32,5
2647,-25,5,4646,-32,5
2648,-26,5,4647,-31,5
2649,-28,5,4648,-30,5
2650,-31,5,4649,-28,5
2651,-34,5,4650,-26,5
2652,-35,5,4651,-27,5
2653,-35,5,4652,-28,5
2654,-35,5,4653,-28,5
2655,-36,5,4654,-27,5
2656,-36,5,4655,-25,5
2657,-36,5,4656,-23,5
2658,-34,5,4657,-22,5
2659,-33,5,4658,-22,5
2660,-32,5,4659,-20,5
2661,-32,5,4660,-19,5
2662,-32,5,4661,-19,5
2663,-33,5,4662,-18,5
2664,-34,5,4663,-18,5
2665,-34,5,4664,-19,5
2666,-34,5,4665,-19,5
2667,-35,5,4666,-19,5
2668,-35,5,4667,-21,5
2669,-35,5,4668,-22,5
2670,-35,5,4669,-21,5
2671,-34,5,4670,-22,5
2672,-34,5,4671,-24,5
2673,-34,5,4672,-25,5
2674,-34,5,4673,-25,5
2675,-34,5,4674,-27,5
2676,-33,5,4675,-29,5
2677,-32,5,4676,-32,5
2678,-32,5,4677,-34,5
2679,-30,5,4678,-35,5
2680,-29,5,4679,-35,5
2681,-29,5,4680,-35,5
2682,-26,5,4681,-35,5
2683,-21,5,4682,-35,5
2684,-8,5,4683,-34,5
2685,15,5,4684,-35,5
2686,45,5,4685,-33,5
2687,68,5,4686,-32,5
2688,69,5,4687,-32,5
2689,69,5,4688,-31,5
2690,69,5,4689,-31,5
2691,69,5,4690,-29,5
2692,69,5,4691,-29,5
2693,69,5,4692,-29,5
2694,69,5,4693,-29,5
2695,69,5,4694,-30,5
2696,50,5,4695,-30,5
2697,9,5,4696,-30,5
2698,-48,5,4697,-30,5
2699,-107,5,4698,-31,5
2700,-107,5,4699,-34,5
2701,-107,5,4700,-36,5
2702,-107,5,4701,-37,5
2703,-107,5,4702,-38,5
2704,-107,5,4703,-37,5
2705,-107,5,4704,-36,5
2706,-107,5,4705,-35,5
2707,-107,5,4706,-34,5
2708,-107,5,4707,-34,5
2709,-101,5,4708,-35,5
2710,-82,5,4709,-36,5
2711,-67,5,4710,-37,5
2712,-55,5,4711,-37,5
2713,-47,5,4712,-37,5
2714,-39,5,4713,-37,5
2715,-33,5,4714,-38,5
2716,-28,5,4715,-37,5
2717,-23,5,4716,-35,5
2718,-20,5,4717,-34,5
2719,-16,5,4718,-33,5
2720,-13,5,4719,-32,5
2721,-10,5,4720,-32,5
2722,-8,5,4721,-32,5
2723,-8,5,4722,-33,5
2724,-8,5,4723,-35,5
2725,-8,5,4724,-34,5
2726,-8,5,4725,-32,5
2727,-7,5,4726,-31,5
2728,-7,5,4727,-30,5
2729,-7,5,4728,-30,5
2730,-6,5,4729,-29,5
2731,-5,5,4730,-27,5
2732,-5,5,4731,-23,5
2733,-4,5,4732,-11,5
2734,-4,5,4733,11,5
2735,-2,5,4734,37,5
2736,-1,5,4735,57,5
2737,-1,5,4736,69,5
2738,-1,5,4737,69,5
2739,0,5,4738,69,5
2740,1,5,4739,69,5
2741,2,5,4740,69,5
2742,4,5,4741,69,5
2743,4,5,4742,69,5
2744,3,5,4743,69,5
2745,3,5,4744,69,5
2746,3,5,4745,46,5
2747,3,5,4746,4,5
2748,4,5,4747,-59,5
2749,5,5,4748,-107,5
2750,7,5,4749,-107,5
2751,8,5,4750,-107,5
2752,8,5,4751,-107,5
2753,8,5,4752,-107,5
2754,8,5,4753,-107,5
2755,9,5,4754,-107,5
2756,10,5,4755,-107,5
2757,11,5,4756,-107,5
2758,13,5,4757,-106,5
2759,12,5,4758,-84,5
2760,12,5,4759,-69,5
2761,12,5,4760,-57,5
2762,14,5,4761,-48,5
2763,16,5,4762,-42,5
2764,18,5,4763,-37,5
2765,18,5,4764,-31,5
2766,18,5,4765,-27,5
2767,18,5,4766,-23,5
2768,18,5,4767,-18,5
2769,19,5,4768,-15,5
2770,19,5,4769,-11,5
2771,20,5,4770,-9,5
2772,22,5,4771,-6,5
2773,24,5,4772,-5,5
2774,25,5,4773,-5,5
2775,27,5,4774,-6,5
2776,28,5,4775,-6,5
2777,28,5,4776,-5,5
2778,28,5,4777,-4,5
2779,28,5,4778,-3,5
2780,30,5,4779,-2,5
2781,33,5,4780,0,5
2782,34,5,4781,1,5
2783,36,5,4782,2,5
2784,37,5,4783,3,5
2785,37,5,4784,4,5
2786,38,5,4785,5,5
2787,42,5,4786,5,5
2788,45,5,4787,6,5
2789,47,5,4788,7,5
2790,48,5,4789,7,5
2791,50,5,4790,7,5
2792,51,5,4791,8,5
2793,53,5,4792,9,5
2794,54,5,4793,9,5
2795,56,5,4794,8,5
2796,60,5,4795,9,5
2797,62,5,4796,10,5
2798,64,5,4797,10,5
2799,66,5,4798,11,5
2800,69,5,4799,12,5
2801,69,5,4800,12,5
2802,69,5,4801,12,5
2803,69,5,4802,13,5
2804,69,5,4803,13,5
2805,69,5,4804,13,5
2806,69,5,4805,15,5
2807,69,5,4806,16,5
2808,69,5,4807,17,5
2809,69,5,4808,18,5
2810,69,5,4809,19,5
2811,69,5,4810,20,5
2812,69,5,4811,20,5
2813,69,5,4812,22,5
2814,69,5,4813,24,5
2815,69,5,4814,25,5
2816,69,5,4815,25,5
2817,69,5,4816,25,5
2818,69,5,4817,24,5
2819,69,5,4818,25,5
2820,69,5,4819,27,5
2821,69,5,4820,27,5
2822,69,5,4821,27,5
2823,69,5,4822,28,5
2824,69,5,4823,28,5
2825,69,5,4824,28,5
2826,69,5,4825,30,5
2827,69,5,4826,32,5
2828,69,5,4827,35,5
2829,69,5,4828,37,5
2830,69,5,4829,39,5
2831,69,5,4830,40,5
2832,69,5,4831,41,5
2833,69,5,4832,42,5
2834,69,5,4833,43,5
2835,69,5,4834,44,5
2836,69,5,4835,46,5
2837,69,5,4836,48,5
2838,69,5,4837,49,5
2839,69,5,4838,51,5
2840,69,5,4839,53,5
2841,69,5,4840,54,5
2842,69,5,4841,56,5
2843,69,5,4842,58,5
2844,69,5,4843,58,5
2845,69,5,4844,60,5
2846,69,5,4845,61,5
2847,69,5,4846,64,5
2848,69,5,4847,67,5
2849,69,5,4848,69,5
2850,63,5,4849,69,5
2851,57,5,4850,69,5
2852,50,5,4851,69,5
2853,45,5,4852,69,5
2854,41,5,4853,69,5
2855,36,5,4854,69,5
2856,33,5,4855,69,5
2857,29,5,4856,69,5
2858,25,5,4857,69,5
2859,20,5,4858,69,5
2860,16,5,4859,69,5
2861,12,5,4860,69,5
2862,9,5,4861,69,5
2863,6,5,4862,69,5
2864,4,5,4863,69,5
2865,2,5,4864,69,5
2866,1,5,4865,69,5
2867,0,5,4866,69,5
2868,-4,5,4867,69,5
2869,-8,5,4868,69,5
2870,-10,5,4869,69,5
2871,-10,5,4870,69,5
2872,-12,5,4871,69,5
2873,-14,5,4872,69,5
2874,-14,5,4873,69,5
2875,-15,5,4874,69,5
2876,-16,5,4875,69,5
2877,-17,5,4876,69,5
2878,-18,5,4877,69,5
2879,-17,5,4878,69,5
2880,-18,5,4879,69,5
2881,-19,5,4880,69,5
2882,-19,5,4881,69,5
2883,-19,5,4882,69,5
2884,-20,5,4883,69,5
2885,-21,5,4884,69,5
2886,-22,5,4885,69,5
2887,-22,5,4886,69,5
2888,-21,5,4887,69,5
2889,-21,5,4888,69,5
2890,-20,5,4889,69,5
2891,-20,5,4890,69,5
2892,-21,5,4891,69,5
2893,-21,5,4892,69,5
2894,-22,5,4893,69,5
2895,-21,5,4894,69,5
2896,-21,5,4895,69,5
2897,-21,5,4896,69,5
2898,-21,5,4897,69,5
2899,-20,5,4898,69,5
2900,-19,5,4899,63,5
2901,-21,5,4900,57,5
2902,-22,5,4901,53,5
2903,-23,5,4902,49,5
2904,-22,5,4903,44,5
2905,-21,5,4904,40,5
2906,-22,5,4905,35,5
2907,-21,5,4906,29,5
2908,-20,5,4907,24,5
2909,-19,5,4908,21,5
2910,-19,5,4909,19,5
2911,-18,5,4910,15,5
2912,-18,5,4911,11,5
2913,-18,5,4912,10,5
2914,-17,5,4913,9,5
2915,-17,5,4914,6,5
2916,-17,5,4915,3,5
2917,-18,5,4916,-1,5
2918,-18,5,4917,-5,5
2919,-19,5,4918,-8,5
2920,-19,5,4919,-10,5
2921,-19,5,4920,-13,5
2922,-18,5,4921,-14,5
2923,-18,5,4922,-15,5
2924,-18,5,4923,-17,5
2925,-17,5,4924,-18,5
2926,-15,5,4925,-18,5
2927,-15,5,4926,-18,5
2928,-16,5,4927,-18,5
2929,-17,5,4928,-18,5
2930,-17,5,4929,-19,5
2931,-18,5,4930,-17,5
2932,-17,5,4931,-16,5
2933,-15,5,4932,-16,5
2934,-16,5,4933,-17,5
2935,-16,5,4934,-18,5
2936,-15,5,4935,-18,5
2937,-14,5,4936,-20,5
2938,-14,5,4937,-20,5
2939,-14,5,4938,-20,5
2940,-15,5,4939,-20,5
2941,-15,5,4940,-20,5
2942,-15,5,4941,-19,5
2943,-13,5,4942,-19,5
2944,-13,5,4943,-18,5
2945,-14,5,4944,-18,5
2946,-14,5,4945,-18,5
2947,-15,5,4946,-16,5
2948,-16,5,4947,-15,5
2949,-17,5,4948,-15,5
2950,-16,5,4949,-15,5
2951,-15,5,4950,-14,5
2952,-13,5,4951,-14,5
2953,-13,5,4952,-15,5
2954,-15,5,4953,-14,5
2955,-17,5,4954,-15,5
2956,-17,5,4955,-15,5
2957,-16,5,4956,-15,5
2958,-16,5,4957,-14,5
2959,-19,5,4958,-14,5
2960,-20,5,4959,-14,5
2961,-21,5,4960,-14,5
2962,-21,5,4961,-15,5
2963,-20,5,4962,-16,5
2964,-19,5,4963,-15,5
2965,-19,5,4964,-14,5
2966,-19,5,4965,-14,5
2967,-19,5,4966,-14,5
2968,-20,5,4967,-14,5
2969,-21,5,4968,-14,5
2970,-21,5,4969,-15,5
2971,-20,5,4970,-17,5
2972,-20,5,4971,-18,5
2973,-20,5,4972,-18,5
2974,-20,5,4973,-18,5
2975,-20,5,4974,-18,5
2976,-21,5,4975,-18,5
2977,-19,5,4976,-19,5
2978,-18,5,4977,-19,5
2979,-19,5,4978,-19,5
2980,-20,5,4979,-20,5
2981,-21,5,4980,-20,5
2982,-22,5,4981,-19,5
2983,-23,5,4982,-19,5
2984,-24,5,4983,-20,5
2985,-24,5,4984,-20,5
2986,-24,5,4985,-20,5
2987,-24,5,4986,-20,5
2988,-24,5,4987,-21,5
2989,-23,5,4988,-22,5
2990,-24,5,4989,-22,5
2991,-23,5,4990,-22,5
2992,-22,5,4991,-22,5
2993,-21,5,4992,-22,5
2994,-21,5,4993,-21,5
2995,-22,5,4994,-22,5
2996,-24,5,4995,-22,5
2997,-24,5,4996,-23,5
2998,-25,5,4997,-22,5
2999,-26,5,4998,-22,5
3000,-26,5,4999,-22,5
