TS,Reading
1,-1.8
2,-1.2
3,-1
4,-1
5,-1.3
6,-1
7,-1
8,-1.1
9,-0.9
10,-1.1
11,-1.5
12,-1.8
13,-1.7
14,-1
15,-0.8
16,-1.1
17,-1.5
18,-1.8
19,-1.4
20,-1
21,-1.2
22,-1.3
23,-1.5
24,-1.8
25,-1.6
26,-1.5
27,-1.2
28,-0.7
29,-0.4
30,-0.7
31,-0.8
32,-1.2
33,-1.7
34,-1.5
35,-1.2
36,-0.8
37,-1.1
38,-1.3
39,-1.2
40,-1.6
41,-2.1
42,-2.2
43,-2.4
44,-1.8
45,-1.7
46,-1.9
47,-1.6
48,-0.9
49,-0.7
50,-0.9
51,-1.2
52,-1.3
53,-0.9
54,-1.3
55,-1.5
56,-1.4
57,-1.5
58,-1
59,-0.5
60,-0.7
61,-0.6
62,-0.2
63,-0.2
64,-0.6
65,-0.5
66,-0.6
67,-0.3
68,0.2
69,0.4
70,0.4
71,-0.1
72,-0.4
73,0
74,0
75,-0.3
76,-0.6
77,-0.3
78,-0.1
79,-0.1
80,-0.4
81,-0.6
82,-0.9
83,-1.5
84,-1.2
85,-1.1
86,-1
87,-0.9
88,-0.9
89,-1.3
90,-1.5
91,-1.5
92,-1.5
93,-1.4
94,-1.8
95,-2.1
96,-1.9
97,-1.9
98,-1.7
99,-1.8
100,-2.2
101,-1.8
102,-1.7
103,-1.8
104,-1.9
105,-1.9
106,-1.9
107,-2
108,-1.8
109,-1.7
110,-1.6
111,-1.5
112,-1.7
113,-2
114,-1.7
115,-1.6
116,-1.7
117,-1.9
118,-2.6
119,-3.4
120,-3.7
121,-3.6
122,-3.5
123,-3.4
124,-2.6
125,-1.3
126,0.5
127,1
128,2.1
129,4.3
130,6.3
131,9
132,11.3
133,13
134,14.5
135,16.1
136,17
137,17.1
138,17
139,16.7
140,15.3
141,13.3
142,11.9
143,10.9
144,10
145,9.1
146,8
147,6.9
148,6.2
149,5.4
150,4.3
151,2.7
152,1.6
153,1.2
154,0.7
155,-0.1
156,-0.3
157,-0.4
158,-0.7
159,-0.9
160,-0.8
161,-0.8
162,-1.3
163,-1.7
164,-1.5
165,-1
166,-1.4
167,-1.6
168,-1.5
169,-1.3
170,-1.5
171,-1.6
172,-2
173,-2.5
174,-2.3
175,-1.8
176,-1.3
177,-1.6
178,-1.9
179,-2.4
180,-2.3
181,-1.9
182,-1.9
183,-2.1
184,-1.7
185,-1.6
186,-2
187,-2.2
188,-1.9
189,-1.7
190,-1.6
191,-1.5
192,-1.2
193,-1.1
194,-1.2
195,-1.3
196,-1.8
197,-2.1
198,-1.9
199,-1.7
200,-1.7
201,-1.9
202,-2.1
203,-2.2
204,-1.8
205,-1.5
206,-1.5
207,-1.4
208,-1.1
209,-1.4
210,-1.8
211,-1.7
212,-1.4
213,-1.3
214,-1.8
215,-1.5
216,-0.9
217,-1
218,-0.9
219,-0.9
220,-0.9
221,-1.1
222,-1.3
223,-1.3
224,-1.2
225,-1.1
226,-0.9
227,-1
228,-0.6
229,-0.4
230,-0.3
231,-0.4
232,-0.4
233,-0.4
234,-0.7
235,-1
236,-0.3
237,0.3
238,0.1
239,-0.4
240,-0.6
241,-0.2
242,0
243,0.4
244,0.7
245,0.4
246,0.3
247,0.3
248,0.9
249,1.6
250,1.8
251,2
252,1.7
253,1.8
254,1.9
255,2
256,2.1
257,2.4
258,2.2
259,2
260,2
261,1.8
262,1.8
263,2.5
264,2.5
265,2.4
266,2.8
267,3
268,3
269,3
270,2.9
271,2.8
272,2.6
273,3
274,3.1
275,3.4
276,3.4
277,3.6
278,3.5
279,3.3
280,3.5
281,3.7
282,3.6
283,3.4
284,3.4
285,3.4
286,3.2
287,2.5
288,2.4
289,2.5
290,2.4
291,2.1
292,1.9
293,1.9
294,1.9
295,2.2
296,2.2
297,1.6
298,1
299,0.8
300,1.1
301,1.2
302,1.1
303,1.1
304,1
305,0.7
306,0.2
307,0.2
308,0
309,-0.1
310,0
311,0.2
312,0
313,-0.4
314,-0.5
315,-0.8
316,-0.7
317,-0.4
318,-0.6
319,-1
320,-1.1
321,-0.9
322,-1
323,-0.9
324,-0.9
325,-0.5
326,0.4
327,0.7
328,0
329,-1
330,-0.8
331,-0.8
332,-0.8
333,-0.9
334,-1
335,-1
336,-0.5
337,-0.3
338,-0.4
339,-0.2
340,0
341,0
342,-0.4
343,-0.5
344,-0.8
345,-0.7
346,-0.6
347,-0.5
348,-0.8
349,-1.1
350,-1
351,-1
352,-0.9
353,-0.7
354,-0.4
355,-0.3
356,-0.4
357,-0.2
358,-0.1
359,-0.5
360,-0.7
361,-0.8
362,-1.4
363,-1.2
364,-1.3
365,-1.2
366,-1.2
367,-0.9
368,-0.5
369,-0.5
370,-0.6
371,-0.8
372,-0.7
373,-0.6
374,-0.8
375,-0.9
376,-1.1
377,-0.9
378,-0.4
379,-0.4
380,-0.4
381,-0.2
382,0
383,-0.3
384,-0.5
385,-0.7
386,-0.5
387,-0.5
388,-0.6
389,-0.7
390,-0.3
391,-0.2
392,-0.3
393,-0.5
394,-0.2
395,0
396,-0.4
397,-1
398,-1.1
399,-1
400,-0.7
401,-0.7
402,-1
403,-1.1
404,-1.4
405,-1.1
406,-0.4
407,-0.5
408,-1
409,-0.9
410,-0.8
411,-1
412,-1.1
413,-1.2
414,-1.2
415,-1.4
416,-1.8
417,-1.1
418,-0.9
419,-0.8
420,-0.3
421,0
422,-0.1
423,-0.6
424,-1
425,-1.2
426,-0.8
427,-0.8
428,-1.2
429,-1.3
430,-1.6
431,-1.4
432,-1.4
433,-1.3
434,-1.3
435,-1
436,-1.2
437,-1.4
438,-1.2
439,-1.3
440,-1.3
441,-1.3
442,-1.4
443,-1.6
444,-1.9
445,-1.6
446,-1.1
447,-1
448,-1.1
449,-1.6
450,-1.8
451,-2
452,-1.8
453,-1.5
454,-1.2
455,-1.1
456,-0.8
457,-0.8
458,-1.7
459,-2.3
460,-2.6
461,-2.8
462,-2.5
463,-2.2
464,-2.2
465,-1.8
466,-1.2
467,-1.2
468,-1.2
469,-1.3
470,-1.3
471,-1
472,-0.9
473,-1.4
474,-1.8
475,-1.7
476,-1.3
477,-1.5
478,-1.8
479,-1.9
480,-1.6
481,-1.5
482,-1.8
483,-1.8
484,-1.5
485,-1.5
486,-1.6
487,-1.8
488,-1.5
489,-1.4
490,-1.3
491,-1.7
492,-1.5
493,-1
494,-1.2
495,-1.6
496,-1.5
497,-1.7
498,-1.8
499,-1.7
500,-1.9
501,-2
502,-2.1
503,-2.1
504,-1.5
505,-1.1
506,-1.6
507,-1.8
508,-1.6
509,-1.7
510,-1.8
511,-1.9
512,-1.6
513,-1.6
514,-1.9
515,-2
516,-2
517,-2.2
518,-1.9
519,-2
520,-2.2
521,-2.2
522,-2.2
523,-2.1
524,-1.8
525,-1.5
526,-1.6
527,-1.8
528,-1.6
529,-1.8
530,-1.9
531,-1.6
532,-1.3
533,-1.5
534,-1.5
535,-1.5
536,-1.4
537,-1.4
538,-1.4
539,-1.6
540,-1.2
541,-1
542,-1.4
543,-1.8
544,-2.1
545,-1.7
546,-1
547,-0.7
548,-0.5
549,-0.8
550,-0.9
551,-0.7
552,-1.4
553,-2
554,-1.2
555,0.1
556,0.3
557,-0.1
558,-0.1
559,-0.6
560,-1.1
561,-1.1
562,-1.2
563,-1.2
564,-0.9
565,-0.6
566,-0.5
567,-0.4
568,-0.4
569,-0.8
570,-1.3
571,-2.1
572,-2.4
573,-2.5
574,-2.3
575,-2.4
576,-1.6
577,-1.2
578,-1.4
579,-1.7
580,-2.5
581,-2.7
582,-2.6
583,-2.3
584,-1.8
585,-1.2
586,-1.6
587,-2.2
588,-2
589,-2
590,-2.1
591,-2.5
592,-2.7
593,-2.9
594,-2.7
595,-2.2
596,-2
597,-2.2
598,-2.5
599,-2.7
600,-2.3
601,-1.9
602,-2.5
603,-3.3
604,-3.7
605,-4.1
606,-3.8
607,-3.8
608,-3.1
609,-2.2
610,-0.7
611,0.5
612,2
613,4.2
614,7
615,9.9
616,11.9
617,13.8
618,15.1
619,16.5
620,17.3
621,17.5
622,17
623,16.5
624,15.3
625,13.2
626,12.1
627,11.5
628,10.7
629,9.9
630,8.9
631,7.9
632,7.1
633,5.8
634,4.9
635,3.2
636,1.9
637,1.2
638,1.1
639,0.6
640,0.1
641,-0.2
642,-0.6
643,-1
644,-1.2
645,-1.1
646,-1.2
647,-1.5
648,-1.6
649,-1.6
650,-1.9
651,-2.2
652,-2.2
653,-2.3
654,-2.5
655,-2.3
656,-1.9
657,-2
658,-1.8
659,-1.6
660,-1.6
661,-1.6
662,-1.8
663,-2.1
664,-2.4
665,-2.6
666,-2.4
667,-2.3
668,-2.3
669,-2.3
670,-2.1
671,-2.1
672,-2.3
673,-1.9
674,-1.7
675,-1.9
676,-1.9
677,-2.2
678,-2.3
679,-1.9
680,-1.3
681,-1
682,-1.2
683,-1.2
684,-1.5
685,-1.9
686,-1.9
687,-2.1
688,-2.3
689,-2
690,-1.8
691,-1.8
692,-1.5
693,-1.7
694,-1.8
695,-2
696,-1.7
697,-1.3
698,-1.1
699,-1.4
700,-1.8
701,-1.7
702,-1.3
703,-0.8
704,-0.8
705,-0.8
706,-0.9
707,-1.3
708,-1.2
709,-1.1
710,-0.7
711,-0.5
712,-0.7
713,-0.8
714,-0.8
715,-0.5
716,-0.5
717,-0.7
718,-0.6
719,-0.5
720,-0.2
721,-0.3
722,-0.3
723,-0.4
724,-0.1
725,-0.4
726,-0.5
727,0
728,0.5
729,0.8
730,0.9
731,1.2
732,1.6
733,1.5
734,1.4
735,1.1
736,1.1
737,1.3
738,1
739,0.8
740,0.8
741,0.9
742,1.2
743,1.7
744,2
745,2
746,1.9
747,1.7
748,2.2
749,2.8
750,3.2
751,3.2
752,3.2
753,3.1
754,2.8
755,2.7
756,3.2
757,3.5
758,3.5
759,3.5
760,3.1
761,3.1
762,3.1
763,3.4
764,3.5
765,3.5
766,3.3
767,2.9
768,2.7
769,3.3
770,3.7
771,3.5
772,3.3
773,2.9
774,2.5
775,2.3
776,2.2
777,2
778,2
779,1.6
780,1
781,0.6
782,0.9
783,0.9
784,1.2
785,0.7
786,0.4
787,0.4
788,0.4
789,0.4
790,0.4
791,0.4
792,0.1
793,-0.1
794,-0.1
795,0
796,0
797,-0.1
798,-0.7
799,-1.1
800,-1.1
801,-1
802,-0.5
803,-0.1
804,0.1
805,-0.1
806,-0.7
807,-0.9
808,-1.1
809,-1.1
810,-0.8
811,-0.9
812,-1.2
813,-1.5
814,-0.9
815,-0.3
816,-0.8
817,-1.1
818,-0.8
819,-0.7
820,-0.9
821,-1.1
822,-1
823,-1
824,-0.7
825,-0.6
826,-0.9
827,-0.7
828,-0.6
829,-0.5
830,-0.7
831,-0.6
832,-0.6
833,-0.8
834,-0.6
835,-0.4
836,-0.2
837,-0.2
838,-0.4
839,-0.6
840,-1
841,-1
842,-0.9
843,-0.9
844,-1.1
845,-0.9
846,-0.5
847,-0.4
848,-0.7
849,-1
850,-1
851,-0.8
852,-0.6
853,-0.5
854,-0.8
855,-1
856,-0.7
857,-0.7
858,-0.7
859,-0.9
860,-0.7
861,-0.2
862,-0.4
863,-0.5
864,-0.6
865,-1
866,-1
867,-0.9
868,-1
869,-0.9
870,-0.9
871,-0.8
872,-0.6
873,-0.4
874,-0.4
875,-0.5
876,-0.5
877,-0.6
878,-1
879,-0.7
880,-0.6
881,-0.6
882,-0.3
883,-0.5
884,-0.6
885,-0.7
886,-0.6
887,-0.8
888,-0.9
889,-1.2
890,-1.4
891,-0.8
892,-0.9
893,-0.9
894,-0.8
895,-0.9
896,-0.9
897,-0.9
898,-1.1
899,-0.6
900,-0.2
901,-0.6
902,-0.7
903,-0.8
904,-1
905,-1
906,-0.9
907,-0.8
908,-0.8
909,-1
910,-1.4
911,-1.6
912,-1.9
913,-1.1
914,-0.7
915,-1.4
916,-1.4
917,-1
918,-1
919,-0.8
920,-0.5
921,-1
922,-1.2
923,-0.9
924,-1
925,-0.9
926,-0.6
927,-0.9
928,-1.3
929,-1.4
930,-1.4
931,-0.8
932,-0.5
933,-0.7
934,-1.3
935,-1.5
936,-1.3
937,-0.5
938,-0.5
939,-0.8
940,-1.1
941,-1.4
942,-1.4
943,-1.4
944,-1.3
945,-0.9
946,-0.6
947,-0.8
948,-1.1
949,-1.6
950,-1.9
951,-1.7
952,-1.4
953,-1.5
954,-1.7
955,-1.5
956,-1.2
957,-1.3
958,-1.2
959,-0.8
960,-1.1
961,-1.9
962,-1.9
963,-1.8
964,-1.3
965,-1.2
966,-1.2
967,-1.6
968,-2
969,-2
970,-1.8
971,-1.7
972,-1.7
973,-1.5
974,-1.4
975,-1.6
976,-1.7
977,-1.9
978,-1.2
979,-0.9
980,-0.8
981,-1.2
982,-1.6
983,-1.5
984,-1.6
985,-1.5
986,-1.6
987,-1.8
988,-1.6
989,-1.4
990,-1.4
991,-1.5
992,-1.3
993,-1.6
994,-1.9
995,-1.9
996,-1.9
997,-1.8
998,-1.8
999,-1.9
1000,-1.6
1001,-1.4
1002,-1.2
1003,-1.1
1004,-0.9
1005,-0.8
1006,-1.2
1007,-1.1
1008,-1.3
1009,-1.4
1010,-1.5
1011,-1.7
1012,-1.6
1013,-1.6
1014,-2
1015,-1.7
1016,-1.2
1017,-1.4
1018,-1.5
1019,-1.5
1020,-1.7
1021,-1.4
1022,-0.9
1023,-1.4
1024,-1.8
1025,-1.8
1026,-1.6
1027,-1.3
1028,-1.2
1029,-1.1
1030,-1.1
1031,-0.9
1032,-1
1033,-1.5
1034,-2.3
1035,-1.8
1036,-1.3
1037,-1.1
1038,-0.7
1039,-0.7
1040,-0.6
1041,-0.6
1042,-0.8
1043,-0.8
1044,-0.5
1045,-0.5
1046,-0.1
1047,0.4
1048,0.2
1049,-0.3
1050,-1
1051,-0.8
1052,-1.1
1053,-1
1054,-0.5
1055,-0.1
1056,0.1
1057,-0.1
1058,-0.4
1059,-0.4
1060,-0.6
1061,-1.1
1062,-1
1063,-0.8
1064,-0.6
1065,-1.1
1066,-1.9
1067,-1.7
1068,-1.3
1069,-1.4
1070,-1.6
1071,-1.5
1072,-1.6
1073,-2
1074,-2.2
1075,-2.2
1076,-2.1
1077,-2.1
1078,-2.1
1079,-2
1080,-2
1081,-1.9
1082,-2.3
1083,-2.4
1084,-1.8
1085,-1.7
1086,-2
1087,-2
1088,-2.1
1089,-1.6
1090,-1.2
1091,-1.6
1092,-1.7
1093,-2.1
1094,-2.7
1095,-3.2
1096,-4.1
1097,-4.6
1098,-4.1
1099,-3
1100,-1.5
1101,0.2
1102,1.1
1103,2.8
1104,4.8
1105,7.4
1106,10.2
1107,11.8
1108,13.2
1109,15.2
1110,16.5
1111,17.1
1112,18.1
1113,18.4
1114,17.5
1115,15.4
1116,13.3
1117,12.5
1118,11.7
1119,10.2
1120,9.4
1121,8.4
1122,7.3
1123,7.1
1124,6.4
1125,5.2
1126,3.4
1127,2
1128,1.1
1129,0.3
1130,-0.1
1131,-0.5
1132,-1.1
1133,-1.1
1134,-0.9
1135,-0.7
1136,-0.9
1137,-1
1138,-1.3
1139,-1.6
1140,-1.4
1141,-1.2
1142,-1.6
1143,-1.9
1144,-2
1145,-2
1146,-1.9
1147,-1.9
1148,-1.7
1149,-1.8
1150,-2.1
1151,-2.7
1152,-3
1153,-2.7
1154,-2.6
1155,-2.2
1156,-1.7
1157,-1.4
1158,-1.7
1159,-1.6
1160,-1.7
1161,-1.8
1162,-2
1163,-1.8
1164,-1.4
1165,-1.5
1166,-1.8
1167,-2
1168,-2.1
1169,-1.6
1170,-1.4
1171,-2.3
1172,-2.4
1173,-2.2
1174,-1.9
1175,-1.6
1176,-1.4
1177,-2.2
1178,-2.5
1179,-2
1180,-1.7
1181,-1.3
1182,-1.2
1183,-1.7
1184,-2.1
1185,-2
1186,-1.7
1187,-1.7
1188,-1.8
1189,-1.6
1190,-1.3
1191,-1.1
1192,-1.1
1193,-1
1194,-1.6
1195,-1.5
1196,-1.4
1197,-1.5
1198,-1.2
1199,-1.2
1200,-1.2
1201,-0.7
1202,-0.8
1203,-0.9
1204,-0.6
1205,-0.6
1206,-0.8
1207,-0.4
1208,-0.4
1209,-0.5
1210,-0.7
1211,-0.7
1212,-0.6
1213,-0.5
1214,-0.2
1215,0.2
1216,0.5
1217,0.9
1218,1.1
1219,1.1
1220,0.9
1221,0.5
1222,0.4
1223,0.5
1224,0.7
1225,0.6
1226,1.1
1227,1.6
1228,2
1229,2.2
1230,2
1231,2
1232,1.9
1233,2
1234,2
1235,2.3
1236,2.9
1237,3.3
1238,3.3
1239,3.4
1240,3.1
1241,3.4
1242,3.6
1243,3.9
1244,4.2
1245,3.9
1246,3.5
1247,3
1248,2.9
1249,2.9
1250,3
1251,3.3
1252,3.6
1253,4.1
1254,4
1255,3.5
1256,3.7
1257,3.3
1258,2.8
1259,2.9
1260,3.2
1261,3.4
1262,2.9
1263,3
1264,3
1265,2.7
1266,2.5
1267,2.3
1268,2.5
1269,2.4
1270,1.8
1271,1.5
1272,1.3
1273,1.3
1274,1.5
1275,1.4
1276,0.8
1277,0.7
1278,0.8
1279,0.6
1280,0.7
1281,0.3
1282,0
1283,0
1284,-0.4
1285,-0.4
1286,-0.2
1287,-0.1
1288,-0.1
1289,-0.7
1290,-0.9
1291,-0.8
1292,-1.1
1293,-1.3
1294,-0.7
1295,-0.3
1296,-0.4
1297,-0.3
1298,-0.5
1299,-1
1300,-1.2
1301,-1.4
1302,-1.5
1303,-1.2
1304,-1.3
1305,-1.3
1306,-0.9
1307,-0.7
1308,-0.8
1309,-0.6
1310,-0.6
1311,-0.4
1312,0.4
1313,-0.3
1314,-0.9
1315,-0.9
1316,-1
1317,-1.6
1318,-1.2
1319,-0.5
1320,-0.6
1321,-1.1
1322,-0.9
1323,-1.1
1324,-1.2
1325,-1.2
1326,-1.3
1327,-0.9
1328,-0.9
1329,-1.2
1330,-1.5
1331,-1.5
1332,-1.5
1333,-1
1334,-0.8
1335,-0.6
1336,-0.6
1337,-0.7
1338,-0.7
1339,-0.9
1340,-1.1
1341,-1
1342,-0.8
1343,-0.6
1344,-1
1345,-0.8
1346,-0.9
1347,-1.1
1348,-0.8
1349,-0.5
1350,-1
1351,-1
1352,-1
1353,-1.6
1354,-1.6
1355,-1.3
1356,-1.3
1357,-0.9
1358,-0.6
1359,-0.6
1360,-1
1361,-1.2
1362,-1.4
1363,-1.4
1364,-1.3
1365,-1
1366,-0.9
1367,-0.9
1368,-0.8
1369,-0.8
1370,-1.2
1371,-1.1
1372,-0.7
1373,-0.2
1374,-0.1
1375,-0.7
1376,-1.3
1377,-1.4
1378,-1.2
1379,-1.2
1380,-0.8
1381,-0.4
1382,-0.6
1383,-1
1384,-1
1385,-1.1
1386,-1.1
1387,-1
1388,-0.7
1389,-1.2
1390,-1.3
1391,-1.2
1392,-1
1393,-0.8
1394,-1.5
1395,-1.1
1396,-0.4
1397,-0.6
1398,-1.1
1399,-1.7
1400,-1.3
1401,-1
1402,-1.3
1403,-1.6
1404,-1.2
1405,-1
1406,-1.3
1407,-1.2
1408,-1.1
1409,-1.4
1410,-1.4
1411,-1.5
1412,-1.4
1413,-1.4
1414,-1.2
1415,-1.1
1416,-1
1417,-1.2
1418,-1.1
1419,-1.3
1420,-1.4
1421,-1.3
1422,-1.3
1423,-1.1
1424,-1
1425,-0.9
1426,-1
1427,-0.7
1428,-0.9
1429,-1.3
1430,-1.5
1431,-1.6
1432,-1.5
1433,-1.5
1434,-1.8
1435,-1.6
1436,-1
1437,-0.9
1438,-1.2
1439,-1.5
1440,-1.7
1441,-1.8
1442,-1.5
1443,-1.2
1444,-1.1
1445,-1.3
1446,-1.2
1447,-1.6
1448,-1.9
1449,-1.8
1450,-2
1451,-1.7
1452,-1.6
1453,-2
1454,-2
1455,-1.3
1456,-1
1457,-0.7
1458,-1.2
1459,-1.4
1460,-1
1461,-1.2
1462,-1.4
1463,-1.1
1464,-1.1
1465,-1.4
1466,-1.5
1467,-1.5
1468,-1.7
1469,-1.5
1470,-1.6
1471,-2.1
1472,-2.2
1473,-2.1
1474,-1.9
1475,-1.6
1476,-1.8
1477,-1.6
1478,-1.1
1479,-1.1
1480,-1.4
1481,-1.4
1482,-1.2
1483,-1.3
1484,-1.2
1485,-1.3
1486,-0.8
1487,-0.8
1488,-1.5
1489,-1.7
1490,-1.7
1491,-1.7
1492,-1.3
1493,-0.9
1494,-0.9
1495,-1
1496,-1.1
1497,-1.2
1498,-1.4
1499,-1.9
1500,-2
1501,-1.7
1502,-1.4
1503,-1.2
1504,-0.6
1505,-0.4
1506,-0.9
1507,-0.9
1508,-0.8
1509,-0.9
1510,-1.2
1511,-0.6
1512,-0.4
1513,0
1514,0.1
1515,0
1516,0
1517,0.1
1518,-0.1
1519,0
1520,-0.1
1521,-0.7
1522,-1.4
1523,-1.1
1524,-0.9
1525,-1.1
1526,-1.1
1527,-0.5
1528,-0.4
1529,-0.9
1530,-1.1
1531,-1
1532,-1.3
1533,-1.5
1534,-1.7
1535,-1.4
1536,-1.4
1537,-1.5
1538,-1.9
1539,-2.2
1540,-2
1541,-2
1542,-1.9
1543,-1.9
1544,-1.9
1545,-1.8
1546,-1.9
1547,-2.3
1548,-2.1
1549,-2.4
1550,-2.9
1551,-2.6
1552,-2.3
1553,-1.6
1554,-1.9
1555,-1.9
1556,-1.9
1557,-2.2
1558,-2.1
1559,-1.9
1560,-1.5
1561,-1.7
1562,-2.3
1563,-2.5
1564,-2.6
1565,-3.1
1566,-3.6
1567,-3.8
1568,-3.5
1569,-2.5
1570,-1.6
1571,-0.7
1572,0.2
1573,1.3
1574,3
1575,5.7
1576,9
1577,10.9
1578,11.9
1579,13.7
1580,15.9
1581,16.6
1582,16.2
1583,16.1
1584,16.1
1585,15.2
1586,13.1
1587,11.8
1588,10.3
1589,9.1
1590,7.9
1591,6.3
1592,5
1593,4.2
1594,3.7
1595,2.5
1596,0.8
1597,0.4
1598,0.3
1599,0.4
1600,0.2
1601,-0.3
1602,-0.7
1603,-0.7
1604,-0.4
1605,-0.6
1606,-0.7
1607,-0.7
1608,-1.2
1609,-1.7
1610,-1.9
1611,-1.7
1612,-1.5
1613,-1.4
1614,-1.4
1615,-1.1
1616,-0.9
1617,-1
1618,-1.2
1619,-1.4
1620,-1.6
1621,-1.9
1622,-1.7
1623,-1.1
1624,-1.5
1625,-1.7
1626,-1.4
1627,-1.2
1628,-1.3
1629,-1.5
1630,-1.7
1631,-1.7
1632,-1.8
1633,-2.1
1634,-1.7
1635,-1.3
1636,-1.1
1637,-1.3
1638,-1.8
1639,-1.9
1640,-1.7
1641,-1.7
1642,-1.5
1643,-1
1644,-0.7
1645,-0.9
1646,-0.9
1647,-1.2
1648,-1.6
1649,-1.7
1650,-1.3
1651,-1.3
1652,-1.1
1653,-0.7
1654,-0.9
1655,-0.9
1656,-0.8
1657,-0.6
1658,-0.9
1659,-1
1660,-0.6
1661,-0.6
1662,-1.1
1663,-1.3
1664,-1.3
1665,-0.7
1666,-0.4
1667,-0.3
1668,0
1669,0.2
1670,-0.1
1671,-0.5
1672,-0.7
1673,-0.6
1674,-0.5
1675,-0.3
1676,-0.3
1677,-0.2
1678,-0.1
1679,-0.6
1680,0
1681,0.3
1682,0.1
1683,0.3
1684,0.4
1685,1
1686,0.9
1687,0.3
1688,0
1689,-0.1
1690,0.1
1691,0.3
1692,0.9
1693,1.1
1694,1.4
1695,1.6
1696,1.8
1697,1.5
1698,1.7
1699,2.1
1700,2.2
1701,2.1
1702,2.3
1703,2.7
1704,2.8
1705,2.6
1706,2.9
1707,3.2
1708,2.9
1709,3.1
1710,3.1
1711,3.3
1712,3.6
1713,3.9
1714,3.7
1715,3.1
1716,3.4
1717,3.7
1718,3.2
1719,3.5
1720,3.8
1721,3.7
1722,3.9
1723,3.7
1724,3.6
1725,3.6
1726,3.8
1727,4.1
1728,4.4
1729,4.2
1730,3.7
1731,3.3
1732,3.5
1733,3.5
1734,3.2
1735,3
1736,2.9
1737,2.4
1738,2
1739,1.9
1740,1.8
1741,1.2
1742,1
1743,0.8
1744,1
1745,0.8
1746,0.6
1747,1
1748,1.5
1749,1.3
1750,0.9
1751,0.6
1752,0.9
1753,0.9
1754,0.4
1755,0.1
1756,-0.3
1757,-0.4
1758,-0.3
1759,0
1760,0
1761,0.1
1762,0.2
1763,0.2
1764,-0.1
1765,-0.2
1766,0
1767,-0.1
1768,-0.4
1769,-0.4
1770,-0.1
1771,-0.4
1772,-0.1
1773,0
1774,-0.1
1775,-0.4
1776,-0.4
1777,-0.1
1778,-0.2
1779,-0.2
1780,0
1781,-0.1
1782,0.1
1783,0
1784,0.2
1785,-0.1
1786,-0.3
1787,-0.5
1788,-0.6
1789,-0.4
1790,-0.3
1791,-0.5
1792,-0.5
1793,-0.5
1794,-0.2
1795,-0.7
1796,-0.9
1797,-0.7
1798,-0.2
1799,0
1800,-0.4
1801,-0.6
1802,-0.6
1803,-0.3
1804,-0.2
1805,-0.3
1806,-0.7
1807,-0.5
1808,0
1809,0.1
1810,-0.1
1811,-0.4
1812,-0.7
1813,-0.6
1814,-0.6
1815,-0.8
1816,-0.4
1817,-0.1
1818,-0.2
1819,0.2
1820,0.2
1821,-0.2
1822,-0.7
1823,-0.6
1824,0
1825,0.1
1826,-0.1
1827,-0.3
1828,0
1829,-0.2
1830,0
1831,0.1
1832,-0.3
1833,-0.3
1834,-0.3
1835,-0.1
1836,-0.3
1837,-0.1
1838,-0.3
1839,-0.6
1840,-0.5
1841,-0.5
1842,-0.8
1843,-0.7
1844,-0.9
1845,-0.9
1846,-0.4
1847,0.2
1848,0.4
1849,0
1850,-0.7
1851,-0.8
1852,-0.4
1853,-0.4
1854,-0.4
1855,-0.5
1856,-0.3
1857,-0.4
1858,-0.5
1859,-0.2
1860,0.3
1861,0.5
1862,0.2
1863,-0.1
1864,-0.1
1865,-0.2
1866,-0.3
1867,-0.5
1868,-0.6
1869,-0.5
1870,-0.8
1871,-1.1
1872,-0.8
1873,-0.1
1874,-0.2
1875,-0.4
1876,-0.4
1877,-0.6
1878,-0.7
1879,-0.8
1880,-0.9
1881,-0.8
1882,-1.3
1883,-1.4
1884,-1.1
1885,-0.8
1886,-1
1887,-0.8
1888,-0.6
1889,-0.9
1890,-1
1891,-0.8
1892,-0.7
1893,-1.1
1894,-1.5
1895,-1.1
1896,-1
1897,-1.3
1898,-1.1
1899,-0.8
1900,-1
1901,-1
1902,-1
1903,-1.2
1904,-1.8
1905,-2
1906,-1.4
1907,-0.6
1908,-0.4
1909,-0.5
1910,-0.3
1911,-0.4
1912,-1
1913,-1.4
1914,-1.4
1915,-1.1
1916,-0.9
1917,-1
1918,-1.6
1919,-1.6
1920,-1.2
1921,-0.7
1922,-0.4
1923,-0.6
1924,-1.1
1925,-1.2
1926,-1.2
1927,-1
1928,-0.9
1929,-1.2
1930,-1.4
1931,-1.5
1932,-1.4
1933,-1.5
1934,-1.9
1935,-1.8
1936,-1.5
1937,-1.4
1938,-1.4
1939,-1.7
1940,-1.6
1941,-1
1942,-0.9
1943,-0.8
1944,-1
1945,-1.3
1946,-1.8
1947,-1.8
1948,-1
1949,-0.6
1950,-0.8
1951,-1.3
1952,-1.8
1953,-1.7
1954,-1.6
1955,-1.4
1956,-1.4
1957,-1.4
1958,-1.3
1959,-0.6
1960,-0.5
1961,-1.3
1962,-1.4
1963,-1.5
1964,-1.5
1965,-0.5
1966,-0.3
1967,-0.8
1968,-0.9
1969,-0.8
1970,-0.8
1971,-0.9
1972,-0.9
1973,-0.3
1974,0.3
1975,-0.1
1976,-0.4
1977,-0.2
1978,-0.1
1979,-0.2
1980,0
1981,-0.3
1982,-0.7
1983,-0.7
1984,-0.5
1985,-0.2
1986,-0.1
1987,-0.1
1988,-0.1
1989,-0.1
1990,-0.1
1991,-0.1
1992,-0.1
1993,-0.6
1994,-1
1995,-1
1996,-0.7
1997,-0.7
1998,-0.7
1999,-0.8
2000,-1.3
2001,-1.5
2002,-1.8
2003,-2.3
2004,-2.7
2005,-2.8
2006,-2.4
2007,-2.4
2008,-1.7
2009,-1.4
2010,-1.4
2011,-1.4
2012,-1.1
2013,-1
2014,-1.4
2015,-1.4
2016,-1.4
2017,-1.5
2018,-1.5
2019,-1.4
2020,-1.2
2021,-1.3
2022,-1.7
2023,-2
2024,-2.1
2025,-2.2
2026,-2.2
2027,-1.9
2028,-2.1
2029,-2.2
2030,-2.4
2031,-2.9
2032,-3.4
2033,-3.6
2034,-3.9
2035,-3.3
2036,-2.7
2037,-1.4
2038,-0.1
2039,0.8
2040,2.1
2041,3.9
2042,6.3
2043,8.9
2044,10.8
2045,12.4
2046,14.2
2047,15.7
2048,16.5
2049,17.2
2050,17.4
2051,17.2
2052,16.1
2053,13.9
2054,12.4
2055,11.5
2056,10.3
2057,9.2
2058,7.5
2059,6.2
2060,5.4
2061,4.6
2062,3.5
2063,2.2
2064,1.5
2065,0.8
2066,0.8
2067,0.6
2068,0.1
2069,-0.7
2070,-0.6
2071,-0.4
2072,-0.7
2073,-1.3
2074,-1.1
2075,-0.7
2076,-0.4
2077,-0.6
2078,-1.2
2079,-1.8
2080,-1.9
2081,-1.7
2082,-1.7
2083,-2
2084,-2.3
2085,-2.1
2086,-1.7
2087,-2.1
2088,-2.3
2089,-2.5
2090,-2.5
2091,-2.4
2092,-2.6
2093,-2.7
2094,-2.2
2095,-1.9
2096,-1.8
2097,-1.9
2098,-2.1
2099,-2.2
2100,-2.2
2101,-2.4
2102,-2.4
2103,-1.7
2104,-1.3
2105,-1.1
2106,-1.1
2107,-1.1
2108,-1.3
2109,-1.6
2110,-2
2111,-2.4
2112,-2.4
2113,-2.1
2114,-2.2
2115,-2.2
2116,-1.8
2117,-2
2118,-1.9
2119,-1.8
2120,-1.9
2121,-1.8
2122,-1.6
2123,-1.5
2124,-1.5
2125,-1.6
2126,-1.5
2127,-1.5
2128,-1.6
2129,-1.5
2130,-1.5
2131,-1.4
2132,-1.1
2133,-1
2134,-0.8
2135,-0.9
2136,-1.3
2137,-1.4
2138,-1
2139,-0.9
2140,-0.9
2141,-1.1
2142,-1.2
2143,-1.2
2144,-1.2
2145,-0.7
2146,-0.7
2147,-0.9
2148,-1.2
2149,-1
2150,-1
2151,-1
2152,-0.5
2153,-0.6
2154,-0.4
2155,0
2156,0.4
2157,0.8
2158,1.2
2159,1.2
2160,1.1
2161,0.6
2162,0.2
2163,0.2
2164,0.4
2165,0.7
2166,0.9
2167,1.2
2168,1.4
2169,1.6
2170,1.7
2171,1.8
2172,1.9
2173,2.1
2174,2.3
2175,2.4
2176,2.4
2177,2.3
2178,2.3
2179,2.3
2180,2.3
2181,2.2
2182,2.2
2183,2.4
2184,2.5
2185,2.8
2186,2.7
2187,2.7
2188,3
2189,2.8
2190,2.7
2191,2.8
2192,2.6
2193,2.6
2194,2.9
2195,2.8
2196,2.8
2197,2.6
2198,2.3
2199,2.5
2200,2.5
2201,2.5
2202,2.7
2203,2.3
2204,2
2205,2.1
2206,2
2207,1.7
2208,1.5
2209,1.1
2210,0.6
2211,0.3
2212,0.4
2213,0.4
2214,0
2215,-0.2
2216,-0.1
2217,-0.1
2218,-0.4
2219,-0.4
2220,-0.7
2221,-0.8
2222,-0.8
2223,-0.9
2224,-1.1
2225,-1
2226,-0.7
2227,-0.5
2228,-0.7
2229,-1
2230,-1.2
2231,-1.1
2232,-0.8
2233,-0.7
2234,-0.8
2235,-0.6
2236,-1.2
2237,-1.5
2238,-1.6
2239,-1.9
2240,-1.9
2241,-1.6
2242,-1.4
2243,-1.1
2244,-0.8
2245,-1
2246,-1.1
2247,-0.9
2248,-0.9
2249,-1
2250,-0.9
2251,-0.9
2252,-1
2253,-1.2
2254,-1.1
2255,-0.9
2256,-1
2257,-1
2258,-0.8
2259,-0.9
2260,-0.8
2261,-1.3
2262,-1.6
2263,-1.6
2264,-1.1
2265,-1.1
2266,-1.3
2267,-1.1
2268,-1
2269,-0.8
2270,-0.7
2271,-0.9
2272,-1.5
2273,-1.4
2274,-1.2
2275,-1
2276,-1
2277,-1.3
2278,-1.6
2279,-1.7
2280,-1.5
2281,-1
2282,-1.1
2283,-1.5
2284,-1.5
2285,-1
2286,-0.7
2287,-0.6
2288,-0.6
2289,-0.8
2290,-1
2291,-1.4
2292,-1.4
2293,-1
2294,-1
2295,-1.5
2296,-1.9
2297,-1.3
2298,-0.5
2299,-0.4
2300,-0.8
2301,-1.1
2302,-1.7
2303,-1.6
2304,-1.1
2305,-0.6
2306,-0.4
2307,-0.4
2308,-0.7
2309,-1.2
2310,-1.4
2311,-1.4
2312,-1.3
2313,-1.1
2314,-0.7
2315,-1.1
2316,-1.2
2317,-1.1
2318,-0.8
2319,-1
2320,-1.3
2321,-1.2
2322,-1
2323,-1.1
2324,-1.6
2325,-1.6
2326,-1
2327,-1
2328,-1.1
2329,-1
2330,-1.2
2331,-1.5
2332,-1.7
2333,-1.8
2334,-1.5
2335,-0.9
2336,-1.1
2337,-1.2
2338,-1.2
2339,-1.4
2340,-1.9
2341,-1.9
2342,-1
2343,-0.4
2344,-0.9
2345,-0.8
2346,-1
2347,-1.4
2348,-1.1
2349,-1
2350,-1.2
2351,-1.2
2352,-1.3
2353,-1.4
2354,-1.4
2355,-1.4
2356,-1.8
2357,-1.8
2358,-1.7
2359,-1.1
2360,-1.1
2361,-1.4
2362,-1.5
2363,-1.7
2364,-1.7
2365,-1.5
2366,-1.5
2367,-1.7
2368,-1.8
2369,-1.7
2370,-1.6
2371,-2.4
2372,-2.4
2373,-2.3
2374,-2.3
2375,-2.1
2376,-1.4
2377,-1
2378,-1.3
2379,-1.6
2380,-1.5
2381,-1.4
2382,-1.6
2383,-1.7
2384,-1.5
2385,-1.2
2386,-0.8
2387,-1.1
2388,-1.9
2389,-2.4
2390,-2.7
2391,-2.7
2392,-2.5
2393,-2.2
2394,-2
2395,-1.7
2396,-1.2
2397,-1
2398,-1
2399,-1.1
2400,-1.3
2401,-1.6
2402,-1.5
2403,-1.3
2404,-1.6
2405,-1.9
2406,-1.9
2407,-1.6
2408,-1.8
2409,-1.9
2410,-2
2411,-2.3
2412,-2.4
2413,-1.6
2414,-1.5
2415,-1.4
2416,-1.2
2417,-0.7
2418,-1
2419,-1.6
2420,-1.9
2421,-2.3
2422,-2.2
2423,-2
2424,-1.8
2425,-2
2426,-2.4
2427,-2.6
2428,-1.9
2429,-1.7
2430,-1.6
2431,-1.4
2432,-1.7
2433,-1.8
2434,-1.5
2435,-1.3
2436,-1.3
2437,-1.6
2438,-1.5
2439,-1.3
2440,-1.3
2441,-1.5
2442,-1.7
2443,-1.8
2444,-2
2445,-1.8
2446,-1.2
2447,-0.6
2448,-0.6
2449,-1.1
2450,-1.2
2451,-1.1
2452,-0.6
2453,-0.8
2454,-1.2
2455,-1.4
2456,-1.4
2457,-1
2458,-0.5
2459,-0.5
2460,-0.7
2461,-0.7
2462,-0.9
2463,-0.9
2464,-0.6
2465,-0.2
2466,-0.2
2467,-0.2
2468,-0.4
2469,-0.6
2470,-0.9
2471,-1.1
2472,-0.6
2473,-0.7
2474,-0.8
2475,-0.6
2476,-0.4
2477,-0.1
2478,0
2479,-0.4
2480,-1
2481,-1.3
2482,-1.4
2483,-1.2
2484,-1.4
2485,-1.9
2486,-2.1
2487,-1.5
2488,-1.4
2489,-1.8
2490,-1.9
2491,-2
2492,-1.7
2493,-1.4
2494,-1.6
2495,-1.9
2496,-1.4
2497,-1.5
2498,-1.9
2499,-1.9
2500,-1.6
2501,-1.6
2502,-1.7
2503,-1.8
2504,-1.6
2505,-1.7
2506,-2.1
2507,-2.5
2508,-2.2
2509,-2
2510,-1.9
2511,-1.9
2512,-1.9
2513,-2.3
2514,-2.3
2515,-2.3
2516,-2.7
2517,-3.1
2518,-3.6
2519,-3.4
2520,-2.8
2521,-1.9
2522,-0.3
2523,1
2524,2.2
2525,4.7
2526,7.2
2527,9.4
2528,11.1
2529,13
2530,14.7
2531,16.1
2532,17.1
2533,17.5
2534,17.9
2535,17.8
2536,17
2537,14.3
2538,11.8
2539,10.9
2540,10
2541,9.6
2542,8.7
2543,7.6
2544,7.2
2545,7
2546,6.2
2547,5.1
2548,3
2549,1.8
2550,1.4
2551,1.1
2552,1
2553,0.8
2554,0.2
2555,-0.2
2556,-0.9
2557,-1.5
2558,-1.2
2559,-1
2560,-0.8
2561,-0.7
2562,-0.9
2563,-1.3
2564,-1.4
2565,-1.8
2566,-1.9
2567,-1.9
2568,-2
2569,-1.9
2570,-1.9
2571,-2
2572,-1.9
2573,-1.6
2574,-1.4
2575,-1.6
2576,-2.1
2577,-1.9
2578,-1.8
2579,-2
2580,-1.8
2581,-1.9
2582,-1.9
2583,-2
2584,-1.7
2585,-1.7
2586,-2
2587,-2.1
2588,-2.2
2589,-2.4
2590,-2.2
2591,-1.7
2592,-1.9
2593,-1.3
2594,-1.2
2595,-1
2596,-1.2
2597,-1.8
2598,-1.9
2599,-1.9
2600,-2.1
2601,-2
2602,-1.7
2603,-1.4
2604,-1.5
2605,-1.2
2606,-0.8
2607,-0.7
2608,-0.9
2609,-1.4
2610,-1.4
2611,-1.3
2612,-1.8
2613,-2.1
2614,-1.9
2615,-0.9
2616,-0.2
2617,-0.3
2618,-0.7
2619,-0.8
2620,-0.8
2621,-0.5
2622,-0.3
2623,-0.3
2624,-0.7
2625,-0.5
2626,-0.9
2627,-0.8
2628,-0.4
2629,-0.3
2630,0
2631,-0.4
2632,-0.7
2633,-0.6
2634,-0.4
2635,-0.2
2636,-0.2
2637,0.2
2638,0.5
2639,0.3
2640,0.3
2641,0
2642,0
2643,0
2644,0.3
2645,0.8
2646,1.1
2647,1.5
2648,1.9
2649,1.4
2650,1.2
2651,1.9
2652,2.1
2653,1.7
2654,1.7
2655,2
2656,2.2
2657,1.9
2658,2.3
2659,2.4
2660,2.5
2661,2.9
2662,3.1
2663,3.2
2664,3.1
2665,3.3
2666,2.8
2667,2.4
2668,2.5
2669,2.6
2670,2.7
2671,3.1
2672,3.7
2673,3.9
2674,3.6
2675,3.5
2676,3.4
2677,3.2
2678,3.2
2679,3.4
2680,3.4
2681,3.3
2682,3.4
2683,3.4
2684,3.1
2685,2.5
2686,2.1
2687,2.3
2688,2.1
2689,2
2690,1.6
2691,1.5
2692,1.7
2693,1.9
2694,2.2
2695,1.4
2696,1
2697,1.1
2698,0.9
2699,0.4
2700,-0.2
2701,-0.2
2702,0
2703,0
2704,-0.3
2705,-0.4
2706,-0.1
2707,0
2708,-0.5
2709,-0.6
2710,-0.6
2711,-0.9
2712,-1
2713,-0.9
2714,-0.9
2715,-0.6
2716,-0.2
2717,-0.3
2718,-1
2719,-1.3
2720,-1.2
2721,-1.4
2722,-1.5
2723,-1.8
2724,-1.7
2725,-1.3
2726,-1.2
2727,-1.1
2728,-1
2729,-1
2730,-1
2731,-1
2732,-0.9
2733,-0.6
2734,-0.7
2735,-1
2736,-1.1
2737,-1
2738,-0.9
2739,-1
2740,-1
2741,-1.1
2742,-1.2
2743,-1.4
2744,-1.3
2745,-1.3
2746,-1.5
2747,-1.4
2748,-1.3
2749,-1.4
2750,-1.2
2751,-1
2752,-1.2
2753,-1.1
2754,-1.3
2755,-1.3
2756,-1.3
2757,-1.5
2758,-1.6
2759,-1.4
2760,-1.1
2761,-1.1
2762,-1.1
2763,-1.6
2764,-1.8
2765,-1.7
2766,-1.4
2767,-1.4
2768,-1.7
2769,-1.8
2770,-1.9
2771,-1.6
2772,-1.3
2773,-1.2
2774,-0.5
2775,-0.6
2776,-1.1
2777,-1.1
2778,-1
2779,-0.9
2780,-1.5
2781,-1.6
2782,-1.3
2783,-1.5
2784,-1.5
2785,-1.4
2786,-1.6
2787,-2.1
2788,-2.1
2789,-2
2790,-1.7
2791,-1.3
2792,-1.1
2793,-0.9
2794,-1.1
2795,-1.2
2796,-1.3
2797,-1.4
2798,-1.4
2799,-1.5
2800,-0.9
2801,-1.2
2802,-1.7
2803,-1.9
2804,-1.7
2805,-1.9
2806,-1.9
2807,-1.1
2808,-1
2809,-1.2
2810,-1.1
2811,-1.4
2812,-1.8
2813,-2
2814,-2.1
2815,-1.9
2816,-1.8
2817,-1.9
2818,-2
2819,-1.8
2820,-1.4
2821,-0.9
2822,-1
2823,-1.2
2824,-1.2
2825,-1.1
2826,-1.3
2827,-1.6
2828,-1.2
2829,-1.1
2830,-1.5
2831,-1.7
2832,-1.5
2833,-1.4
2834,-1.4
2835,-1.6
2836,-2
2837,-1.8
2838,-1.7
2839,-1.6
2840,-1.8
2841,-1.9
2842,-1.5
2843,-1.6
2844,-1.9
2845,-1.7
2846,-1.3
2847,-1.2
2848,-0.7
2849,-0.9
2850,-1.4
2851,-1.7
2852,-1.5
2853,-1.3
2854,-1.5
2855,-1.8
2856,-1.9
2857,-2.2
2858,-2.1
2859,-1.9
2860,-1.9
2861,-1.7
2862,-1.6
2863,-1.6
2864,-0.8
2865,-0.4
2866,-0.7
2867,-1.3
2868,-1.8
2869,-1.9
2870,-2.1
2871,-1.9
2872,-2
2873,-2.1
2874,-2.2
2875,-2.1
2876,-1.9
2877,-1.3
2878,-1.2
2879,-1.4
2880,-1.4
2881,-1.3
2882,-1.1
2883,-1.3
2884,-1.9
2885,-1.8
2886,-1.7
2887,-1.4
2888,-1
2889,-1.2
2890,-1.9
2891,-1.8
2892,-1.5
2893,-1.7
2894,-1.5
2895,-1.3
2896,-1.2
2897,-1.2
2898,-1.2
2899,-1.1
2900,-1.6
2901,-1.7
2902,-1.7
2903,-1.7
2904,-1.9
2905,-2
2906,-2
2907,-2.3
2908,-2.4
2909,-2
2910,-2
2911,-1.6
2912,-1.2
2913,-1.2
2914,-1.5
2915,-1.2
2916,-1.3
2917,-1.9
2918,-2.4
2919,-2.7
2920,-2.5
2921,-1.9
2922,-0.9
2923,-0.7
2924,-1
2925,-1.1
2926,-1.4
2927,-1.3
2928,-1.3
2929,-1.4
2930,-1.2
2931,-1.1
2932,-1.3
2933,-1.6
2934,-1.8
2935,-1.7
2936,-1.6
2937,-1.2
2938,-0.9
2939,-0.7
2940,-0.7
2941,-1.1
2942,-1.7
2943,-1.4
2944,-1.2
2945,-1.5
2946,-1.3
2947,-1.2
2948,-1.3
2949,-1
2950,-0.5
2951,-0.5
2952,-0.3
2953,0.2
2954,-0.3
2955,-0.6
2956,-0.5
2957,-0.7
2958,-1.2
2959,-1.2
2960,-1.3
2961,-1.2
2962,-0.7
2963,-0.1
2964,-0.2
2965,-1.2
2966,-1.5
2967,-1.6
2968,-1.7
2969,-1.6
2970,-1.3
2971,-1.3
2972,-1.6
2973,-2
2974,-2.7
2975,-2.4
2976,-2
2977,-2.2
2978,-2.2
2979,-1.9
2980,-2.4
2981,-2.6
2982,-2.3
2983,-2.5
2984,-2.3
2985,-2.1
2986,-2.4
2987,-2.6
2988,-2.3
2989,-2.4
2990,-2
2991,-1.8
2992,-2
2993,-2.4
2994,-2.4
2995,-2.3
2996,-2.2
2997,-2.2
2998,-2.6
2999,-2.4
3000,-2.9
3001,-3.4
3002,-3.5
3003,-3.7
3004,-4.2
3005,-4
3006,-3.3
3007,-2.6
3008,-1.5
3009,-0.1
3010,0.7
3011,2.3
3012,4.8
3013,8
3014,10.7
3015,12.6
3016,14.4
3017,16.3
3018,17.4
3019,17.2
3020,17.5
3021,17.5
3022,16.9
3023,15.1
3024,13.3
3025,12.5
3026,11.9
3027,10.8
3028,9.3
3029,8.4
3030,7.4
3031,6.3
3032,5
3033,3.7
3034,2.3
3035,1
3036,0.2
3037,0.6
3038,0.6
3039,-0.3
3040,-0.4
3041,-0.7
3042,-1
3043,-1.3
3044,-1.4
3045,-1.6
3046,-1.9
3047,-1.5
3048,-1.5
3049,-1.4
3050,-1.5
3051,-1.4
3052,-1.8
3053,-1.9
3054,-2.1
3055,-2.7
3056,-3
3057,-2.5
3058,-2
3059,-1.8
3060,-2
3061,-1.9
3062,-1.8
3063,-1.8
3064,-1.8
3065,-1.9
3066,-1.9
3067,-1.8
3068,-2.4
3069,-2.4
3070,-2.2
3071,-2.4
3072,-2.7
3073,-2.3
3074,-1.8
3075,-2
3076,-1.6
3077,-1.8
3078,-1.9
3079,-1.9
3080,-1.6
3081,-1.5
3082,-1.5
3083,-1.3
3084,-1.2
3085,-1.3
3086,-1.3
3087,-1.4
3088,-1.4
3089,-1.8
3090,-1.6
3091,-1.3
3092,-1.1
3093,-1
3094,-1
3095,-1.2
3096,-1.3
3097,-1.6
3098,-1.8
3099,-2.1
3100,-1.9
3101,-1.4
3102,-1.4
3103,-1.6
3104,-1.2
3105,-1.1
3106,-1.1
3107,-1.3
3108,-1.2
3109,-1.1
3110,-1
3111,-0.7
3112,-0.7
3113,-0.6
3114,-0.9
3115,-0.8
3116,-1
3117,-0.9
3118,-0.8
3119,-0.8
3120,-1.1
3121,-0.9
3122,-0.3
3123,0.3
3124,0.6
3125,0.5
3126,0.5
3127,0.1
3128,0.9
3129,0.8
3130,1
3131,1.4
3132,1.2
3133,0.9
3134,1.1
3135,1.4
3136,1.5
3137,1.2
3138,1.9
3139,2.2
3140,2.2
3141,2
3142,1.9
3143,2.1
3144,2.6
3145,3.2
3146,3.3
3147,3
3148,2.9
3149,3.1
3150,3.5
3151,3.7
3152,3.6
3153,3.4
3154,3.4
3155,3.3
3156,3.7
3157,3.7
3158,3.4
3159,3.6
3160,4
3161,4.2
3162,4.6
3163,4.4
3164,3.8
3165,3.4
3166,3.8
3167,4.4
3168,3.8
3169,3.1
3170,2.9
3171,2.7
3172,2.7
3173,2.5
3174,3
3175,3
3176,2.9
3177,2.8
3178,2.2
3179,1.7
3180,1.4
3181,1
3182,0.7
3183,0.6
3184,0.5
3185,0.9
3186,1.6
3187,1.4
3188,1.2
3189,0.8
3190,0.4
3191,0.2
3192,-0.2
3193,0
3194,0.1
3195,0.3
3196,0.1
3197,-0.4
3198,-0.5
3199,-0.4
3200,-0.2
3201,-0.5
3202,-0.7
3203,-0.5
3204,0.1
3205,-0.2
3206,-0.7
3207,-0.7
3208,-1
3209,-1
3210,-0.8
3211,-1
3212,-1.2
3213,-1
3214,-0.9
3215,-0.7
3216,-0.4
3217,-0.2
3218,-0.2
3219,-0.2
3220,0
3221,-0.1
3222,-0.4
3223,-0.3
3224,-0.5
3225,-0.8
3226,-0.9
3227,-0.6
3228,-0.3
3229,-0.4
3230,-1.4
3231,-1.5
3232,-1.3
3233,-0.9
3234,-0.8
3235,-0.5
3236,-0.5
3237,-0.4
3238,-0.6
3239,-0.6
3240,-0.7
3241,0
3242,0.3
3243,0.3
3244,0
3245,-0.4
3246,-0.7
3247,-0.2
3248,-0.1
3249,-0.4
3250,-1
3251,-1.2
3252,-0.9
3253,-0.8
3254,-0.8
3255,-0.7
3256,-0.7
3257,-0.6
3258,-0.9
3259,-1.2
3260,-0.9
3261,-1.1
3262,-1.5
3263,-1.4
3264,-0.9
3265,-0.3
3266,-0.2
3267,-0.5
3268,-0.2
3269,-0.1
3270,-0.5
3271,-0.7
3272,-0.5
3273,-0.5
3274,-0.4
3275,-0.2
3276,-0.1
3277,-0.2
3278,-0.7
3279,-0.6
3280,-0.8
3281,-0.6
3282,-0.8
3283,-1.1
3284,-1.2
3285,-0.4
3286,0.2
3287,0.2
3288,0.3
3289,0.2
3290,-0.9
3291,-0.9
3292,-0.5
3293,-0.6
3294,-1
3295,-0.8
3296,-0.8
3297,-0.6
3298,-0.7
3299,-0.6
3300,-0.5
3301,-0.6
3302,-0.8
3303,-0.4
3304,-0.4
3305,-0.5
3306,-0.3
3307,-0.9
3308,-1.4
3309,-1.3
3310,-1.2
3311,-1.2
3312,-0.5
3313,-0.1
3314,-0.5
3315,-0.9
3316,-0.7
3317,-0.5
3318,-0.6
3319,-0.4
3320,-0.6
3321,-0.8
3322,-0.5
3323,-0.2
3324,-0.8
3325,-1
3326,-1.2
3327,-1.4
3328,-1.2
3329,-1
3330,-0.9
3331,-1
3332,-1
3333,-0.8
3334,-0.3
3335,-0.1
3336,-0.3
3337,-0.5
3338,-0.4
3339,-0.5
3340,-0.3
3341,0
3342,-0.2
3343,-1
3344,-1
3345,-1
3346,-0.6
3347,-0.8
3348,-0.4
3349,-0.2
3350,-0.4
3351,0
3352,0.2
3353,-0.4
3354,-1
3355,-0.8
3356,-0.7
3357,-0.8
3358,-1.2
3359,-1.3
3360,-1.1
3361,-0.8
3362,-0.9
3363,-1.1
3364,-1
3365,-0.8
3366,-0.7
3367,-0.9
3368,-0.8
3369,-0.4
3370,-0.5
3371,-0.7
3372,-1
3373,-1.1
3374,-0.8
3375,-0.6
3376,-0.4
3377,-0.6
3378,-0.9
3379,-0.9
3380,-0.6
3381,-0.5
3382,-0.8
3383,-1.5
3384,-1.3
3385,-0.9
3386,-0.9
3387,-0.5
3388,-0.4
3389,-0.5
3390,-0.1
3391,-0.4
3392,-0.8
3393,-1.3
3394,-1.4
3395,-0.7
3396,-0.4
3397,-0.3
3398,-0.6
3399,-0.2
3400,-0.1
3401,-0.6
3402,-1.2
3403,-1
3404,-0.6
3405,-0.4
3406,-0.4
3407,-0.1
3408,0
3409,-0.2
3410,0.2
3411,0
3412,-0.1
3413,0.2
3414,0.4
3415,0.8
3416,0.5
3417,0
3418,0.4
3419,0.7
3420,0.2
3421,-0.1
3422,0
3423,0.1
3424,0.1
3425,0.1
3426,0
3427,0
3428,-0.3
3429,-0.4
3430,-0.1
3431,-0.2
3432,-0.2
3433,-0.7
3434,-1
3435,-0.5
3436,-0.9
3437,-1.4
3438,-1.4
3439,-1.3
3440,-1.6
3441,-1.6
3442,-1.3
3443,-1.1
3444,-0.8
3445,-0.9
3446,-1.3
3447,-1.5
3448,-1.2
3449,-0.6
3450,-1.1
3451,-1.5
3452,-1.4
3453,-1.5
3454,-1.7
3455,-1.7
3456,-1.2
3457,-1.1
3458,-1.5
3459,-1.3
3460,-1.4
3461,-1.8
3462,-1.8
3463,-1.8
3464,-1.5
3465,-0.9
3466,-1
3467,-1.5
3468,-2
3469,-2.5
3470,-3.2
3471,-3.7
3472,-3.1
3473,-2.1
3474,-1.2
3475,-0.1
3476,1.3
3477,3.1
3478,5.7
3479,8.6
3480,10.9
3481,12.3
3482,13.4
3483,14.5
3484,15.5
3485,16.1
3486,16.5
3487,16.3
3488,15.5
3489,13.5
3490,12
3491,11.1
3492,9.9
3493,9.1
3494,8.4
3495,7.3
3496,6.1
3497,4.7
3498,3.4
3499,1.5
3500,0.5
3501,0
3502,0.2
3503,0.1
3504,-0.4
3505,-0.8
3506,-0.7
3507,-0.4
3508,-0.8
3509,-1.1
3510,-1.3
3511,-0.9
3512,-0.3
3513,-0.7
3514,-1
3515,-1
3516,-1.2
3517,-1.4
3518,-1.4
3519,-1.4
3520,-1.3
3521,-1.6
3522,-1.5
3523,-1.5
3524,-2
3525,-2.3
3526,-1.9
3527,-1.2
3528,-1.5
3529,-1.9
3530,-1.5
3531,-1
3532,-1.4
3533,-2.1
3534,-2.5
3535,-2.4
3536,-2
3537,-1.8
3538,-1.6
3539,-1.8
3540,-2
3541,-1.7
3542,-1.7
3543,-1.8
3544,-1.3
3545,-1.5
3546,-1.7
3547,-1.1
3548,-1.5
3549,-1.3
3550,-1.1
3551,-1.2
3552,-1.6
3553,-1.6
3554,-1.2
3555,-1.4
3556,-1.6
3557,-1.7
3558,-1.5
3559,-1.3
3560,-1.4
3561,-1.5
3562,-1.7
3563,-1.7
3564,-1.6
3565,-1.3
3566,-1.2
3567,-1.4
3568,-1.3
3569,-1.1
3570,-0.8
3571,-0.8
3572,-0.7
3573,-0.5
3574,-0.5
3575,-1
3576,-0.9
3577,-0.2
3578,0
3579,-0.3
3580,-0.8
3581,-0.5
3582,-0.4
3583,-0.5
3584,-0.3
3585,-0.1
3586,-0.2
3587,0.1
3588,0.1
3589,0.1
3590,0.1
3591,0.6
3592,0.8
3593,-0.1
3594,0
3595,0.3
3596,0.6
3597,0.9
3598,1.4
3599,1.6
3600,1.6
3601,2
3602,2
3603,1.7
3604,1.6
3605,2
3606,1.9
3607,1.9
3608,2
3609,2.1
3610,2.2
3611,2.5
3612,2.4
3613,2.2
3614,2
3615,2
3616,2.4
3617,2.9
3618,3.3
3619,3.3
3620,3.7
3621,3.7
3622,3.2
3623,3
3624,2.8
3625,2.8
3626,3
3627,3.1
3628,3
3629,2.8
3630,2.8
3631,2.6
3632,2.3
3633,2.1
3634,2.4
3635,2.6
3636,2.5
3637,2.4
3638,2.4
3639,2.3
3640,2.3
3641,2.3
3642,1.6
3643,1.1
3644,1.4
3645,1.5
3646,1.4
3647,1.5
3648,1.5
3649,1.8
3650,1.8
3651,0.8
3652,0.3
3653,0.5
3654,0.9
3655,0.5
3656,0.1
3657,0.1
3658,-0.2
3659,-0.4
3660,-0.3
3661,-0.4
3662,-0.8
3663,-1.1
3664,-0.9
3665,-0.8
3666,-0.9
3667,-0.5
3668,-0.2
3669,0
3670,0
3671,-0.4
3672,-0.7
3673,-0.9
3674,-0.9
3675,-1.1
3676,-1.5
3677,-1.3
3678,-0.8
3679,-0.5
3680,-0.3
3681,0
3682,-0.3
3683,-0.4
3684,-0.4
3685,-0.4
3686,-0.1
3687,-0.3
3688,-0.6
3689,-0.5
3690,-0.6
3691,-0.8
3692,-0.9
3693,-1.1
3694,-0.9
3695,-0.8
3696,-0.7
3697,-0.2
3698,-0.2
3699,-0.5
3700,-0.8
3701,-0.8
3702,-1.2
3703,-0.7
3704,-0.6
3705,-0.6
3706,-0.2
3707,0
3708,-0.3
3709,-0.7
3710,-0.6
3711,-0.6
3712,-0.6
3713,-0.9
3714,-0.8
3715,-0.9
3716,-0.9
3717,-0.7
3718,-0.8
3719,-1
3720,-1
3721,-0.8
3722,-0.7
3723,-0.4
3724,-0.4
3725,-0.7
3726,-0.9
3727,-0.6
3728,-0.4
3729,-0.3
3730,-0.3
3731,-0.5
3732,-0.6
3733,-1.1
3734,-0.9
3735,-0.6
3736,-1
3737,-0.8
3738,-0.6
3739,-0.5
3740,-0.5
3741,-1
3742,-1.4
3743,-1
3744,-1
3745,-0.9
3746,-0.8
3747,-0.7
3748,-0.9
3749,-0.5
3750,-0.1
3751,-0.3
3752,-0.8
3753,-0.7
3754,-0.6
3755,-0.7
3756,-0.7
3757,-0.8
3758,-0.7
3759,-0.7
3760,-0.9
3761,-1.2
3762,-1.2
3763,-0.9
3764,-0.9
3765,-1.2
3766,-1
3767,-1
3768,-1
3769,-0.9
3770,-0.9
3771,-1.1
3772,-0.9
3773,-0.7
3774,-0.8
3775,-1
3776,-0.8
3777,-0.7
3778,-0.7
3779,-0.8
3780,-1.1
3781,-1.3
3782,-1.4
3783,-1.5
3784,-1.5
3785,-1.5
3786,-0.8
3787,-0.4
3788,-0.3
3789,-0.6
3790,-0.9
3791,-1.1
3792,-1.6
3793,-1.7
3794,-1.5
3795,-1.5
3796,-1.4
3797,-1.1
3798,-1.2
3799,-0.9
3800,-0.9
3801,-0.9
3802,-0.7
3803,-1
3804,-1.7
3805,-2
3806,-2.2
3807,-2
3808,-1.6
3809,-1.5
3810,-1.7
3811,-2
3812,-1.7
3813,-1.7
3814,-1.5
3815,-1.3
3816,-1
3817,-0.9
3818,-1.3
3819,-1.5
3820,-1.6
3821,-1.3
3822,-1.2
3823,-1.2
3824,-1.4
3825,-1.5
3826,-1.2
3827,-1
3828,-1.1
3829,-1.3
3830,-1.5
3831,-1.5
3832,-1.3
3833,-1.1
3834,-1.9
3835,-1.8
3836,-1.4
3837,-1.3
3838,-1.1
3839,-1.4
3840,-1.4
3841,-1.6
3842,-1.9
3843,-1.8
3844,-1.8
3845,-1.4
3846,-1.2
3847,-0.6
3848,-0.7
3849,-0.9
3850,-1.4
3851,-1.5
3852,-1.7
3853,-1.2
3854,-1.5
3855,-1.7
3856,-1.1
3857,-0.6
3858,-0.9
3859,-1.1
3860,-1.1
3861,-0.9
3862,-1
3863,-1.4
3864,-1.3
3865,-1
3866,-1.3
3867,-1.7
3868,-2
3869,-1.7
3870,-1.3
3871,-1.3
3872,-1.4
3873,-1.3
3874,-0.7
3875,-0.5
3876,-0.5
3877,-0.6
3878,-0.6
3879,-0.4
3880,-0.2
3881,-0.3
3882,-0.3
3883,-0.3
3884,-0.1
3885,-0.1
3886,-0.1
3887,-0.3
3888,-0.3
3889,-0.2
3890,-0.3
3891,-0.5
3892,-0.7
3893,-0.4
3894,-0.1
3895,0
3896,-0.3
3897,-0.6
3898,-1
3899,-1.1
3900,-1.1
3901,-1.6
3902,-2.5
3903,-2.6
3904,-1.9
3905,-1.7
3906,-2.1
3907,-2
3908,-1.7
3909,-1.5
3910,-1.6
3911,-1.7
3912,-2
3913,-2.3
3914,-2.2
3915,-2.1
3916,-2.3
3917,-2.1
3918,-1.8
3919,-1.6
3920,-1.8
3921,-1.7
3922,-2
3923,-2
3924,-2
3925,-1.6
3926,-1.4
3927,-1.7
3928,-1.8
3929,-2.2
3930,-2.7
3931,-3.4
3932,-3.6
3933,-3.8
3934,-3.6
3935,-2.6
3936,-1.5
3937,-0.5
3938,0.3
3939,1.6
3940,3.8
3941,6.9
3942,9.9
3943,11.9
3944,13.4
3945,14.4
3946,15.8
3947,17.2
3948,17.9
3949,18.4
3950,18.1
3951,16.4
3952,14.3
3953,12.8
3954,11.6
3955,10.9
3956,10.1
3957,9.1
3958,7.8
3959,7.2
3960,6.8
3961,5.7
3962,3.6
3963,1.6
3964,0.6
3965,0.8
3966,0.9
3967,0.6
3968,0
3969,-0.5
3970,-0.9
3971,-0.8
3972,-0.9
3973,-1.2
3974,-1.2
3975,-1.5
3976,-1.7
3977,-1.7
3978,-1.9
3979,-1.9
3980,-1.8
3981,-1.6
3982,-1.9
3983,-2.1
3984,-1.9
3985,-2
3986,-1.9
3987,-1.4
3988,-1
3989,-1.2
3990,-1.4
3991,-1.9
3992,-1.6
3993,-1.7
3994,-1.9
3995,-2.1
3996,-1.8
3997,-1.6
3998,-1.5
3999,-1.3
4000,-0.9
4001,-1.3
4002,-1.7
4003,-2
4004,-1.8
4005,-1.5
4006,-1.7
4007,-1.9
4008,-1.4
4009,-1.2
4010,-1
4011,-1.4
4012,-1.4
4013,-1.5
4014,-1.4
4015,-1.7
4016,-1.6
4017,-1.3
4018,-1.3
4019,-1.3
4020,-1.7
4021,-1.6
4022,-1.4
4023,-1.5
4024,-1.1
4025,-0.9
4026,-0.5
4027,-0.4
4028,-1.3
4029,-1.3
4030,-1
4031,-1.4
4032,-1.1
4033,-0.6
4034,-1.4
4035,-2
4036,-2
4037,-1.3
4038,-0.7
4039,-0.4
4040,-0.4
4041,-0.7
4042,-0.5
4043,-0.3
4044,-0.4
4045,-0.4
4046,-0.6
4047,-0.8
4048,-0.5
4049,0
4050,0.3
4051,0.2
4052,0
4053,0.4
4054,0.7
4055,0.8
4056,0.8
4057,0.4
4058,0.4
4059,0.8
4060,0.5
4061,0.5
4062,0.6
4063,0.6
4064,0.7
4065,1.1
4066,1.4
4067,1.8
4068,2
4069,1.7
4070,1.6
4071,1.8
4072,1.6
4073,2.3
4074,2.6
4075,2.5
4076,2.4
4077,2.7
4078,2.2
4079,2.3
4080,2.7
4081,2.8
4082,2.9
4083,3.3
4084,3.8
4085,3.6
4086,3.6
4087,3.6
4088,3.6
4089,3.6
4090,3.4
4091,3.5
4092,3.1
4093,2.9
4094,3.4
4095,3.5
4096,3.5
4097,3.2
4098,3
4099,2.7
4100,2.7
4101,2.7
4102,2.7
4103,2
4104,1.7
4105,1.6
4106,1.9
4107,2.1
4108,2.1
4109,2.3
4110,1.8
4111,1.1
4112,1
4113,1
4114,1.1
4115,1.3
4116,1.3
4117,0.7
4118,0.4
4119,0.1
4120,0
4121,0
4122,0.1
4123,0.2
4124,0.4
4125,0.3
4126,-0.1
4127,-0.2
4128,-0.5
4129,-0.5
4130,-0.4
4131,-0.7
4132,-0.7
4133,-0.3
4134,-0.5
4135,-0.6
4136,-0.7
4137,-0.4
4138,0
4139,-0.5
4140,-0.8
4141,-0.7
4142,-0.6
4143,-0.5
4144,-0.6
4145,-0.2
4146,-0.2
4147,-0.5
4148,-0.6
4149,-0.3
4150,-0.4
4151,-0.8
4152,-0.9
4153,-0.9
4154,-1
4155,-0.8
4156,-0.7
4157,-0.4
4158,-0.5
4159,-0.4
4160,-0.5
4161,-0.9
4162,-1
4163,-1.2
4164,-1.1
4165,-1.1
4166,-0.9
4167,-0.8
4168,-0.7
4169,-0.7
4170,-0.7
4171,-0.7
4172,-0.9
4173,-0.5
4174,0
4175,-0.1
4176,-0.4
4177,-0.3
4178,-0.1
4179,-0.2
4180,0
4181,0.5
4182,0
4183,-0.8
4184,-1.2
4185,-1.3
4186,-1
4187,-0.5
4188,-0.7
4189,-0.9
4190,-0.9
4191,-1.1
4192,-1.3
4193,-1.1
4194,-0.8
4195,-0.8
4196,-0.3
4197,-0.1
4198,-0.2
4199,-0.7
4200,-0.8
4201,-0.4
4202,0
4203,-0.4
4204,-0.9
4205,-1.1
4206,-1
4207,-0.5
4208,-0.6
4209,-0.8
4210,-0.8
4211,-0.6
4212,-0.6
4213,-0.4
4214,-0.2
4215,-0.4
4216,-0.2
4217,-0.3
4218,-0.5
4219,-0.4
4220,-0.6
4221,-1.1
4222,-1.2
4223,-1
4224,-0.7
4225,-0.7
4226,-1
4227,-1.4
4228,-1.1
4229,-0.9
4230,-1
4231,-1.3
4232,-1.3
4233,-1.2
4234,-0.8
4235,-0.6
4236,-0.9
4237,-1.1
4238,-1.3
4239,-1.3
4240,-1.2
4241,-1
4242,-1
4243,-1.1
4244,-1.1
4245,-1.1
4246,-1.1
4247,-1.1
4248,-1.2
4249,-1.2
4250,-1.4
4251,-1.4
4252,-1.3
4253,-1.7
4254,-1.8
4255,-1.5
4256,-1.3
4257,-0.9
4258,-0.8
4259,-0.9
4260,-0.9
4261,-0.7
4262,-0.6
4263,-0.4
4264,-0.7
4265,-1.2
4266,-1.2
4267,-1.5
4268,-1.5
4269,-1.8
4270,-1.6
4271,-1.3
4272,-1.4
4273,-1.7
4274,-1.7
4275,-1.3
4276,-1.2
4277,-1.2
4278,-1.3
4279,-1.6
4280,-1.4
4281,-1.3
4282,-1.2
4283,-1.1
4284,-1.2
4285,-1
4286,-1
4287,-1.1
4288,-1.1
4289,-1.1
4290,-1.4
4291,-1.8
4292,-1.9
4293,-1.9
4294,-1.6
4295,-1.3
4296,-1.3
4297,-1.6
4298,-1.1
4299,-0.8
4300,-0.8
4301,-1.2
4302,-1.6
4303,-1.6
4304,-1.5
4305,-1.5
4306,-1.3
4307,-1.2
4308,-1.2
4309,-1.5
4310,-1.7
4311,-1.7
4312,-1.6
4313,-1.3
4314,-0.7
4315,-0.2
4316,-0.2
4317,-0.7
4318,-1
4319,-1.1
4320,-0.7
4321,-0.8
4322,-0.9
4323,-1.1
4324,-1.4
4325,-1.7
4326,-1.6
4327,-1.5
4328,-1.6
4329,-1.7
4330,-2
4331,-2
4332,-1.4
4333,-1.2
4334,-1.2
4335,-1
4336,-0.9
4337,-1
4338,-0.7
4339,-0.6
4340,-0.3
4341,-0.2
4342,-0.8
4343,-0.9
4344,-1
4345,-0.7
4346,-0.4
4347,-0.3
4348,-0.4
4349,-0.4
4350,-0.4
4351,-0.9
4352,-0.7
4353,-0.5
4354,-0.3
4355,-0.1
4356,-0.2
4357,-0.5
4358,-0.9
4359,-0.4
4360,-0.3
4361,-0.4
4362,-0.4
4363,-0.2
4364,-0.2
4365,-0.4
4366,-0.6
4367,-0.6
4368,-0.7
4369,-1.3
4370,-2.1
4371,-2.1
4372,-2.2
4373,-2
4374,-1.7
4375,-1.3
4376,-1.2
4377,-1.1
4378,-1.3
4379,-1.7
4380,-2.1
4381,-2.2
4382,-2
4383,-1.9
4384,-1.9
4385,-1.7
4386,-1.8
4387,-1.8
4388,-1.7
4389,-1.7
4390,-1.8
4391,-1.4
4392,-1.8
4393,-2.4
4394,-1.8
4395,-1.7
4396,-1.3
4397,-1.4
4398,-1.6
4399,-2.1
4400,-2.6
4401,-3.2
4402,-3.7
4403,-4
4404,-3.3
4405,-1.9
4406,-0.6
4407,1
4408,1.9
4409,3.1
4410,5.6
4411,8.4
4412,10.7
4413,12.2
4414,13.8
4415,15.4
4416,16.6
4417,17.5
4418,18.3
4419,17.9
4420,17.6
4421,15.6
4422,13.4
4423,12.3
4424,11.2
4425,10.1
4426,9.3
4427,8.5
4428,7.5
4429,7.1
4430,6.3
4431,5.5
4432,3.8
4433,2.3
4434,1.6
4435,1.2
4436,0.3
4437,0
4438,-0.4
4439,-0.7
4440,-0.9
4441,-0.9
4442,-1.4
4443,-1.4
4444,-1.1
4445,-1.3
4446,-1.4
4447,-1.3
4448,-0.8
4449,-0.3
4450,-0.4
4451,-0.7
4452,-1.1
4453,-1.2
4454,-1.5
4455,-1.8
4456,-1.6
4457,-1.5
4458,-1.9
4459,-2
4460,-1.8
4461,-1.9
4462,-1.9
4463,-2.3
4464,-1.9
4465,-1.7
4466,-1.8
4467,-1.7
4468,-1.4
4469,-1.3
4470,-1.4
4471,-2
4472,-2.1
4473,-2
4474,-2
4475,-1.9
4476,-1.6
4477,-1.6
4478,-1.5
4479,-1.4
4480,-1.5
4481,-1.7
4482,-1.4
4483,-1.1
4484,-1.4
4485,-1.8
4486,-1.9
4487,-1.9
4488,-1.6
4489,-1.5
4490,-1.9
4491,-2.1
4492,-1.7
4493,-1
4494,-1
4495,-1.4
4496,-1.3
4497,-1.1
4498,-1.1
4499,-1
4500,-1.1
4501,-1
4502,-1.2
4503,-0.9
4504,-0.2
4505,-0.6
4506,-0.6
4507,-1
4508,-1
4509,-0.6
4510,-0.4
4511,-0.1
4512,0
4513,-0.2
4514,-0.1
4515,0
4516,-0.6
4517,-0.5
4518,-0.4
4519,-0.1
4520,0.1
4521,0.2
4522,0.8
4523,0.7
4524,0.3
4525,0.7
4526,1
4527,1.5
4528,1.5
4529,1.3
4530,1
4531,1
4532,1.1
4533,1
4534,0.9
4535,1
4536,1.3
4537,1.8
4538,2.2
4539,2.3
4540,2.4
4541,2.7
4542,2.7
4543,2.6
4544,2.6
4545,2.6
4546,2.9
4547,2.7
4548,2.7
4549,3.3
4550,3.4
4551,3.4
4552,3.9
4553,4.1
4554,3.8
4555,3.7
4556,3.5
4557,3.6
4558,3.3
4559,3
4560,3.1
4561,3.4
4562,3.4
4563,3.4
4564,3.1
4565,3.3
4566,3.3
4567,3.5
4568,3.4
4569,3.2
4570,3
4571,3
4572,2.7
4573,2.5
4574,2.3
4575,1.8
4576,1.7
4577,1.7
4578,1.7
4579,1.4
4580,1.5
4581,1.3
4582,1.1
4583,0.9
4584,1.1
4585,1
4586,0.4
4587,-0.1
4588,0
4589,0.2
4590,-0.1
4591,-0.3
4592,-0.1
4593,-0.2
4594,-0.2
4595,0
4596,0.3
4597,0.7
4598,0.8
4599,0.3
4600,0
4601,0.1
4602,0.3
4603,-0.1
4604,-0.4
4605,-0.6
4606,-0.7
4607,-0.8
4608,-0.4
4609,-0.4
4610,-0.8
4611,-0.8
4612,-0.7
4613,-0.7
4614,-0.6
4615,-0.6
4616,-0.4
4617,-0.5
4618,-0.3
4619,-0.3
4620,-0.7
4621,-0.4
4622,-0.3
4623,-0.2
4624,-0.2
4625,-0.2
4626,-0.7
4627,-0.5
4628,-0.6
4629,-0.5
4630,-0.2
4631,-0.3
4632,-0.7
4633,-0.9
4634,-0.7
4635,-0.6
4636,-0.7
4637,-0.4
4638,-0.3
4639,-0.2
4640,-0.2
4641,-0.4
4642,-0.5
4643,-0.5
4644,-0.6
4645,-0.2
4646,0.1
4647,0
4648,-0.2
4649,-0.2
4650,-0.1
4651,-0.1
4652,0.1
4653,-0.1
4654,-0.6
4655,-0.8
4656,-0.7
4657,-0.5
4658,-0.5
4659,-0.1
4660,-0.3
4661,-0.6
4662,-0.8
4663,-0.8
4664,-0.4
4665,-0.1
4666,-0.1
4667,-0.1
4668,-0.1
4669,-0.2
4670,-0.5
4671,-0.5
4672,-0.4
4673,-0.3
4674,-0.2
4675,-0.2
4676,-0.2
4677,-0.8
4678,-0.7
4679,-0.5
4680,-0.9
4681,-0.8
4682,-0.5
4683,-0.4
4684,-0.5
4685,-0.6
4686,-0.7
4687,-0.3
4688,-0.4
4689,-0.7
4690,-0.5
4691,-0.5
4692,-0.5
4693,-0.2
4694,0
4695,-0.4
4696,-0.4
4697,-0.6
4698,-1
4699,-1
4700,-0.9
4701,-0.9
4702,-0.9
4703,-1
4704,-1
4705,-0.7
4706,-0.2
4707,-0.6
4708,-1.3
4709,-1.2
4710,-0.9
4711,-1.2
4712,-1.2
4713,-0.9
4714,-0.5
4715,-0.5
4716,-1.1
4717,-1
4718,-0.6
4719,-0.4
4720,-0.4
4721,-0.1
4722,-0.3
4723,-0.4
4724,-0.7
4725,-1.1
4726,-1.2
4727,-1.3
4728,-1.1
4729,-1.1
4730,-1.1
4731,-0.8
4732,-0.5
4733,-1.1
4734,-1.7
4735,-1.5
4736,-1.1
4737,-0.8
4738,-0.7
4739,-0.9
4740,-1.3
4741,-1.3
4742,-1.1
4743,-0.8
4744,-0.7
4745,-0.6
4746,-0.4
4747,-0.6
4748,-0.5
4749,-0.7
4750,-0.9
4751,-1
4752,-1
4753,-1.3
4754,-1.4
4755,-1.3
4756,-0.6
4757,0
4758,-0.5
4759,-1.1
4760,-1.5
4761,-1.2
4762,-1.4
4763,-1.5
4764,-1.1
4765,-0.9
4766,-0.9
4767,-1.6
4768,-1.6
4769,-1.6
4770,-2.1
4771,-2.1
4772,-1.8
4773,-1.6
4774,-1
4775,-0.8
4776,-1
4777,-1.4
4778,-1
4779,-0.5
4780,-1
4781,-1.2
4782,-1.2
4783,-1.4
4784,-1.5
4785,-1.2
4786,-1
4787,-1.2
4788,-1.3
4789,-1.1
4790,-1.3
4791,-1.9
4792,-2
4793,-1.3
4794,-0.8
4795,-0.5
4796,-0.9
4797,-1.1
4798,-0.9
4799,-1.4
4800,-1.6
4801,-1.6
4802,-1.5
4803,-1.3
4804,-1.3
4805,-1.4
4806,-1.8
4807,-1.8
4808,-1.5
4809,-0.8
4810,-0.7
4811,-0.9
4812,-0.7
4813,-0.8
4814,-0.8
4815,-0.8
4816,-1.1
4817,-0.7
4818,-0.6
4819,-0.7
4820,0
4821,0.1
4822,-0.2
4823,-0.4
4824,-0.7
4825,-0.3
4826,-0.6
4827,-0.8
4828,-0.2
4829,0
4830,-0.1
4831,-0.3
4832,-0.7
4833,-0.9
4834,-0.6
4835,-1.1
4836,-0.9
4837,-0.5
4838,-0.7
4839,-1.4
4840,-2.1
4841,-2
4842,-1.8
4843,-1.9
4844,-1.7
4845,-1.3
4846,-1.5
4847,-1.5
4848,-1.8
4849,-2
4850,-2
4851,-1.9
4852,-1.3
4853,-1.7
4854,-2.1
4855,-1.9
4856,-1.9
4857,-1.8
4858,-2
4859,-2.2
4860,-1.9
4861,-2.1
4862,-2.6
4863,-2.4
4864,-2.3
4865,-2.1
4866,-2.2
4867,-2.4
4868,-2.2
4869,-2.4
4870,-2.7
4871,-3.4
4872,-3.8
4873,-3.6
4874,-3.3
4875,-3.2
4876,-2.3
4877,-0.3
4878,1.3
4879,2.8
4880,4.7
4881,7.9
4882,10.9
4883,12.2
4884,13.7
4885,15.1
4886,16.5
4887,17.2
4888,18.1
4889,18.4
4890,17.8
4891,16
4892,13.9
4893,12.4
4894,11.3
4895,10.4
4896,9.3
4897,8.2
4898,7.2
4899,6.4
4900,5.4
4901,4.2
4902,2.8
4903,1.8
4904,0.9
4905,0.5
4906,0.5
4907,0
4908,-0.6
4909,-0.8
4910,-0.8
4911,-1
4912,-0.9
4913,-1.1
4914,-1.2
4915,-1.4
4916,-1.8
4917,-1.9
4918,-2
4919,-2.2
4920,-2.2
4921,-1.8
4922,-2
4923,-2.1
4924,-2
4925,-1.9
4926,-1.8
4927,-1.9
4928,-1.8
4929,-1.6
4930,-1.9
4931,-2
4932,-1.8
4933,-2.1
4934,-2.4
4935,-2.3
4936,-2.2
4937,-2.1
4938,-1.8
4939,-1.6
4940,-1.7
4941,-1.6
4942,-1.7
4943,-1.9
4944,-1.8
4945,-1.6
4946,-1.7
4947,-1.8
4948,-1.6
4949,-2
4950,-2.3
4951,-2.4
4952,-2.3
4953,-2
4954,-1.6
4955,-1.5
4956,-1.5
4957,-2
4958,-2.1
4959,-1.7
4960,-1.2
4961,-0.9
4962,-0.8
4963,-1.2
4964,-1.8
4965,-1.8
4966,-1.7
4967,-1.4
4968,-1.6
4969,-1.6
4970,-1.5
4971,-1.4
4972,-1.5
4973,-1.4
4974,-1.2
4975,-1.2
4976,-0.7
4977,-0.6
4978,-1.1
4979,-1.2
4980,-1.3
4981,-1
4982,-0.5
4983,-0.3
4984,-0.8
4985,-0.6
4986,0.1
4987,0.5
4988,0.5
4989,0.3
4990,0
4991,0.2
4992,0.3
4993,0.4
4994,0.5
4995,0.5
4996,0.1
4997,0.4
4998,1.2
4999,1.6
5000,1.6
