TS,Reading
1,-1.3
2,-1.2
3,-1.1
4,-1
5,-1.2
6,-1.1
7,-1.1
8,-1.1
9,-1.2
10,-1.4
11,-1.4
12,-1.6
13,-1.5
14,-1.3
15,-1.1
16,-1.1
17,-1.2
18,-1.1
19,-1.2
20,-1.1
21,-1.2
22,-1.2
23,-1
24,-1.2
25,-1.2
26,-1.3
27,-1.2
28,-1.1
29,-1.1
30,-1.1
31,-1.1
32,-1.3
33,-1.4
34,-1.2
35,-0.8
36,-1
37,-1.3
38,-1.3
39,-1.3
40,-1.3
41,-1.8
42,-1.9
43,-2
44,-1.7
45,-1.6
46,-1.3
47,-0.8
48,-0.7
49,-0.6
50,-0.5
51,-0.7
52,-0.6
53,-0.7
54,-0.9
55,-1.1
56,-0.9
57,-0.9
58,-0.7
59,-0.5
60,-0.4
61,-0.2
62,0
63,0.3
64,0
65,-0.2
66,0
67,0
68,0.2
69,0.2
70,0.3
71,0.1
72,-0.1
73,-0.2
74,-0.2
75,-0.5
76,-0.8
77,-0.7
78,-0.6
79,-0.7
80,-0.7
81,-0.7
82,-0.9
83,-0.8
84,-1
85,-1.2
86,-0.8
87,-1
88,-1
89,-0.8
90,-0.9
91,-1
92,-1.1
93,-0.9
94,-1.2
95,-1.2
96,-0.9
97,-1
98,-1.1
99,-1.2
100,-1.3
101,-1.6
102,-1.4
103,-1.6
104,-1.7
105,-1.6
106,-1.6
107,-1.6
108,-1.3
109,-1.2
110,-1.1
111,-1.4
112,-1.6
113,-1.5
114,-1.5
115,-1.3
116,-1.2
117,-1.3
118,-0.8
119,-0.6
120,-0.3
121,0.4
122,0.9
123,1.1
124,0.9
125,0.7
126,0.7
127,0
128,-0.6
129,-0.5
130,-0.6
131,-0.2
132,1.1
133,1.9
134,2.7
135,3.2
136,3.1
137,3.3
138,3.4
139,2.6
140,0.5
141,-0.9
142,-2.1
143,-2.9
144,-3.3
145,-4.5
146,-5.9
147,-6.1
148,-5.8
149,-4.9
150,-3.9
151,-2.6
152,-1.9
153,-1.6
154,-1.7
155,-2.1
156,-1.8
157,-2
158,-1.9
159,-1.6
160,-1.6
161,-1.3
162,-1.3
163,-1.3
164,-1.6
165,-1.3
166,-1.3
167,-1.5
168,-1.5
169,-1.2
170,-1.1
171,-1.3
172,-1.6
173,-1.8
174,-1.7
175,-1.4
176,-1.1
177,-1.3
178,-1.5
179,-1.3
180,-1.4
181,-1.6
182,-1.5
183,-1.3
184,-1.5
185,-1.5
186,-1.5
187,-1.6
188,-1.4
189,-1.5
190,-1.4
191,-1.2
192,-1.1
193,-1.2
194,-1
195,-1.3
196,-1.2
197,-1.5
198,-1.3
199,-1.2
200,-1.4
201,-0.9
202,-1.3
203,-1.3
204,-1.2
205,-1.2
206,-1.4
207,-1.1
208,-1
209,-0.8
210,-0.7
211,-0.8
212,-0.9
213,-1.1
214,-1.3
215,-1.4
216,-1.1
217,-0.8
218,-1
219,-1
220,-0.9
221,-0.7
222,-0.5
223,-0.9
224,-1.1
225,-0.9
226,-0.9
227,-1.2
228,-1
229,-0.8
230,-0.6
231,-0.5
232,-0.7
233,-0.7
234,-0.8
235,-0.9
236,-0.7
237,-0.4
238,-0.6
239,-0.9
240,-0.8
241,-0.7
242,-0.8
243,-0.8
244,-0.7
245,-0.4
246,-0.3
247,-0.4
248,-0.4
249,0.1
250,0.3
251,0.3
252,-0.2
253,-0.3
254,0
255,0.1
256,0.2
257,-0.1
258,0
259,-0.1
260,-0.3
261,-0.2
262,0.1
263,0.3
264,0.2
265,-0.2
266,0.2
267,0.3
268,0.3
269,0.2
270,0.2
271,0.3
272,0.3
273,0.1
274,0.1
275,0
276,-0.1
277,0
278,-0.2
279,-0.2
280,-0.1
281,0.2
282,0.3
283,0
284,-0.3
285,-0.2
286,-0.2
287,-0.5
288,-0.6
289,-0.3
290,0
291,0.3
292,0.2
293,0
294,-0.1
295,-0.4
296,-0.4
297,-0.3
298,-0.4
299,-0.4
300,-0.2
301,0
302,-0.2
303,-0.1
304,0.1
305,-0.1
306,-0.6
307,-0.5
308,-0.2
309,-0.4
310,-0.1
311,-0.1
312,-0.4
313,-0.6
314,-0.8
315,-0.9
316,-0.8
317,-0.5
318,-0.8
319,-1.1
320,-1.2
321,-0.9
322,-1.1
323,-1.2
324,-1.2
325,-0.9
326,-0.2
327,-0.3
328,-0.6
329,-0.8
330,-1.1
331,-1.2
332,-1.1
333,-1
334,-0.9
335,-0.9
336,-0.9
337,-0.9
338,-0.9
339,-0.8
340,-0.9
341,-1
342,-1
343,-1.1
344,-1
345,-1.2
346,-1.3
347,-1
348,-0.9
349,-1.1
350,-1
351,-1.1
352,-1.2
353,-1.2
354,-0.9
355,-0.9
356,-0.8
357,-0.9
358,-0.7
359,-0.8
360,-1
361,-1.1
362,-1
363,-1
364,-1.1
365,-1
366,-0.9
367,-0.9
368,-0.8
369,-1.1
370,-1.1
371,-1
372,-0.8
373,-0.7
374,-1
375,-1.5
376,-1.2
377,-1
378,-0.9
379,-0.8
380,-0.5
381,-0.7
382,-0.9
383,-0.8
384,-0.6
385,-0.5
386,-0.7
387,-0.8
388,-0.7
389,-0.8
390,-0.8
391,-0.7
392,-0.7
393,-0.6
394,-0.6
395,-0.5
396,-0.6
397,-0.6
398,-0.7
399,-0.6
400,-0.4
401,-0.5
402,-0.7
403,-0.8
404,-0.9
405,-1
406,-0.7
407,-0.7
408,-0.7
409,-0.7
410,-0.6
411,-0.6
412,-0.7
413,-0.7
414,-0.9
415,-1.1
416,-1
417,-1.1
418,-0.9
419,-0.8
420,-0.6
421,-0.7
422,-0.7
423,-0.4
424,-0.5
425,-0.7
426,-0.8
427,-0.8
428,-0.8
429,-1
430,-1
431,-0.6
432,-0.5
433,-0.9
434,-1.1
435,-1
436,-1.1
437,-0.9
438,-0.5
439,-0.5
440,-1
441,-1.4
442,-1.6
443,-1.2
444,-0.9
445,-0.8
446,-0.6
447,-0.5
448,-0.6
449,-0.6
450,-0.9
451,-1.3
452,-0.9
453,-0.7
454,-0.8
455,-1
456,-1
457,-1
458,-1.2
459,-1.5
460,-1.5
461,-1.3
462,-1.2
463,-0.8
464,-0.7
465,-0.8
466,-0.8
467,-0.7
468,-0.9
469,-1.1
470,-1.1
471,-1
472,-1
473,-0.9
474,-0.9
475,-1.1
476,-0.8
477,-0.9
478,-1
479,-1.2
480,-1.4
481,-1.5
482,-1
483,-1
484,-1
485,-1
486,-0.8
487,-0.8
488,-0.6
489,-0.8
490,-1
491,-0.9
492,-0.9
493,-0.8
494,-0.9
495,-0.9
496,-1
497,-1
498,-0.9
499,-0.8
500,-1.1
501,-1.2
502,-1.2
503,-1
504,-1.1
505,-1
506,-0.9
507,-0.9
508,-0.8
509,-0.8
510,-0.8
511,-0.7
512,-0.7
513,-1
514,-1
515,-1.2
516,-1.3
517,-1.1
518,-1
519,-1.5
520,-1.3
521,-1
522,-1.2
523,-1.3
524,-1.1
525,-1
526,-0.8
527,-0.6
528,-0.5
529,-0.6
530,-0.6
531,-0.4
532,-0.4
533,-0.3
534,-0.2
535,0
536,0
537,-0.2
538,0
539,0.3
540,0.2
541,0
542,-0.2
543,-0.2
544,-0.3
545,-0.2
546,0.2
547,0.3
548,0.5
549,0.6
550,0.5
551,0.3
552,0.1
553,-0.2
554,0.3
555,0.8
556,0.6
557,0.3
558,0.2
559,0
560,-0.1
561,-0.3
562,-0.6
563,-1
564,-0.8
565,-0.4
566,-0.3
567,-0.1
568,-0.1
569,-0.2
570,-0.7
571,-1.2
572,-1.1
573,-1
574,-1.1
575,-0.5
576,-0.2
577,-0.3
578,-0.1
579,-0.6
580,-0.9
581,-0.9
582,-0.9
583,-1.1
584,-1.2
585,-1.3
586,-1.4
587,-1
588,-0.7
589,-0.6
590,-0.6
591,-0.7
592,-1.1
593,-1.2
594,-1.1
595,-1
596,-1
597,-0.6
598,-1
599,-1.1
600,-0.9
601,-0.6
602,-0.2
603,0.1
604,0.7
605,1.4
606,1.4
607,1.5
608,1.2
609,0.9
610,0.5
611,0.4
612,0
613,-0.1
614,-0.1
615,0.4
616,1.4
617,2.3
618,2.8
619,2.9
620,2.8
621,2.9
622,3
623,2.2
624,0.4
625,-0.9
626,-1.9
627,-2.7
628,-3.4
629,-4.5
630,-5.2
631,-5.2
632,-4.6
633,-4.4
634,-4
635,-2.9
636,-2.2
637,-1.6
638,-1.3
639,-1.4
640,-1.4
641,-1.4
642,-1.3
643,-1.4
644,-1.4
645,-1.5
646,-1.4
647,-1.3
648,-1.2
649,-1
650,-0.9
651,-0.7
652,-0.6
653,-1.1
654,-1.4
655,-1
656,-1
657,-0.7
658,-0.6
659,-0.6
660,-0.7
661,-0.5
662,-0.8
663,-0.8
664,-0.7
665,-0.9
666,-0.9
667,-1
668,-1
669,-0.7
670,-0.3
671,-0.9
672,-1.1
673,-0.9
674,-0.4
675,-0.7
676,-1.1
677,-1.5
678,-1.3
679,-0.8
680,-0.4
681,-0.5
682,-0.5
683,-0.5
684,-0.6
685,-0.8
686,-0.7
687,-0.8
688,-1
689,-0.9
690,-0.8
691,-0.8
692,-0.7
693,-0.7
694,-0.6
695,-0.8
696,-0.7
697,-0.6
698,-0.5
699,-0.5
700,-0.4
701,-0.5
702,-0.6
703,-0.3
704,-0.4
705,-0.2
706,-0.3
707,-0.3
708,-0.4
709,-0.5
710,-0.5
711,-0.5
712,-0.6
713,-0.8
714,-0.5
715,-0.5
716,-0.7
717,-0.5
718,-0.1
719,-0.1
720,-0.3
721,-0.5
722,-0.6
723,-0.3
724,-0.3
725,-0.4
726,-0.5
727,0
728,0.2
729,0.3
730,0.8
731,0.7
732,0.8
733,0.9
734,0.6
735,0.6
736,0.4
737,0.4
738,0.5
739,0.4
740,0.1
741,0.1
742,0
743,0.1
744,0.2
745,0.4
746,0.2
747,0.2
748,0.4
749,0.7
750,0.8
751,0.8
752,0.6
753,0.5
754,0.3
755,0.4
756,0.5
757,0.6
758,0.6
759,0.6
760,0.4
761,0.1
762,0.4
763,0.6
764,0.7
765,0.5
766,0.3
767,0
768,0
769,0.2
770,0.6
771,0.6
772,0.6
773,0.5
774,0.2
775,0
776,-0.1
777,-0.2
778,-0.3
779,-0.2
780,-0.1
781,0
782,0.2
783,0.2
784,0.1
785,-0.1
786,-0.3
787,-0.1
788,0.1
789,0
790,-0.2
791,-0.2
792,-0.3
793,0
794,0.4
795,-0.2
796,-0.1
797,-0.1
798,-0.4
799,-0.6
800,-0.5
801,-0.4
802,-0.4
803,-0.1
804,0.2
805,0
806,-0.3
807,-0.7
808,-0.8
809,-0.8
810,-0.5
811,-0.4
812,-0.6
813,-0.7
814,-0.6
815,-0.5
816,-0.5
817,-0.8
818,-0.7
819,-0.7
820,-0.8
821,-0.7
822,-0.8
823,-0.7
824,-0.6
825,-0.7
826,-1
827,-1
828,-1
829,-0.9
830,-0.9
831,-0.9
832,-1
833,-1.1
834,-1.2
835,-1
836,-0.8
837,-0.7
838,-0.7
839,-0.6
840,-0.6
841,-0.7
842,-1
843,-1
844,-1.1
845,-1
846,-1
847,-0.7
848,-0.4
849,-0.6
850,-0.9
851,-1
852,-0.9
853,-1
854,-1
855,-0.9
856,-1.1
857,-1.3
858,-1.4
859,-0.9
860,-0.6
861,-0.4
862,-0.4
863,-0.6
864,-0.8
865,-1.2
866,-1.1
867,-0.7
868,-0.7
869,-0.6
870,-0.6
871,-0.5
872,-0.5
873,-0.5
874,-0.4
875,-0.5
876,-0.7
877,-0.6
878,-0.7
879,-0.9
880,-0.7
881,-0.7
882,-0.5
883,-0.7
884,-0.9
885,-1
886,-0.7
887,-0.5
888,-0.5
889,-0.8
890,-0.8
891,-0.4
892,-0.7
893,-0.9
894,-0.8
895,-0.8
896,-0.7
897,-0.5
898,-0.4
899,-0.5
900,-0.6
901,-0.7
902,-0.7
903,-0.6
904,-0.7
905,-0.7
906,-0.8
907,-0.9
908,-0.8
909,-0.8
910,-0.8
911,-0.9
912,-0.9
913,-0.8
914,-0.6
915,-0.9
916,-1
917,-1
918,-0.9
919,-1
920,-1.1
921,-0.7
922,-0.6
923,-1
924,-1.1
925,-1.1
926,-0.6
927,-0.6
928,-0.8
929,-0.9
930,-0.9
931,-0.8
932,-0.7
933,-0.9
934,-1.1
935,-0.9
936,-0.8
937,-0.8
938,-1.1
939,-0.9
940,-0.9
941,-0.9
942,-0.6
943,-0.6
944,-0.9
945,-0.9
946,-0.8
947,-0.7
948,-0.8
949,-1.1
950,-1.1
951,-0.8
952,-0.6
953,-0.9
954,-0.8
955,-0.9
956,-0.8
957,-0.8
958,-0.8
959,-0.8
960,-1.1
961,-1.3
962,-1.1
963,-1.3
964,-1.2
965,-0.8
966,-0.8
967,-0.9
968,-0.9
969,-1
970,-1
971,-1.1
972,-1.4
973,-1.3
974,-1
975,-1.3
976,-1.4
977,-1.1
978,-0.9
979,-0.5
980,-0.4
981,-0.4
982,-0.5
983,-0.8
984,-0.9
985,-1.1
986,-1
987,-1
988,-0.9
989,-1
990,-1.1
991,-1
992,-1
993,-1.1
994,-1
995,-1
996,-1.2
997,-0.9
998,-0.7
999,-0.8
1000,-0.8
1001,-0.8
1002,-0.6
1003,-0.6
1004,-0.7
1005,-0.9
1006,-0.9
1007,-0.8
1008,-0.7
1009,-0.3
1010,-1
1011,-0.9
1012,-0.8
1013,-0.9
1014,-1.1
1015,-0.9
1016,-0.6
1017,-0.8
1018,-0.8
1019,-0.8
1020,-0.8
1021,-0.9
1022,-0.9
1023,-0.8
1024,-0.7
1025,-0.6
1026,-0.7
1027,-0.6
1028,-0.3
1029,-0.2
1030,-0.1
1031,0
1032,-0.1
1033,-0.5
1034,-0.9
1035,-0.6
1036,-0.2
1037,-0.1
1038,0
1039,0.2
1040,0.2
1041,0.2
1042,0.1
1043,-0.1
1044,0
1045,0.1
1046,-0.1
1047,-0.2
1048,-0.2
1049,-0.5
1050,-0.2
1051,-0.1
1052,-0.7
1053,-0.7
1054,-0.5
1055,-0.3
1056,-0.1
1057,-0.4
1058,-0.2
1059,-0.4
1060,-0.5
1061,-0.8
1062,-0.7
1063,-0.9
1064,-1.1
1065,-1
1066,-1.1
1067,-1.2
1068,-1.2
1069,-1.1
1070,-1.1
1071,-1.2
1072,-1.7
1073,-1.3
1074,-1.1
1075,-1.3
1076,-1.2
1077,-1.4
1078,-1.7
1079,-1.6
1080,-1.8
1081,-1.7
1082,-1.6
1083,-1.4
1084,-1.5
1085,-1.5
1086,-1.5
1087,-1.4
1088,-1.5
1089,-1.2
1090,-1.1
1091,-1
1092,-0.8
1093,-0.5
1094,-0.4
1095,0
1096,0.7
1097,1.1
1098,0.9
1099,0.7
1100,0.4
1101,0.1
1102,-0.5
1103,-1
1104,-0.9
1105,-1.2
1106,-0.6
1107,0.3
1108,0.9
1109,1.5
1110,1.8
1111,1.6
1112,1.8
1113,2.1
1114,1.2
1115,-0.9
1116,-2.4
1117,-3.1
1118,-3.4
1119,-4.2
1120,-5.4
1121,-6.5
1122,-6.2
1123,-5.4
1124,-4.4
1125,-3.7
1126,-2.8
1127,-2.2
1128,-2
1129,-2.2
1130,-2.5
1131,-2.6
1132,-2.5
1133,-2.5
1134,-2.2
1135,-2
1136,-1.7
1137,-1
1138,-1.1
1139,-1.4
1140,-1.4
1141,-1.1
1142,-1.2
1143,-1.4
1144,-1.4
1145,-1.6
1146,-1.4
1147,-1.4
1148,-1.5
1149,-1.5
1150,-1.5
1151,-1.5
1152,-1.7
1153,-2
1154,-1.6
1155,-1.2
1156,-1.4
1157,-1.5
1158,-1.1
1159,-0.9
1160,-1.2
1161,-1.3
1162,-1.5
1163,-1.6
1164,-1.6
1165,-1.4
1166,-1.2
1167,-1.3
1168,-1.2
1169,-1.4
1170,-1.4
1171,-1.3
1172,-1.3
1173,-1.2
1174,-1.1
1175,-1.4
1176,-1.2
1177,-1.3
1178,-1.5
1179,-1.4
1180,-1.4
1181,-1.1
1182,-0.8
1183,-1.2
1184,-1.4
1185,-1.3
1186,-1.3
1187,-1.3
1188,-1
1189,-0.9
1190,-0.9
1191,-1
1192,-1.1
1193,-1
1194,-1.1
1195,-1.3
1196,-1.2
1197,-1.2
1198,-0.9
1199,-0.8
1200,-0.8
1201,-0.6
1202,-0.8
1203,-0.9
1204,-0.9
1205,-0.6
1206,-0.5
1207,-0.8
1208,-0.8
1209,-0.9
1210,-1
1211,-1.1
1212,-1.2
1213,-1.1
1214,-0.9
1215,-0.8
1216,-0.4
1217,-0.1
1218,0
1219,-0.1
1220,-0.2
1221,-0.4
1222,-0.4
1223,-0.3
1224,-0.4
1225,-0.7
1226,-0.5
1227,-0.2
1228,-0.3
1229,-0.6
1230,-0.7
1231,-0.6
1232,-0.5
1233,-0.7
1234,-0.9
1235,-0.8
1236,-0.3
1237,0.2
1238,-0.1
1239,-0.3
1240,-0.3
1241,-0.5
1242,-0.2
1243,0
1244,0
1245,-0.3
1246,-0.6
1247,-0.3
1248,-0.3
1249,0
1250,-0.3
1251,-0.3
1252,-0.4
1253,-0.4
1254,-0.5
1255,-0.4
1256,-0.2
1257,-0.5
1258,-0.7
1259,-0.6
1260,-0.3
1261,-0.4
1262,-0.7
1263,-0.6
1264,-0.5
1265,-0.6
1266,-0.4
1267,-0.3
1268,-0.1
1269,-0.3
1270,-0.8
1271,-1
1272,-0.9
1273,-0.6
1274,-0.3
1275,-0.5
1276,-1
1277,-0.8
1278,-0.9
1279,-1
1280,-0.5
1281,-0.5
1282,-0.6
1283,-0.6
1284,-0.6
1285,-0.8
1286,-0.8
1287,-0.9
1288,-0.9
1289,-0.7
1290,-0.8
1291,-0.6
1292,-0.6
1293,-1.1
1294,-1.1
1295,-0.8
1296,-1
1297,-1
1298,-1
1299,-1
1300,-1
1301,-1.2
1302,-1.4
1303,-1.4
1304,-1.2
1305,-1.3
1306,-1.4
1307,-1.5
1308,-1.4
1309,-1.4
1310,-1.4
1311,-1.4
1312,-1.3
1313,-1.5
1314,-1.3
1315,-1.2
1316,-1.2
1317,-1.4
1318,-1.5
1319,-1.4
1320,-1.2
1321,-1.4
1322,-1.6
1323,-1.9
1324,-1.8
1325,-1.8
1326,-1.6
1327,-1.5
1328,-1.5
1329,-1.7
1330,-1.6
1331,-1.5
1332,-1.8
1333,-1.5
1334,-1.4
1335,-1.5
1336,-1.5
1337,-1.6
1338,-1.5
1339,-1.6
1340,-1.6
1341,-1.4
1342,-1.5
1343,-1.6
1344,-1.4
1345,-1.5
1346,-1.8
1347,-1.5
1348,-1.4
1349,-1.5
1350,-1.4
1351,-1.5
1352,-1.5
1353,-1.7
1354,-1.6
1355,-1.7
1356,-1.8
1357,-1.5
1358,-1
1359,-1
1360,-1.2
1361,-1.2
1362,-1.2
1363,-1.3
1364,-1.7
1365,-1.6
1366,-1.5
1367,-1.5
1368,-1.4
1369,-1.3
1370,-1.4
1371,-1.5
1372,-1.6
1373,-1.4
1374,-0.7
1375,-0.9
1376,-1.8
1377,-1.7
1378,-1.3
1379,-1.2
1380,-0.9
1381,-0.8
1382,-0.9
1383,-1.3
1384,-1.1
1385,-1.3
1386,-1.5
1387,-1.7
1388,-1.9
1389,-1.5
1390,-1.6
1391,-1.5
1392,-1.3
1393,-1.3
1394,-1.4
1395,-1.2
1396,-1
1397,-1.2
1398,-1.5
1399,-1.4
1400,-1.2
1401,-1.2
1402,-1.3
1403,-1.7
1404,-1.7
1405,-1.6
1406,-1.6
1407,-1.5
1408,-1.6
1409,-1.6
1410,-1.8
1411,-1.8
1412,-1.6
1413,-1.3
1414,-1.1
1415,-1.3
1416,-1.2
1417,-1.3
1418,-1.6
1419,-1.8
1420,-1.5
1421,-1.7
1422,-1.8
1423,-1.7
1424,-1.4
1425,-1.3
1426,-1.3
1427,-1.3
1428,-1.4
1429,-1.5
1430,-1.4
1431,-1.3
1432,-1.5
1433,-1.6
1434,-1.9
1435,-1.7
1436,-1.1
1437,-1.1
1438,-1
1439,-1.5
1440,-1.7
1441,-1.6
1442,-1.7
1443,-2
1444,-1.7
1445,-1.6
1446,-1.5
1447,-1.7
1448,-1.9
1449,-2
1450,-1.7
1451,-2
1452,-1.8
1453,-1.7
1454,-1.5
1455,-1.8
1456,-1.4
1457,-1.2
1458,-1.3
1459,-1.5
1460,-1.5
1461,-1.5
1462,-1.4
1463,-1.4
1464,-1.4
1465,-1.4
1466,-1.5
1467,-1.8
1468,-1.8
1469,-2
1470,-1.5
1471,-1.5
1472,-1.4
1473,-1.2
1474,-1.4
1475,-1.4
1476,-1.5
1477,-1.3
1478,-1.2
1479,-1.4
1480,-1.6
1481,-1.8
1482,-1.5
1483,-1.2
1484,-1.2
1485,-1.2
1486,-1.1
1487,-1.3
1488,-1.8
1489,-1.7
1490,-1.4
1491,-1.3
1492,-0.9
1493,-0.5
1494,-0.4
1495,-0.5
1496,-0.7
1497,-0.8
1498,-1
1499,-1.2
1500,-1.3
1501,-1.2
1502,-0.9
1503,-0.8
1504,-0.5
1505,-0.4
1506,-0.4
1507,-0.3
1508,-0.4
1509,-0.4
1510,-0.2
1511,-0.3
1512,-0.2
1513,-0.1
1514,0
1515,-0.2
1516,-0.6
1517,-0.4
1518,-0.3
1519,0
1520,-0.1
1521,-0.8
1522,-1
1523,-1.1
1524,-1.3
1525,-1.3
1526,-1.2
1527,-0.9
1528,-0.4
1529,-0.4
1530,-0.8
1531,-0.9
1532,-0.8
1533,-0.9
1534,-1.3
1535,-1.4
1536,-1.3
1537,-1.4
1538,-1.6
1539,-1.7
1540,-1.6
1541,-1.5
1542,-1.6
1543,-1.8
1544,-1.8
1545,-1.6
1546,-1.6
1547,-1.6
1548,-1.8
1549,-2
1550,-2.1
1551,-1.7
1552,-1.7
1553,-1.6
1554,-1.6
1555,-1.6
1556,-2
1557,-1.8
1558,-1.4
1559,-1.5
1560,-1.4
1561,-1.4
1562,-1.6
1563,-1.4
1564,-0.6
1565,-0.1
1566,0.5
1567,0.7
1568,0.6
1569,0.4
1570,0.4
1571,-0.1
1572,-0.4
1573,-0.6
1574,-0.8
1575,-0.6
1576,0.1
1577,0.9
1578,1.4
1579,2.3
1580,3.2
1581,2.9
1582,2.9
1583,3.2
1584,2.5
1585,0.5
1586,-0.9
1587,-2
1588,-2.4
1589,-2.7
1590,-3.9
1591,-5.7
1592,-6.2
1593,-5.5
1594,-4.5
1595,-3.2
1596,-1.6
1597,-1.1
1598,-1.2
1599,-1.4
1600,-1.5
1601,-1.6
1602,-1.8
1603,-1.8
1604,-1.5
1605,-1.2
1606,-1.4
1607,-1.6
1608,-1.7
1609,-1.8
1610,-1.7
1611,-1.7
1612,-1.6
1613,-1.6
1614,-1.6
1615,-1.6
1616,-1.6
1617,-1.7
1618,-1.8
1619,-1.5
1620,-1.3
1621,-1.5
1622,-1.6
1623,-1.4
1624,-1.5
1625,-1.5
1626,-1.2
1627,-1.3
1628,-1.1
1629,-1.3
1630,-1.5
1631,-1.3
1632,-1.2
1633,-1.3
1634,-1.3
1635,-1
1636,-0.9
1637,-1
1638,-1.2
1639,-1.4
1640,-1.4
1641,-1.3
1642,-1.2
1643,-1
1644,-1
1645,-1.3
1646,-1.5
1647,-1.5
1648,-1.3
1649,-1.1
1650,-1.1
1651,-0.9
1652,-1.1
1653,-1.3
1654,-1.5
1655,-1.6
1656,-1.4
1657,-1.4
1658,-1.5
1659,-1.3
1660,-0.9
1661,-1.1
1662,-1.5
1663,-1.7
1664,-1.1
1665,-0.9
1666,-0.9
1667,-0.9
1668,-0.7
1669,-0.4
1670,-0.9
1671,-0.8
1672,-0.8
1673,-0.8
1674,-0.7
1675,-0.8
1676,-0.9
1677,-0.8
1678,-0.9
1679,-0.7
1680,-0.8
1681,-0.6
1682,-0.7
1683,-0.5
1684,-0.4
1685,-0.4
1686,-0.5
1687,-0.8
1688,-1
1689,-0.6
1690,-0.5
1691,-0.5
1692,-0.6
1693,-0.6
1694,-0.7
1695,-0.8
1696,-0.9
1697,-0.6
1698,-0.7
1699,-0.7
1700,-0.5
1701,-0.3
1702,-0.1
1703,-0.4
1704,-0.5
1705,-0.5
1706,-0.3
1707,-0.3
1708,0
1709,-0.1
1710,-0.1
1711,0
1712,0.1
1713,-0.1
1714,-0.2
1715,0
1716,-0.1
1717,-0.2
1718,0
1719,0.2
1720,0.3
1721,0.1
1722,-0.2
1723,-0.3
1724,-0.6
1725,-0.1
1726,-0.1
1727,0.1
1728,0.2
1729,0.3
1730,0.2
1731,-0.3
1732,-0.4
1733,-0.1
1734,-0.3
1735,-0.2
1736,-0.1
1737,0.1
1738,-0.2
1739,-0.5
1740,-0.4
1741,-0.3
1742,-0.6
1743,-0.9
1744,-0.9
1745,-0.5
1746,-0.2
1747,-0.3
1748,0
1749,0.2
1750,0.1
1751,0.1
1752,-0.1
1753,-0.4
1754,-0.6
1755,-0.3
1756,-0.6
1757,-1
1758,-0.8
1759,-0.4
1760,-0.6
1761,-0.6
1762,-0.5
1763,-0.2
1764,-0.7
1765,-0.6
1766,-0.6
1767,-0.7
1768,-0.8
1769,-0.8
1770,-1
1771,-1.2
1772,-1.2
1773,-1.2
1774,-1.4
1775,-1.3
1776,-1.3
1777,-1.2
1778,-1.1
1779,-0.7
1780,-0.8
1781,-0.9
1782,-0.6
1783,-0.5
1784,-0.8
1785,-1.2
1786,-1.3
1787,-1.2
1788,-1.1
1789,-0.6
1790,-0.6
1791,-0.7
1792,-1
1793,-1
1794,-0.8
1795,-1.1
1796,-1.1
1797,-0.9
1798,-0.7
1799,-0.7
1800,-0.7
1801,-0.9
1802,-0.9
1803,-0.9
1804,-0.6
1805,-1.1
1806,-1.5
1807,-1.6
1808,-1.2
1809,-0.7
1810,-1
1811,-1
1812,-0.9
1813,-1.1
1814,-1.3
1815,-1.3
1816,-1.1
1817,-0.9
1818,-0.5
1819,-0.4
1820,-0.6
1821,-0.8
1822,-1
1823,-0.9
1824,-0.7
1825,-0.7
1826,-0.8
1827,-0.6
1828,-0.4
1829,-0.4
1830,-0.3
1831,-0.4
1832,-0.9
1833,-1
1834,-1.1
1835,-1
1836,-0.9
1837,-1
1838,-0.9
1839,-0.6
1840,-0.9
1841,-0.9
1842,-0.6
1843,-1
1844,-1.1
1845,-1.1
1846,-0.6
1847,-0.4
1848,-0.8
1849,-0.5
1850,-0.7
1851,-0.7
1852,-0.7
1853,-0.5
1854,-0.6
1855,-0.7
1856,-0.4
1857,-0.4
1858,-0.5
1859,-0.2
1860,-0.4
1861,-0.6
1862,-0.2
1863,-0.2
1864,-0.5
1865,-0.8
1866,-0.8
1867,-0.8
1868,-0.7
1869,-1
1870,-1
1871,-1
1872,-0.9
1873,-0.4
1874,-0.5
1875,-0.6
1876,-0.6
1877,-0.7
1878,-0.9
1879,-0.6
1880,-0.5
1881,-0.7
1882,-1
1883,-0.9
1884,-0.8
1885,-0.6
1886,-0.7
1887,-0.8
1888,-0.8
1889,-0.9
1890,-0.9
1891,-0.9
1892,-0.7
1893,-0.8
1894,-1.2
1895,-1.1
1896,-0.8
1897,-0.7
1898,-0.8
1899,-0.9
1900,-0.9
1901,-0.8
1902,-1
1903,-1.2
1904,-1.5
1905,-1.4
1906,-1
1907,-0.9
1908,-0.7
1909,-0.8
1910,-0.9
1911,-0.9
1912,-0.8
1913,-0.8
1914,-0.7
1915,-0.9
1916,-0.7
1917,-0.8
1918,-1.1
1919,-0.9
1920,-0.7
1921,-0.8
1922,-0.7
1923,-1
1924,-0.7
1925,-0.9
1926,-0.8
1927,-0.9
1928,-1
1929,-1
1930,-1.1
1931,-1.2
1932,-1.3
1933,-1.2
1934,-0.9
1935,-1.3
1936,-1.3
1937,-0.9
1938,-0.5
1939,-0.9
1940,-1
1941,-0.8
1942,-1
1943,-1.1
1944,-1.2
1945,-1.3
1946,-1.3
1947,-1.2
1948,-0.8
1949,-0.5
1950,-0.7
1951,-0.8
1952,-0.7
1953,-0.8
1954,-0.9
1955,-1.1
1956,-0.9
1957,-0.9
1958,-1.1
1959,-0.7
1960,-0.4
1961,-0.7
1962,-1
1963,-1
1964,-0.1
1965,0
1966,-0.1
1967,-0.1
1968,-0.4
1969,-0.5
1970,-0.3
1971,-0.2
1972,-0.3
1973,0
1974,0.4
1975,0.1
1976,0.2
1977,0.2
1978,0
1979,0.1
1980,0
1981,-0.2
1982,-0.5
1983,-0.7
1984,-0.3
1985,0
1986,0.1
1987,0.1
1988,0
1989,-0.2
1990,-0.4
1991,-0.4
1992,-0.5
1993,-0.7
1994,-1
1995,-1
1996,-0.8
1997,-0.5
1998,-0.9
1999,-1
2000,-1.2
2001,-1.5
2002,-1.4
2003,-1
2004,-1.1
2005,-1.6
2006,-1.4
2007,-1.2
2008,-1.3
2009,-1.3
2010,-1.1
2011,-1.2
2012,-1.3
2013,-1.5
2014,-1.4
2015,-1.1
2016,-0.9
2017,-1.3
2018,-1.2
2019,-0.9
2020,-1.1
2021,-1.1
2022,-0.8
2023,-0.9
2024,-1.6
2025,-1.7
2026,-1.7
2027,-1.5
2028,-1.3
2029,-1.1
2030,-0.6
2031,-0.2
2032,0.3
2033,0.8
2034,1
2035,0.8
2036,0.7
2037,0.6
2038,0.3
2039,0.1
2040,-0.2
2041,-0.5
2042,-0.6
2043,-0.2
2044,0.6
2045,1.4
2046,2.4
2047,2.9
2048,2.6
2049,2.7
2050,3.2
2051,2.6
2052,0.7
2053,-1
2054,-1.9
2055,-2.5
2056,-3.2
2057,-4.6
2058,-5.9
2059,-6.4
2060,-6.1
2061,-5.3
2062,-4.2
2063,-2.7
2064,-1.7
2065,-1.7
2066,-1.7
2067,-1.7
2068,-1.6
2069,-1.6
2070,-1.6
2071,-1.5
2072,-1.6
2073,-1.7
2074,-1.4
2075,-1.1
2076,-1
2077,-1.2
2078,-1.3
2079,-1.6
2080,-1.5
2081,-1.3
2082,-1.3
2083,-1.4
2084,-1.6
2085,-1.5
2086,-1.2
2087,-1.2
2088,-1.3
2089,-1.6
2090,-1.8
2091,-1.6
2092,-1.6
2093,-1.5
2094,-1.3
2095,-1.3
2096,-1.2
2097,-1.4
2098,-1.5
2099,-1.4
2100,-1.4
2101,-1.4
2102,-1.5
2103,-1.4
2104,-1
2105,-1.1
2106,-1.3
2107,-1.1
2108,-1.3
2109,-1.4
2110,-1.3
2111,-1.1
2112,-1.3
2113,-1.5
2114,-1.6
2115,-1.8
2116,-1.8
2117,-1.2
2118,-1
2119,-1.1
2120,-1
2121,-1.1
2122,-1.2
2123,-1
2124,-0.9
2125,-1.2
2126,-1.5
2127,-1.2
2128,-1
2129,-0.8
2130,-1
2131,-1
2132,-1
2133,-0.9
2134,-1
2135,-0.9
2136,-1
2137,-1.5
2138,-1.2
2139,-1.1
2140,-1.3
2141,-1.3
2142,-1.2
2143,-1.2
2144,-1.2
2145,-1.1
2146,-1.1
2147,-1.1
2148,-1.3
2149,-1.2
2150,-1
2151,-1.1
2152,-1.3
2153,-1
2154,-0.7
2155,-0.5
2156,-0.5
2157,-0.5
2158,-0.7
2159,-0.6
2160,-0.4
2161,-0.7
2162,-0.9
2163,-0.8
2164,-0.9
2165,-0.7
2166,-0.6
2167,-0.6
2168,-0.4
2169,-0.1
2170,0
2171,-0.3
2172,-0.2
2173,-0.1
2174,-0.3
2175,-0.1
2176,0
2177,0
2178,0
2179,-0.3
2180,-0.2
2181,-0.3
2182,-0.1
2183,-0.2
2184,-0.2
2185,-0.3
2186,-0.4
2187,-0.4
2188,-0.3
2189,-0.3
2190,-0.9
2191,-0.6
2192,-0.7
2193,-0.6
2194,-0.4
2195,-0.6
2196,-0.8
2197,-0.8
2198,-0.7
2199,-0.6
2200,-0.3
2201,-0.1
2202,-0.5
2203,-0.7
2204,-0.6
2205,-0.1
2206,-0.1
2207,-0.2
2208,-0.3
2209,-0.5
2210,-0.6
2211,-0.7
2212,-0.7
2213,-0.7
2214,-0.6
2215,-0.7
2216,-0.6
2217,-0.4
2218,-0.6
2219,-0.6
2220,-0.7
2221,-0.6
2222,-0.8
2223,-1
2224,-1.2
2225,-1.5
2226,-1.3
2227,-0.9
2228,-1.1
2229,-1
2230,-1.1
2231,-1.3
2232,-1.2
2233,-1.2
2234,-0.9
2235,-1
2236,-0.9
2237,-1.4
2238,-1.4
2239,-1.7
2240,-1.7
2241,-1.4
2242,-1.3
2243,-1.1
2244,-1
2245,-1.1
2246,-1.5
2247,-1.5
2248,-1.4
2249,-1.1
2250,-1
2251,-1
2252,-1.4
2253,-1.5
2254,-1.4
2255,-1.2
2256,-1.1
2257,-1.2
2258,-1.7
2259,-1.7
2260,-1.6
2261,-1.5
2262,-1.5
2263,-1.6
2264,-1.5
2265,-1.6
2266,-1.7
2267,-1.6
2268,-1.4
2269,-0.8
2270,-0.9
2271,-1.1
2272,-1.2
2273,-1.2
2274,-1.2
2275,-1.3
2276,-1.4
2277,-1.4
2278,-1.3
2279,-1.6
2280,-1.5
2281,-1.4
2282,-1.4
2283,-1.4
2284,-1.5
2285,-1.4
2286,-1.3
2287,-1.3
2288,-1
2289,-0.7
2290,-1
2291,-1.2
2292,-1.1
2293,-1.3
2294,-1.1
2295,-1.2
2296,-1.2
2297,-1
2298,-0.8
2299,-0.8
2300,-1
2301,-1
2302,-1.1
2303,-1.1
2304,-1
2305,-0.7
2306,-0.6
2307,-0.8
2308,-1
2309,-0.9
2310,-1
2311,-1.1
2312,-1
2313,-1
2314,-1.1
2315,-1
2316,-1.1
2317,-1.3
2318,-1.1
2319,-1
2320,-1.2
2321,-1.3
2322,-1.2
2323,-1.1
2324,-1.1
2325,-1.2
2326,-0.9
2327,-0.9
2328,-1.1
2329,-0.8
2330,-0.8
2331,-1.2
2332,-1.3
2333,-1.3
2334,-1.5
2335,-1.2
2336,-0.8
2337,-1.1
2338,-1.2
2339,-1.1
2340,-1.3
2341,-1.4
2342,-1.1
2343,-1
2344,-1
2345,-1
2346,-0.9
2347,-1.1
2348,-1.2
2349,-1.2
2350,-1.1
2351,-1.3
2352,-1.6
2353,-1.4
2354,-1.3
2355,-1.1
2356,-0.9
2357,-0.8
2358,-1.4
2359,-1.5
2360,-1.1
2361,-1
2362,-1.2
2363,-0.9
2364,-0.8
2365,-0.9
2366,-1.2
2367,-1.3
2368,-1.5
2369,-1.5
2370,-1.1
2371,-1.5
2372,-1.8
2373,-1.9
2374,-1.8
2375,-1.7
2376,-1.6
2377,-1.3
2378,-1.2
2379,-1
2380,-1.2
2381,-1.3
2382,-1.4
2383,-1.4
2384,-1.4
2385,-1.3
2386,-1.2
2387,-1.2
2388,-1.5
2389,-1.5
2390,-1.5
2391,-1.6
2392,-1.5
2393,-1.4
2394,-1.3
2395,-1.1
2396,-0.9
2397,-0.8
2398,-0.9
2399,-1.3
2400,-1.3
2401,-1.5
2402,-1.2
2403,-1.3
2404,-1.3
2405,-1.3
2406,-1.5
2407,-1
2408,-1.1
2409,-1.3
2410,-1.3
2411,-1.2
2412,-0.9
2413,-1.1
2414,-1.3
2415,-1.6
2416,-1.4
2417,-1.3
2418,-1.5
2419,-1.4
2420,-1.4
2421,-1.2
2422,-1
2423,-1.4
2424,-1.4
2425,-1.4
2426,-1.3
2427,-1.4
2428,-1.6
2429,-1.5
2430,-1.5
2431,-1.5
2432,-1.6
2433,-1.3
2434,-1.2
2435,-0.9
2436,-0.9
2437,-1.3
2438,-1.5
2439,-1.2
2440,-1
2441,-1.1
2442,-1.2
2443,-1.2
2444,-1.1
2445,-1
2446,-0.9
2447,-0.4
2448,-0.4
2449,-0.6
2450,-0.6
2451,-0.6
2452,-0.5
2453,-0.6
2454,-0.5
2455,-0.4
2456,-0.6
2457,-0.5
2458,-0.2
2459,0
2460,0.2
2461,0.3
2462,0.4
2463,0
2464,-0.1
2465,-0.2
2466,-0.3
2467,-0.2
2468,-0.1
2469,-0.1
2470,-0.2
2471,-0.3
2472,-0.1
2473,-0.3
2474,-0.6
2475,-0.6
2476,-0.4
2477,-0.5
2478,-0.7
2479,-0.9
2480,-0.8
2481,-0.9
2482,-1.1
2483,-1.4
2484,-1.3
2485,-1.2
2486,-1.3
2487,-1.3
2488,-0.9
2489,-0.9
2490,-1
2491,-1.3
2492,-1.1
2493,-1.2
2494,-1.6
2495,-1.7
2496,-1.3
2497,-1.3
2498,-1.3
2499,-1
2500,-1.3
2501,-1.3
2502,-1.3
2503,-1.1
2504,-1
2505,-1.2
2506,-1.4
2507,-1.6
2508,-1.6
2509,-1.5
2510,-1.4
2511,-1.4
2512,-1.4
2513,-1.6
2514,-1.2
2515,-0.2
2516,0.3
2517,1
2518,1.1
2519,0.9
2520,0.9
2521,0.4
2522,0
2523,-0.4
2524,-0.7
2525,-0.6
2526,-0.6
2527,-0.5
2528,0.4
2529,1.2
2530,2
2531,2.7
2532,2.6
2533,2.6
2534,2.7
2535,2.4
2536,0.3
2537,-1.6
2538,-2.8
2539,-3.4
2540,-4.2
2541,-5.1
2542,-6.1
2543,-6.2
2544,-5.6
2545,-5.1
2546,-4.3
2547,-3.3
2548,-2.5
2549,-2.1
2550,-2.2
2551,-2.2
2552,-1.9
2553,-1.6
2554,-1.6
2555,-1.9
2556,-1.9
2557,-2
2558,-1.8
2559,-1.2
2560,-1.1
2561,-1.3
2562,-1.1
2563,-1.5
2564,-1.7
2565,-1.6
2566,-1.7
2567,-1.6
2568,-1.2
2569,-1.2
2570,-1.2
2571,-1.2
2572,-1.5
2573,-1.4
2574,-1.1
2575,-1.1
2576,-1.1
2577,-1.2
2578,-1
2579,-1
2580,-1.2
2581,-1.3
2582,-1.3
2583,-1.4
2584,-1.5
2585,-1.3
2586,-1.2
2587,-1.3
2588,-1.4
2589,-1.7
2590,-1.4
2591,-1.2
2592,-1.1
2593,-1
2594,-0.8
2595,-0.7
2596,-0.7
2597,-0.9
2598,-1.2
2599,-1.2
2600,-1
2601,-0.9
2602,-1
2603,-0.7
2604,-0.9
2605,-0.8
2606,-0.7
2607,-0.8
2608,-0.8
2609,-0.8
2610,-0.9
2611,-1.1
2612,-1.3
2613,-1.2
2614,-1.1
2615,-0.9
2616,-0.5
2617,-0.3
2618,-0.6
2619,-0.7
2620,-0.9
2621,-0.7
2622,-0.4
2623,-0.4
2624,-0.2
2625,-0.6
2626,-1
2627,-0.8
2628,-0.7
2629,-0.5
2630,-0.6
2631,-0.5
2632,-0.5
2633,-0.3
2634,-0.4
2635,-0.6
2636,-0.6
2637,-0.4
2638,-0.4
2639,-0.3
2640,-0.1
2641,-0.2
2642,-0.1
2643,0
2644,0.3
2645,0.3
2646,0.3
2647,0.4
2648,0.3
2649,0.6
2650,0.8
2651,0.6
2652,0.6
2653,0.2
2654,-0.1
2655,-0.2
2656,-0.1
2657,0.3
2658,0.3
2659,0.2
2660,0.4
2661,0.5
2662,0.5
2663,0.8
2664,0.8
2665,0.6
2666,0.4
2667,0.2
2668,0.4
2669,0.4
2670,0.6
2671,0.8
2672,0.8
2673,0.8
2674,0.8
2675,0.7
2676,0.4
2677,0.4
2678,0.6
2679,0.7
2680,0.7
2681,0.5
2682,0.2
2683,0.3
2684,0.4
2685,0.4
2686,0.3
2687,0.2
2688,0
2689,-0.2
2690,-0.2
2691,-0.2
2692,0
2693,0
2694,0
2695,-0.2
2696,-0.3
2697,-0.1
2698,0.1
2699,0.1
2700,0.2
2701,-0.2
2702,-0.5
2703,-0.3
2704,-0.4
2705,-0.4
2706,0
2707,-0.1
2708,-0.2
2709,-0.3
2710,-0.2
2711,-0.5
2712,-0.6
2713,-0.6
2714,-0.5
2715,-0.3
2716,-0.4
2717,-0.3
2718,-0.5
2719,-0.7
2720,-0.6
2721,-0.7
2722,-0.9
2723,-0.8
2724,-1
2725,-1.1
2726,-0.6
2727,-0.6
2728,-0.6
2729,-0.6
2730,-0.7
2731,-0.8
2732,-0.7
2733,-0.7
2734,-0.6
2735,-0.4
2736,-0.5
2737,-0.6
2738,-0.6
2739,-0.8
2740,-0.8
2741,-1
2742,-1.1
2743,-1.2
2744,-1.2
2745,-1.3
2746,-1.1
2747,-0.8
2748,-0.9
2749,-0.9
2750,-0.7
2751,-0.5
2752,-0.5
2753,-0.4
2754,-0.7
2755,-1
2756,-0.8
2757,-0.8
2758,-0.8
2759,-0.7
2760,-0.5
2761,-0.3
2762,-0.9
2763,-1.1
2764,-1
2765,-0.8
2766,-0.5
2767,-0.7
2768,-1.2
2769,-1.2
2770,-1
2771,-0.7
2772,-0.7
2773,-0.7
2774,-0.4
2775,-0.4
2776,-0.6
2777,-0.6
2778,-0.4
2779,-0.5
2780,-0.6
2781,-0.8
2782,-1.3
2783,-1.1
2784,-0.8
2785,-0.6
2786,-0.7
2787,-0.8
2788,-1
2789,-0.8
2790,-0.6
2791,-0.5
2792,-0.5
2793,-0.4
2794,-0.3
2795,-0.1
2796,-0.7
2797,-0.7
2798,-0.5
2799,-0.7
2800,-0.6
2801,-0.6
2802,-0.7
2803,-0.7
2804,-0.8
2805,-0.7
2806,-0.6
2807,-0.6
2808,-0.5
2809,-0.3
2810,-0.4
2811,-0.5
2812,-0.5
2813,-0.5
2814,-0.7
2815,-0.9
2816,-0.6
2817,-0.4
2818,-0.6
2819,-0.9
2820,-0.8
2821,-0.4
2822,-0.2
2823,-0.3
2824,-0.9
2825,-1.1
2826,-1.1
2827,-0.6
2828,-0.4
2829,-0.5
2830,-0.9
2831,-1
2832,-0.9
2833,-0.5
2834,-0.3
2835,-0.5
2836,-0.6
2837,-0.6
2838,-0.9
2839,-1
2840,-1.2
2841,-1.2
2842,-0.9
2843,-0.5
2844,-0.7
2845,-0.8
2846,-0.7
2847,-0.6
2848,-0.8
2849,-0.7
2850,-0.6
2851,-0.7
2852,-0.8
2853,-0.7
2854,-0.7
2855,-1
2856,-1.4
2857,-1.2
2858,-0.8
2859,-0.7
2860,-0.9
2861,-0.8
2862,-0.6
2863,-0.5
2864,-0.3
2865,-0.2
2866,-0.4
2867,-0.7
2868,-0.7
2869,-1
2870,-0.9
2871,-1
2872,-0.7
2873,-0.6
2874,-0.8
2875,-1
2876,-0.9
2877,-1
2878,-0.8
2879,-0.5
2880,-0.7
2881,-0.9
2882,-0.7
2883,-0.7
2884,-0.8
2885,-0.7
2886,-0.8
2887,-0.8
2888,-1
2889,-1
2890,-0.8
2891,-0.5
2892,-0.4
2893,-0.6
2894,-0.7
2895,-0.6
2896,-0.5
2897,-0.7
2898,-0.5
2899,-0.5
2900,-0.4
2901,-0.8
2902,-1.2
2903,-1
2904,-0.8
2905,-0.7
2906,-0.8
2907,-1
2908,-0.8
2909,-0.6
2910,-0.5
2911,-0.3
2912,-0.3
2913,-0.5
2914,-0.7
2915,-0.6
2916,-0.6
2917,-0.6
2918,-0.9
2919,-1.2
2920,-1.1
2921,-0.6
2922,-0.3
2923,-0.5
2924,-0.7
2925,-0.9
2926,-1
2927,-0.7
2928,-0.3
2929,-0.1
2930,-0.1
2931,-0.1
2932,-0.2
2933,-0.3
2934,-0.4
2935,-0.1
2936,0.1
2937,0
2938,0
2939,-0.1
2940,0
2941,0.3
2942,0.2
2943,0
2944,-0.4
2945,-0.3
2946,-0.2
2947,-0.3
2948,-0.5
2949,0
2950,0
2951,-0.1
2952,-0.2
2953,-0.1
2954,0
2955,0
2956,0.1
2957,-0.1
2958,-0.4
2959,-0.8
2960,-1.2
2961,-1
2962,-0.6
2963,-0.2
2964,-0.3
2965,-1
2966,-1.1
2967,-1.1
2968,-1.2
2969,-1.3
2970,-1.2
2971,-1.3
2972,-1.3
2973,-1.4
2974,-1.2
2975,-1.1
2976,-0.8
2977,-1
2978,-1.2
2979,-1.2
2980,-1.3
2981,-1.4
2982,-1.8
2983,-1.6
2984,-1.3
2985,-1.5
2986,-1.6
2987,-1.5
2988,-1.2
2989,-1.3
2990,-1.3
2991,-1.3
2992,-1.5
2993,-1.6
2994,-1.9
2995,-1.8
2996,-1.6
2997,-1.7
2998,-1.6
2999,-1.1
3000,-0.9
3001,-0.6
3002,0.1
3003,0.5
3004,1
3005,1.1
3006,0.9
3007,0.3
3008,-0.4
3009,-1
3010,-1
3011,-1.2
3012,-1.3
3013,-1.2
3014,-0.4
3015,0.6
3016,1.5
3017,2.5
3018,2.3
3019,1.8
3020,2
3021,1.9
3022,0.3
3023,-1.6
3024,-2.1
3025,-3.1
3026,-3.6
3027,-4.4
3028,-5.7
3029,-6.2
3030,-5.9
3031,-5.2
3032,-4.6
3033,-3.7
3034,-2.4
3035,-2.1
3036,-2.2
3037,-2.1
3038,-1.9
3039,-1.8
3040,-2
3041,-1.9
3042,-1.9
3043,-1.8
3044,-1.5
3045,-1.4
3046,-1.6
3047,-1.5
3048,-1.7
3049,-1.6
3050,-1.4
3051,-1.1
3052,-1.1
3053,-1.4
3054,-1.8
3055,-1.7
3056,-1.5
3057,-1.4
3058,-1
3059,-1
3060,-1.3
3061,-1.3
3062,-1.3
3063,-1.1
3064,-1.2
3065,-1.5
3066,-1.5
3067,-1.2
3068,-0.9
3069,-1.1
3070,-1.3
3071,-1.2
3072,-1.5
3073,-1.4
3074,-1.2
3075,-1.1
3076,-1.1
3077,-1.1
3078,-1.3
3079,-1.2
3080,-1
3081,-1
3082,-1
3083,-1.1
3084,-0.8
3085,-0.8
3086,-1.1
3087,-0.9
3088,-0.7
3089,-0.9
3090,-1
3091,-0.7
3092,-0.8
3093,-0.9
3094,-0.9
3095,-0.9
3096,-0.9
3097,-0.8
3098,-1.1
3099,-1.4
3100,-1.3
3101,-1.1
3102,-1.3
3103,-1.3
3104,-0.8
3105,-0.6
3106,-0.8
3107,-1.1
3108,-1
3109,-1.2
3110,-1
3111,-0.8
3112,-0.7
3113,-0.7
3114,-0.7
3115,-0.8
3116,-0.6
3117,-0.8
3118,-0.8
3119,-1.2
3120,-1.3
3121,-1.1
3122,-0.7
3123,-0.2
3124,-0.3
3125,-0.2
3126,-0.7
3127,-0.7
3128,-0.6
3129,-0.5
3130,-0.4
3131,-0.5
3132,-0.5
3133,-0.4
3134,-0.5
3135,-0.3
3136,-0.2
3137,-0.5
3138,-0.2
3139,0
3140,0.2
3141,0.1
3142,0.2
3143,0.4
3144,0.5
3145,0.4
3146,0.2
3147,-0.3
3148,-0.4
3149,-0.4
3150,-0.2
3151,0
3152,0.1
3153,-0.1
3154,-0.1
3155,-0.3
3156,-0.5
3157,-0.4
3158,-0.2
3159,-0.1
3160,-0.1
3161,-0.1
3162,0
3163,-0.1
3164,-0.2
3165,-0.5
3166,-0.5
3167,-0.1
3168,-0.4
3169,-0.5
3170,-0.4
3171,-0.3
3172,-0.7
3173,-0.8
3174,-0.4
3175,-0.2
3176,-0.1
3177,-0.1
3178,-0.3
3179,-0.3
3180,-0.5
3181,-0.3
3182,-0.2
3183,-0.2
3184,0
3185,-0.2
3186,-0.4
3187,-0.3
3188,-0.2
3189,-0.3
3190,-0.2
3191,-0.2
3192,-0.4
3193,-0.5
3194,-0.3
3195,-0.3
3196,-0.5
3197,-0.5
3198,-0.4
3199,-0.3
3200,-0.5
3201,-0.4
3202,-0.2
3203,-0.2
3204,-0.1
3205,-0.5
3206,-0.8
3207,-1.1
3208,-0.9
3209,-0.9
3210,-0.7
3211,-0.8
3212,-0.9
3213,-1
3214,-0.9
3215,-0.6
3216,-0.4
3217,-0.7
3218,-0.7
3219,-0.6
3220,-0.4
3221,-0.5
3222,-0.7
3223,-0.8
3224,-1
3225,-1.1
3226,-1
3227,-1.2
3228,-1
3229,-0.6
3230,-0.9
3231,-1.1
3232,-1.1
3233,-1
3234,-1.1
3235,-0.9
3236,-0.8
3237,-0.6
3238,-0.6
3239,-0.6
3240,-0.6
3241,-0.5
3242,-0.5
3243,-0.8
3244,-0.6
3245,-0.6
3246,-0.7
3247,-0.6
3248,-0.7
3249,-1.1
3250,-1.1
3251,-0.8
3252,-0.9
3253,-0.7
3254,-0.7
3255,-0.9
3256,-1
3257,-0.9
3258,-0.8
3259,-1
3260,-1.3
3261,-1.1
3262,-0.7
3263,-0.7
3264,-0.8
3265,-1
3266,-1
3267,-1.1
3268,-0.9
3269,-0.8
3270,-0.7
3271,-0.5
3272,-0.3
3273,-0.1
3274,-0.2
3275,-0.3
3276,-0.5
3277,-0.4
3278,-0.1
3279,-0.3
3280,-0.5
3281,-0.7
3282,-0.7
3283,-0.7
3284,-0.8
3285,-0.5
3286,-0.2
3287,-0.1
3288,0
3289,-0.3
3290,-0.4
3291,-0.5
3292,-0.7
3293,-0.7
3294,-0.6
3295,-0.5
3296,-0.6
3297,-0.6
3298,-0.6
3299,-0.8
3300,-0.9
3301,-0.7
3302,-0.2
3303,-0.2
3304,-0.7
3305,-0.8
3306,-0.9
3307,-0.8
3308,-0.6
3309,-0.6
3310,-0.5
3311,-0.6
3312,-0.9
3313,-0.7
3314,-0.7
3315,-0.8
3316,-0.8
3317,-0.5
3318,-0.1
3319,-0.1
3320,-0.4
3321,-0.3
3322,-0.4
3323,-0.3
3324,-0.9
3325,-1.1
3326,-1.1
3327,-1.1
3328,-1.2
3329,-1.1
3330,-0.9
3331,-0.8
3332,-0.6
3333,-0.7
3334,-0.5
3335,-0.4
3336,-0.9
3337,-0.6
3338,-0.2
3339,-0.3
3340,-0.4
3341,-0.1
3342,-0.3
3343,-0.5
3344,-0.5
3345,-0.6
3346,-0.8
3347,-0.9
3348,-0.8
3349,-0.8
3350,-0.5
3351,-0.3
3352,-0.3
3353,-0.5
3354,-0.5
3355,-0.6
3356,-1
3357,-1.1
3358,-0.7
3359,-0.7
3360,-0.7
3361,-0.7
3362,-1
3363,-1.1
3364,-0.7
3365,-0.6
3366,-0.6
3367,-0.8
3368,-0.8
3369,-0.8
3370,-1
3371,-1.3
3372,-1.1
3373,-0.7
3374,-0.9
3375,-0.9
3376,-0.5
3377,-0.5
3378,-0.8
3379,-0.6
3380,-0.5
3381,-0.5
3382,-0.8
3383,-1
3384,-0.7
3385,-0.6
3386,-0.8
3387,-0.8
3388,-0.7
3389,-0.8
3390,-0.5
3391,-0.6
3392,-1.1
3393,-1.1
3394,-1.2
3395,-1
3396,-0.5
3397,-0.4
3398,-0.4
3399,-0.3
3400,-0.3
3401,-0.2
3402,-0.4
3403,-0.3
3404,-0.4
3405,-0.5
3406,-0.4
3407,-0.1
3408,0
3409,0.1
3410,0.3
3411,0.3
3412,0.3
3413,0.5
3414,0.8
3415,0.5
3416,0.4
3417,0.4
3418,0.6
3419,0.8
3420,0.4
3421,-0.2
3422,0
3423,0.3
3424,0.2
3425,0
3426,-0.3
3427,-0.5
3428,-0.6
3429,-0.6
3430,-0.4
3431,-0.2
3432,-0.2
3433,-0.6
3434,-0.6
3435,-0.6
3436,-0.8
3437,-1.1
3438,-1.1
3439,-1.1
3440,-1.1
3441,-1.3
3442,-1
3443,-0.9
3444,-0.8
3445,-1.2
3446,-1.4
3447,-1.2
3448,-1
3449,-0.9
3450,-1.2
3451,-1.1
3452,-1.1
3453,-1.5
3454,-1.8
3455,-1.6
3456,-1.1
3457,-1.2
3458,-1.4
3459,-1.4
3460,-1.2
3461,-1.1
3462,-1.2
3463,-1.3
3464,-1.3
3465,-1.2
3466,-0.8
3467,-0.4
3468,0.5
3469,0.9
3470,1.1
3471,0.9
3472,0.6
3473,0.3
3474,0
3475,-0.4
3476,-0.7
3477,-0.6
3478,0.2
3479,0.3
3480,1
3481,1.8
3482,2.5
3483,3.2
3484,3.4
3485,3.3
3486,3.9
3487,3.5
3488,1.4
3489,-0.5
3490,-1.5
3491,-2.2
3492,-2.6
3493,-3.4
3494,-5
3495,-5.9
3496,-5.8
3497,-5
3498,-3.7
3499,-2.1
3500,-0.9
3501,-0.6
3502,-0.8
3503,-1.2
3504,-1.6
3505,-1.9
3506,-1.8
3507,-1.6
3508,-1.8
3509,-2
3510,-2.1
3511,-1.5
3512,-1.5
3513,-1.5
3514,-1.3
3515,-1.4
3516,-1.4
3517,-1.4
3518,-1.6
3519,-1.8
3520,-1.6
3521,-1.5
3522,-1.4
3523,-1.5
3524,-1.5
3525,-1.4
3526,-1.4
3527,-1
3528,-1.1
3529,-1.4
3530,-1.2
3531,-1.2
3532,-1.5
3533,-2
3534,-2.1
3535,-1.8
3536,-1.7
3537,-1.4
3538,-1.3
3539,-1.6
3540,-1.3
3541,-0.9
3542,-1
3543,-0.9
3544,-1.3
3545,-1.4
3546,-1.3
3547,-1.1
3548,-1.2
3549,-1
3550,-0.9
3551,-1.1
3552,-1.3
3553,-1.2
3554,-1.1
3555,-1.1
3556,-1.3
3557,-1.3
3558,-1.5
3559,-1.5
3560,-1.4
3561,-1.5
3562,-1.2
3563,-1
3564,-0.9
3565,-0.8
3566,-1
3567,-1.2
3568,-1.9
3569,-1.5
3570,-1.1
3571,-1
3572,-1.1
3573,-1.1
3574,-1.2
3575,-1.1
3576,-1
3577,-0.8
3578,-1.2
3579,-0.9
3580,-0.9
3581,-0.9
3582,-0.9
3583,-0.9
3584,-0.9
3585,-1.2
3586,-1.2
3587,-0.9
3588,-0.8
3589,-0.7
3590,-0.5
3591,-0.5
3592,-0.7
3593,-0.7
3594,-0.6
3595,-0.5
3596,-0.6
3597,-0.3
3598,-0.3
3599,-0.2
3600,-0.1
3601,0
3602,-0.1
3603,-0.1
3604,-0.3
3605,-0.3
3606,-0.5
3607,-0.4
3608,0
3609,0
3610,0.1
3611,-0.1
3612,-0.2
3613,0
3614,-0.5
3615,-0.8
3616,-0.7
3617,-0.2
3618,-0.1
3619,0
3620,0.3
3621,0.3
3622,-0.1
3623,-0.2
3624,-0.4
3625,-0.5
3626,-0.2
3627,-0.2
3628,0
3629,-0.1
3630,-0.3
3631,-0.3
3632,-0.3
3633,-0.2
3634,-0.4
3635,-0.2
3636,-0.2
3637,-0.2
3638,-0.2
3639,-0.1
3640,0
3641,-0.1
3642,-0.1
3643,-0.3
3644,-0.4
3645,-0.3
3646,-0.5
3647,-0.5
3648,-0.1
3649,0.3
3650,0.4
3651,0
3652,-0.2
3653,0
3654,0.1
3655,-0.2
3656,-0.2
3657,-0.3
3658,-0.6
3659,-1.1
3660,-1.2
3661,-0.8
3662,-0.8
3663,-0.8
3664,-0.9
3665,-0.9
3666,-0.9
3667,-0.6
3668,-0.3
3669,-0.4
3670,-0.7
3671,-0.9
3672,-1
3673,-1.1
3674,-1.1
3675,-1.2
3676,-1.4
3677,-1.4
3678,-1.2
3679,-1
3680,-0.9
3681,-0.7
3682,-0.9
3683,-0.9
3684,-0.8
3685,-1
3686,-1.2
3687,-0.6
3688,-0.7
3689,-1
3690,-1
3691,-1.1
3692,-1
3693,-1
3694,-0.9
3695,-0.6
3696,-0.4
3697,-0.5
3698,-0.8
3699,-0.9
3700,-0.9
3701,-1.2
3702,-1.2
3703,-0.9
3704,-0.8
3705,-1
3706,-0.8
3707,-0.7
3708,-0.9
3709,-1.1
3710,-0.9
3711,-1.3
3712,-1.7
3713,-1.6
3714,-1.1
3715,-1
3716,-1.1
3717,-0.9
3718,-1
3719,-1.2
3720,-1
3721,-0.7
3722,-0.5
3723,-0.3
3724,-0.4
3725,-0.7
3726,-0.8
3727,-0.8
3728,-0.6
3729,-0.6
3730,-0.6
3731,-0.6
3732,-0.5
3733,-0.6
3734,-0.7
3735,-0.9
3736,-0.9
3737,-0.7
3738,-0.4
3739,-0.4
3740,-0.4
3741,-0.5
3742,-0.7
3743,-0.8
3744,-0.5
3745,-0.6
3746,-0.6
3747,-0.7
3748,-0.7
3749,-0.7
3750,-0.4
3751,-0.2
3752,-0.3
3753,-0.4
3754,-0.4
3755,-0.6
3756,-0.6
3757,-0.4
3758,-0.8
3759,-0.8
3760,-0.8
3761,-0.7
3762,-0.7
3763,-0.6
3764,-0.6
3765,-0.9
3766,-0.9
3767,-0.7
3768,-0.7
3769,-0.6
3770,-0.6
3771,-0.7
3772,-0.7
3773,-0.8
3774,-0.8
3775,-0.6
3776,-0.7
3777,-0.8
3778,-0.6
3779,-0.7
3780,-1
3781,-0.9
3782,-0.8
3783,-1.1
3784,-1.4
3785,-1.3
3786,-0.4
3787,-0.5
3788,-0.7
3789,-0.8
3790,-0.7
3791,-0.7
3792,-0.9
3793,-0.8
3794,-0.9
3795,-0.8
3796,-0.8
3797,-1
3798,-0.8
3799,-0.6
3800,-0.6
3801,-0.7
3802,-0.5
3803,-1.1
3804,-1
3805,-1
3806,-0.9
3807,-0.9
3808,-0.9
3809,-0.8
3810,-0.6
3811,-0.8
3812,-1.1
3813,-1
3814,-1.1
3815,-1.1
3816,-0.9
3817,-0.7
3818,-1.1
3819,-1
3820,-0.8
3821,-1
3822,-1.1
3823,-1.2
3824,-1.1
3825,-1
3826,-1
3827,-1.1
3828,-0.9
3829,-0.9
3830,-1
3831,-0.7
3832,-0.7
3833,-1
3834,-1.2
3835,-1.1
3836,-1
3837,-1
3838,-1
3839,-1.2
3840,-1.1
3841,-1.3
3842,-1.5
3843,-1.3
3844,-1.5
3845,-1.5
3846,-1
3847,-0.9
3848,-0.9
3849,-1.3
3850,-1.3
3851,-1.2
3852,-1.4
3853,-1.3
3854,-1.2
3855,-1
3856,-0.9
3857,-0.8
3858,-0.1
3859,0.1
3860,0
3861,-0.1
3862,-0.3
3863,-0.2
3864,-0.3
3865,-0.5
3866,-0.6
3867,-0.8
3868,-0.5
3869,-0.4
3870,-0.4
3871,-0.6
3872,-0.3
3873,-0.2
3874,-0.2
3875,0.1
3876,0.3
3877,0.3
3878,0.2
3879,0.2
3880,0
3881,-0.1
3882,0.1
3883,0.2
3884,0
3885,-0.4
3886,-0.2
3887,-0.5
3888,-0.9
3889,-0.7
3890,-0.6
3891,-0.6
3892,-0.7
3893,-0.8
3894,-0.7
3895,-0.7
3896,-0.9
3897,-0.9
3898,-0.9
3899,-1.1
3900,-1.2
3901,-1.3
3902,-1.4
3903,-1.1
3904,-0.8
3905,-0.8
3906,-0.8
3907,-1.1
3908,-1.5
3909,-1.6
3910,-1.4
3911,-1.3
3912,-1.5
3913,-1.7
3914,-1.8
3915,-1.6
3916,-1.4
3917,-1.4
3918,-1.4
3919,-1.2
3920,-1.2
3921,-1.4
3922,-1.2
3923,-1.3
3924,-1.1
3925,-1.3
3926,-1.2
3927,-1.3
3928,-1.3
3929,-1
3930,0
3931,0.5
3932,1
3933,1
3934,1
3935,0.7
3936,0
3937,-0.3
3938,-0.4
3939,-0.6
3940,-0.7
3941,-0.3
3942,0.2
3943,0.6
3944,1.1
3945,2.1
3946,3
3947,2.8
3948,2.8
3949,2.9
3950,2.5
3951,0.6
3952,-1
3953,-2.1
3954,-2.9
3955,-3.5
3956,-4.7
3957,-6.1
3958,-6.5
3959,-5.8
3960,-4.7
3961,-3.6
3962,-2.5
3963,-2.2
3964,-1.9
3965,-1.9
3966,-1.8
3967,-1.6
3968,-1.6
3969,-1.7
3970,-1.7
3971,-1.6
3972,-1.7
3973,-1.6
3974,-1.4
3975,-1.4
3976,-1.4
3977,-1.4
3978,-1.4
3979,-1.5
3980,-1.4
3981,-1.3
3982,-1.4
3983,-1.3
3984,-1.1
3985,-1.1
3986,-1.5
3987,-1.4
3988,-1.3
3989,-0.9
3990,-0.9
3991,-1.4
3992,-1.5
3993,-1.3
3994,-1.4
3995,-1.2
3996,-0.9
3997,-1
3998,-1.1
3999,-0.9
4000,-1.3
4001,-1
4002,-0.8
4003,-0.9
4004,-1.2
4005,-1.1
4006,-1.1
4007,-1.3
4008,-1.4
4009,-0.9
4010,-0.7
4011,-1.1
4012,-1.1
4013,-1.1
4014,-1.4
4015,-1.5
4016,-1.1
4017,-1.1
4018,-1.1
4019,-1.1
4020,-1.2
4021,-1.1
4022,-0.9
4023,-0.8
4024,-0.6
4025,-0.6
4026,-0.6
4027,-0.7
4028,-1.1
4029,-1.2
4030,-1.2
4031,-1.2
4032,-1.3
4033,-1.2
4034,-1.1
4035,-1.2
4036,-1.1
4037,-0.9
4038,-0.8
4039,-0.8
4040,-1.1
4041,-1.1
4042,-0.8
4043,-0.6
4044,-0.5
4045,-0.5
4046,-0.5
4047,-0.6
4048,-0.3
4049,-0.1
4050,-0.1
4051,-0.6
4052,-0.7
4053,-0.4
4054,-0.1
4055,-0.3
4056,-0.3
4057,-0.5
4058,-0.5
4059,-0.3
4060,-0.2
4061,-0.2
4062,-0.2
4063,-0.6
4064,-0.4
4065,0
4066,-0.2
4067,-0.3
4068,0
4069,-0.2
4070,-0.3
4071,-0.2
4072,-0.3
4073,-0.5
4074,0
4075,0.2
4076,0.1
4077,0
4078,0.1
4079,0.1
4080,0
4081,-0.3
4082,-0.3
4083,0
4084,0.1
4085,0.1
4086,0
4087,0
4088,-0.1
4089,-0.1
4090,0.1
4091,0
4092,-0.1
4093,-0.4
4094,-0.4
4095,-0.4
4096,-0.4
4097,-0.3
4098,-0.3
4099,0
4100,0
4101,0.2
4102,0.2
4103,-0.2
4104,-0.4
4105,-0.3
4106,-0.2
4107,-0.1
4108,-0.1
4109,0
4110,0.2
4111,0.2
4112,-0.1
4113,-0.1
4114,-0.1
4115,-0.2
4116,-0.1
4117,-0.2
4118,-0.3
4119,-0.5
4120,-0.5
4121,-0.2
4122,-0.1
4123,-0.1
4124,-0.2
4125,-0.3
4126,-0.5
4127,-0.5
4128,-0.5
4129,-0.5
4130,-0.4
4131,-0.6
4132,-0.7
4133,-0.9
4134,-1
4135,-1
4136,-0.8
4137,-0.6
4138,-0.5
4139,-0.6
4140,-0.9
4141,-1.4
4142,-1.4
4143,-1.2
4144,-0.9
4145,-0.7
4146,-0.6
4147,-1
4148,-0.9
4149,-1.1
4150,-1.1
4151,-0.7
4152,-0.9
4153,-0.9
4154,-1
4155,-1
4156,-1.1
4157,-1.3
4158,-1.6
4159,-1.3
4160,-0.9
4161,-0.8
4162,-1
4163,-0.7
4164,-0.8
4165,-0.9
4166,-1
4167,-1.1
4168,-1
4169,-0.9
4170,-1
4171,-1.2
4172,-1.2
4173,-0.9
4174,-0.7
4175,-0.7
4176,-0.6
4177,-0.4
4178,-0.5
4179,-0.7
4180,-0.6
4181,-0.6
4182,-0.6
4183,-0.8
4184,-0.9
4185,-1
4186,-0.9
4187,-0.9
4188,-1.2
4189,-1
4190,-1.2
4191,-1.1
4192,-1
4193,-0.9
4194,-0.8
4195,-1.1
4196,-0.7
4197,-0.6
4198,-0.5
4199,-0.5
4200,-0.4
4201,-0.3
4202,-0.3
4203,-0.3
4204,-0.4
4205,-0.8
4206,-0.7
4207,-0.7
4208,-1
4209,-0.9
4210,-0.7
4211,-0.5
4212,-0.6
4213,-0.6
4214,-0.7
4215,-0.7
4216,-0.8
4217,-0.6
4218,-0.6
4219,-0.7
4220,-0.6
4221,-0.8
4222,-0.7
4223,-0.5
4224,-0.7
4225,-0.8
4226,-0.6
4227,-0.7
4228,-0.6
4229,-0.7
4230,-0.6
4231,-0.7
4232,-0.7
4233,-0.7
4234,-0.8
4235,-0.7
4236,-0.9
4237,-1.2
4238,-1.1
4239,-0.9
4240,-0.9
4241,-0.8
4242,-0.6
4243,-0.9
4244,-0.9
4245,-1.1
4246,-0.9
4247,-0.7
4248,-0.6
4249,-0.6
4250,-0.7
4251,-0.7
4252,-0.8
4253,-0.9
4254,-0.8
4255,-1.1
4256,-1
4257,-0.8
4258,-0.5
4259,-0.6
4260,-0.6
4261,-0.7
4262,-0.7
4263,-0.7
4264,-0.7
4265,-0.6
4266,-0.6
4267,-0.7
4268,-0.8
4269,-0.8
4270,-1
4271,-1.2
4272,-1.1
4273,-0.8
4274,-0.5
4275,-0.7
4276,-1
4277,-1
4278,-1
4279,-1.4
4280,-1.1
4281,-0.9
4282,-0.5
4283,-0.6
4284,-0.6
4285,-0.8
4286,-0.8
4287,-0.7
4288,-0.8
4289,-1.1
4290,-1.2
4291,-0.9
4292,-1.2
4293,-1.1
4294,-1
4295,-1
4296,-1
4297,-1.2
4298,-1.2
4299,-0.9
4300,-0.6
4301,-0.5
4302,-1
4303,-1.2
4304,-1.1
4305,-1
4306,-0.9
4307,-0.9
4308,-1.2
4309,-1
4310,-0.8
4311,-0.8
4312,-0.9
4313,-0.8
4314,-0.8
4315,-0.4
4316,-0.5
4317,-0.7
4318,-0.7
4319,-0.9
4320,-0.7
4321,-0.4
4322,-0.4
4323,-0.5
4324,-0.7
4325,-1.1
4326,-1.1
4327,-1.1
4328,-1.1
4329,-1
4330,-0.7
4331,-0.7
4332,-0.7
4333,-0.5
4334,-0.4
4335,-0.4
4336,-0.4
4337,-0.4
4338,-0.2
4339,-0.1
4340,0
4341,0
4342,-0.1
4343,0
4344,0
4345,0.3
4346,0.5
4347,0.1
4348,0.2
4349,0.2
4350,-0.1
4351,0.1
4352,0.2
4353,-0.1
4354,-0.2
4355,-0.4
4356,-0.2
4357,-0.5
4358,-0.8
4359,-0.4
4360,-0.4
4361,-0.7
4362,-0.4
4363,-0.2
4364,-0.4
4365,-0.8
4366,-0.7
4367,-0.8
4368,-0.6
4369,-0.8
4370,-1.3
4371,-1.3
4372,-1.2
4373,-1.1
4374,-1
4375,-1
4376,-0.9
4377,-0.8
4378,-0.8
4379,-0.9
4380,-0.9
4381,-0.9
4382,-1
4383,-1.1
4384,-1.1
4385,-1.2
4386,-1.2
4387,-1.2
4388,-0.9
4389,-0.7
4390,-0.8
4391,-1
4392,-1.1
4393,-1.2
4394,-1.3
4395,-1.2
4396,-0.9
4397,-0.8
4398,-0.5
4399,-0.2
4400,0.3
4401,0.9
4402,1.1
4403,1.3
4404,1.3
4405,1
4406,0.9
4407,0.4
4408,-0.1
4409,-0.4
4410,-0.7
4411,-0.5
4412,0.3
4413,1.2
4414,1.9
4415,2.3
4416,2.4
4417,2.4
4418,2.3
4419,2.5
4420,1
4421,-0.9
4422,-2.1
4423,-2.9
4424,-3.5
4425,-4.8
4426,-5.7
4427,-6.1
4428,-5.5
4429,-4.8
4430,-4.3
4431,-3.4
4432,-2.4
4433,-1.7
4434,-1.3
4435,-1.4
4436,-1.5
4437,-1.6
4438,-1.5
4439,-1.4
4440,-1.3
4441,-1.5
4442,-1.7
4443,-1.2
4444,-0.8
4445,-1.3
4446,-1.3
4447,-1
4448,-0.7
4449,-0.5
4450,-0.5
4451,-0.6
4452,-0.8
4453,-0.8
4454,-0.9
4455,-0.9
4456,-0.9
4457,-1
4458,-1.1
4459,-1.1
4460,-1.3
4461,-1.1
4462,-1
4463,-1.2
4464,-1.3
4465,-0.9
4466,-0.6
4467,-0.6
4468,-0.6
4469,-1.1
4470,-0.9
4471,-1
4472,-1.1
4473,-0.9
4474,-0.8
4475,-0.6
4476,-0.8
4477,-1
4478,-0.9
4479,-0.8
4480,-0.8
4481,-0.7
4482,-0.7
4483,-1
4484,-0.9
4485,-0.9
4486,-0.9
4487,-0.5
4488,-0.6
4489,-0.8
4490,-0.9
4491,-0.8
4492,-0.3
4493,-0.1
4494,-0.4
4495,-0.7
4496,-0.4
4497,-0.3
4498,-0.2
4499,0
4500,0
4501,0.1
4502,-0.4
4503,-0.7
4504,-0.5
4505,-0.2
4506,-0.4
4507,-0.4
4508,-0.2
4509,-0.2
4510,-0.1
4511,0.1
4512,0.2
4513,0.1
4514,0
4515,-0.4
4516,-0.5
4517,-0.5
4518,-0.1
4519,0.1
4520,0
4521,0
4522,0.1
4523,0
4524,-0.2
4525,-0.1
4526,0.2
4527,0.4
4528,0.5
4529,0.3
4530,0.5
4531,0.5
4532,0.7
4533,0.5
4534,0.6
4535,0.6
4536,0.6
4537,1.1
4538,0.9
4539,0.6
4540,0.6
4541,0.7
4542,0.7
4543,0.7
4544,0.7
4545,0.7
4546,0.5
4547,0.7
4548,0.6
4549,0.8
4550,0.6
4551,0.5
4552,0.7
4553,0.7
4554,0.4
4555,0.7
4556,1
4557,0.6
4558,0.8
4559,0.8
4560,0.7
4561,0.6
4562,0.6
4563,0.3
4564,0.3
4565,0.3
4566,0.4
4567,0.5
4568,0.3
4569,0.3
4570,0.3
4571,0.1
4572,0.4
4573,0.4
4574,0.3
4575,-0.1
4576,0.1
4577,0.1
4578,0
4579,0
4580,0.3
4581,0.5
4582,0.7
4583,0.4
4584,0.3
4585,0.3
4586,0.1
4587,-0.1
4588,-0.1
4589,-0.1
4590,-0.2
4591,0
4592,-0.1
4593,-0.1
4594,0
4595,0
4596,0.4
4597,0.3
4598,0
4599,-0.1
4600,-0.1
4601,0.1
4602,0.2
4603,-0.2
4604,-0.3
4605,-0.5
4606,-0.8
4607,-0.5
4608,-0.5
4609,-0.3
4610,-0.3
4611,-0.5
4612,-0.5
4613,-0.8
4614,-0.6
4615,-0.7
4616,-0.7
4617,-0.8
4618,-0.7
4619,-0.7
4620,-0.6
4621,-0.3
4622,-0.3
4623,-0.5
4624,-0.5
4625,-0.1
4626,-0.4
4627,-0.4
4628,-0.2
4629,-0.5
4630,-0.4
4631,-0.5
4632,-0.5
4633,-0.7
4634,-0.9
4635,-0.8
4636,-0.6
4637,-0.7
4638,-0.7
4639,-0.5
4640,-0.6
4641,-0.7
4642,-0.8
4643,-0.8
4644,-0.8
4645,-0.6
4646,-0.3
4647,-0.4
4648,-0.5
4649,-0.4
4650,-0.7
4651,-0.7
4652,-0.7
4653,-0.9
4654,-0.7
4655,-0.8
4656,-0.7
4657,-0.5
4658,-0.6
4659,-0.4
4660,-0.3
4661,-0.4
4662,-0.7
4663,-0.5
4664,-0.3
4665,-0.1
4666,-0.1
4667,-0.3
4668,-0.5
4669,-0.4
4670,-0.5
4671,-0.7
4672,-0.6
4673,-0.5
4674,-0.5
4675,-0.3
4676,-0.2
4677,-0.4
4678,-0.6
4679,-0.6
4680,-0.6
4681,-0.5
4682,-0.2
4683,-0.3
4684,-0.3
4685,-0.4
4686,-0.8
4687,-0.6
4688,-0.2
4689,-0.3
4690,-0.3
4691,-0.6
4692,-0.7
4693,-0.1
4694,-0.3
4695,-0.3
4696,-0.4
4697,-0.4
4698,-0.7
4699,-0.4
4700,-0.2
4701,-0.5
4702,-0.5
4703,-0.6
4704,-0.7
4705,-0.7
4706,-0.4
4707,-0.6
4708,-0.6
4709,-0.5
4710,-0.6
4711,-0.8
4712,-0.8
4713,-0.8
4714,-1.1
4715,-1.1
4716,-0.8
4717,-0.7
4718,-0.8
4719,-0.6
4720,-0.4
4721,-0.4
4722,-0.4
4723,-0.4
4724,-0.4
4725,-0.6
4726,-0.7
4727,-0.9
4728,-0.9
4729,-0.9
4730,-0.8
4731,-0.7
4732,-0.8
4733,-0.9
4734,-1.1
4735,-1
4736,-0.7
4737,-0.5
4738,-0.4
4739,-0.4
4740,-0.8
4741,-0.7
4742,-0.5
4743,-0.6
4744,-0.8
4745,-0.9
4746,-0.6
4747,-0.3
4748,-0.1
4749,-0.2
4750,-0.6
4751,-0.6
4752,-0.6
4753,-0.9
4754,-0.9
4755,-0.9
4756,-0.5
4757,-0.2
4758,-0.4
4759,-0.6
4760,-0.6
4761,-0.4
4762,-0.8
4763,-0.9
4764,-1
4765,-1
4766,-0.9
4767,-1
4768,-1.3
4769,-1.2
4770,-1.2
4771,-1.1
4772,-0.9
4773,-0.8
4774,-1
4775,-0.8
4776,-0.9
4777,-0.7
4778,-0.8
4779,-0.9
4780,-0.5
4781,-0.2
4782,-0.6
4783,-0.9
4784,-1.2
4785,-1.1
4786,-1
4787,-0.7
4788,-0.7
4789,-0.9
4790,-1
4791,-0.8
4792,-0.7
4793,-0.6
4794,-1
4795,-1
4796,-1
4797,-0.9
4798,-0.9
4799,-0.6
4800,-0.4
4801,-0.4
4802,-0.8
4803,-0.8
4804,-0.4
4805,-0.5
4806,-0.6
4807,-0.5
4808,-0.4
4809,0
4810,0.2
4811,0.3
4812,0.3
4813,0.3
4814,0.3
4815,0.5
4816,0.7
4817,0.9
4818,0.9
4819,0.7
4820,0.5
4821,0.5
4822,0.4
4823,-0.1
4824,-0.4
4825,-0.3
4826,0.2
4827,0
4828,-0.4
4829,-0.4
4830,-0.4
4831,-0.3
4832,-0.3
4833,-0.3
4834,-0.2
4835,-0.3
4836,-0.3
4837,-0.5
4838,-0.7
4839,-0.8
4840,-0.9
4841,-0.9
4842,-1
4843,-0.9
4844,-0.7
4845,-0.2
4846,-0.1
4847,-0.8
4848,-1.3
4849,-1.2
4850,-1.1
4851,-1
4852,-1
4853,-1
4854,-1.1
4855,-1.4
4856,-1.2
4857,-0.8
4858,-0.9
4859,-0.9
4860,-1.2
4861,-1.5
4862,-1.4
4863,-1
4864,-1
4865,-1.1
4866,-1
4867,-1.1
4868,-0.9
4869,-0.2
4870,0.5
4871,1
4872,1.4
4873,1.7
4874,1.6
4875,1.2
4876,0.7
4877,0.2
4878,0
4879,-0.4
4880,-0.5
4881,-0.1
4882,0
4883,0.4
4884,1.2
4885,1.8
4886,2
4887,1.7
4888,1.9
4889,2.4
4890,1.3
4891,-1
4892,-2.1
4893,-2.9
4894,-3.3
4895,-3.8
4896,-4.8
4897,-6
4898,-5.7
4899,-5
4900,-4.4
4901,-3.5
4902,-2.2
4903,-1.4
4904,-1
4905,-1.4
4906,-1.4
4907,-1.1
4908,-1.4
4909,-1.3
4910,-1.1
4911,-0.9
4912,-1.3
4913,-1.3
4914,-0.8
4915,-1.1
4916,-1
4917,-1
4918,-1
4919,-1.3
4920,-1.3
4921,-1.1
4922,-1.1
4923,-1.4
4924,-1.3
4925,-1.3
4926,-1.2
4927,-1
4928,-0.9
4929,-1.1
4930,-0.9
4931,-0.4
4932,-0.5
4933,-0.9
4934,-1
4935,-0.8
4936,-1.1
4937,-1.2
4938,-1.1
4939,-0.9
4940,-0.5
4941,-0.5
4942,-0.8
4943,-1.1
4944,-0.9
4945,-0.8
4946,-0.7
4947,-0.4
4948,-0.2
4949,-0.5
4950,-0.9
4951,-0.8
4952,-1.1
4953,-1
4954,-1
4955,-1
4956,-1
4957,-1
4958,-0.9
4959,-1
4960,-0.4
4961,-0.2
4962,-0.3
4963,-0.7
4964,-1.1
4965,-1
4966,-0.9
4967,-0.5
4968,-0.5
4969,-0.9
4970,-1.1
4971,-0.8
4972,-0.5
4973,-0.5
4974,-0.9
4975,-0.7
4976,-0.8
4977,-0.8
4978,-0.9
4979,-1.3
4980,-1.2
4981,-0.9
4982,-0.6
4983,-0.4
4984,-0.5
4985,-0.4
4986,-0.4
4987,-0.5
4988,-0.3
4989,-0.3
4990,-0.6
4991,-0.8
4992,-0.7
4993,-0.6
4994,-0.3
4995,-0.5
4996,-0.6
4997,-0.5
4998,-0.3
4999,-0.3
5000,-0.3
