TS,Reading,Flag,TS2,Reading2,Flag2
1,-15,5,2000,-19,5
2,-14,5,2001,-19,5
3,-15,5,2002,-19,5
4,-16,5,2003,-19,5
5,-15,5,2004,-19,5
6,-15,5,2005,-19,5
7,-15,5,2006,-19,5
8,-15,5,2007,-19,5
9,-14,5,2008,-19,5
10,-15,5,2009,-19,5
11,-16,5,2010,-19,5
12,-17,5,2011,-19,5
13,-17,5,2012,-19,5
14,-17,5,2013,-19,5
15,-16,5,2014,-19,5
16,-16,5,2015,-19,5
17,-17,5,2016,-19,5
18,-18,5,2017,-19,5
19,-18,5,2018,-19,5
20,-18,5,2019,-19,5
21,-18,5,2020,-19,5
22,-17,5,2021,-19,5
23,-15,5,2022,-19,5
24,-12,5,2023,-19,5
25,-12,5,2024,-19,5
26,-13,5,2025,-19,5
27,-13,5,2026,-19,5
28,-13,5,2027,-19,5
29,-13,5,2028,-19,5
30,-13,5,2029,-19,5
31,-13,5,2030,-18,5
32,-14,5,2031,-18,5
33,-15,5,2032,-18,5
34,-15,5,2033,-19,5
35,-13,5,2034,-19,5
36,-13,5,2035,-18,5
37,-14,5,2036,-17,5
38,-13,5,2037,-19,5
39,-14,5,2038,-19,5
40,-14,5,2039,-19,5
41,-13,5,2040,-19,5
42,-15,5,2041,-19,5
43,-15,5,2042,-19,5
44,-13,5,2043,-19,5
45,-13,5,2044,-19,5
46,-14,5,2045,-19,5
47,-15,5,2046,-19,5
48,-15,5,2047,-19,5
49,-15,5,2048,-19,5
50,-14,5,2049,-19,5
51,-14,5,2050,-19,5
52,-14,5,2051,-19,5
53,-14,5,2052,-19,5
54,-14,5,2053,-19,5
55,-14,5,2054,-19,5
56,-14,5,2055,-19,5
57,-14,5,2056,-19,5
58,-14,5,2057,-19,5
59,-14,5,2058,-19,5
60,-12,5,2059,-19,5
61,-12,5,2060,-19,5
62,-11,5,2061,-19,5
63,-9,5,2062,-19,5
64,-8,5,2063,-19,5
65,-8,5,2064,-19,5
66,-9,5,2065,-19,5
67,-9,5,2066,-19,5
68,-7,5,2067,-19,5
69,-6,5,2068,-19,5
70,-6,5,2069,-19,5
71,-7,5,2070,-19,5
72,-7,5,2071,-17,5
73,-6,5,2072,-17,5
74,-6,5,2073,-17,5
75,-7,5,2074,-19,5
76,-8,5,2075,-19,5
77,-7,5,2076,-18,5
78,-6,5,2077,-18,5
79,-5,5,2078,-18,5
80,-4,5,2079,-18,5
81,-5,5,2080,-17,5
82,-7,5,2081,-18,5
83,-7,5,2082,-18,5
84,-8,5,2083,-18,5
85,-9,5,2084,-18,5
86,-11,5,2085,-18,5
87,-11,5,2086,-18,5
88,-9,5,2087,-18,5
89,-5,5,2088,-19,5
90,-4,5,2089,-19,5
91,-2,5,2090,-19,5
92,-2,5,2091,-19,5
93,-2,5,2092,-19,5
94,-1,5,2093,-19,5
95,-1,5,2094,-19,5
96,-1,5,2095,-19,5
97,-1,5,2096,-18,5
98,0,5,2097,-18,5
99,0,5,2098,-19,5
100,1,5,2099,-19,5
101,1,5,2100,-19,5
102,0,5,2101,-18,5
103,0,5,2102,-17,5
104,-1,5,2103,-16,5
105,-4,5,2104,-16,5
106,-6,5,2105,-17,5
107,-8,5,2106,-16,5
108,-10,5,2107,-15,5
109,-12,5,2108,-15,5
110,-14,5,2109,-14,5
111,-15,5,2110,-14,5
112,-16,5,2111,-14,5
113,-18,5,2112,-13,5
114,-18,5,2113,-12,5
115,-17,5,2114,-12,5
116,-17,5,2115,-13,5
117,-16,5,2116,-13,5
118,-16,5,2117,-13,5
119,-16,5,2118,-13,5
120,-16,5,2119,-12,5
121,-16,5,2120,-11,5
122,-16,5,2121,-10,5
123,-16,5,2122,-11,5
124,-15,5,2123,-11,5
125,-15,5,2124,-11,5
126,-15,5,2125,-10,5
127,-15,5,2126,-8,5
128,-15,5,2127,-7,5
129,-16,5,2128,-6,5
130,-16,5,2129,-6,5
131,-17,5,2130,-6,5
132,-16,5,2131,-7,5
133,-16,5,2132,-7,5
134,-16,5,2133,-8,5
135,-18,5,2134,-10,5
136,-18,5,2135,-11,5
137,-19,5,2136,-14,5
138,-19,5,2137,-17,5
139,-18,5,2138,-18,5
140,-16,5,2139,-19,5
141,-13,5,2140,-19,5
142,-10,5,2141,-19,5
143,-4,5,2142,-19,5
144,8,5,2143,-19,5
145,24,5,2144,-19,5
146,45,5,2145,-19,5
147,72,5,2146,-19,5
148,102,5,2147,-19,5
149,134,5,2148,-19,5
150,142,5,2149,-19,5
151,142,5,2150,-19,5
152,142,5,2151,-19,5
153,142,5,2152,-19,5
154,142,5,2153,-19,5
155,142,5,2154,-19,5
156,142,5,2155,-19,5
157,142,5,2156,-19,5
158,142,5,2157,-19,5
159,122,5,2158,-19,5
160,80,5,2159,-19,5
161,45,5,2160,-19,5
162,18,5,2161,-19,5
163,-4,5,2162,-19,5
164,-19,5,2163,-19,5
165,-19,5,2164,-19,5
166,-19,5,2165,-19,5
167,-19,5,2166,-19,5
168,-19,5,2167,-19,5
169,-19,5,2168,-19,5
170,-19,5,2169,-19,5
171,-19,5,2170,-19,5
172,-19,5,2171,-19,5
173,-19,5,2172,-17,5
174,-19,5,2173,-15,5
175,-18,5,2174,-11,5
176,-18,5,2175,-2,5
177,-19,5,2176,12,5
178,-19,5,2177,29,5
179,-19,5,2178,53,5
180,-19,5,2179,83,5
181,-18,5,2180,116,5
182,-18,5,2181,142,5
183,-17,5,2182,142,5
184,-17,5,2183,142,5
185,-18,5,2184,142,5
186,-18,5,2185,142,5
187,-18,5,2186,142,5
188,-18,5,2187,142,5
189,-19,5,2188,142,5
190,-19,5,2189,142,5
191,-18,5,2190,142,5
192,-18,5,2191,103,5
193,-18,5,2192,66,5
194,-18,5,2193,34,5
195,-17,5,2194,8,5
196,-17,5,2195,-9,5
197,-17,5,2196,-19,5
198,-17,5,2197,-19,5
199,-17,5,2198,-19,5
200,-16,5,2199,-19,5
201,-16,5,2200,-19,5
202,-16,5,2201,-19,5
203,-16,5,2202,-19,5
204,-16,5,2203,-19,5
205,-16,5,2204,-19,5
206,-16,5,2205,-19,5
207,-17,5,2206,-19,5
208,-16,5,2207,-19,5
209,-15,5,2208,-19,5
210,-16,5,2209,-19,5
211,-15,5,2210,-19,5
212,-15,5,2211,-19,5
213,-15,5,2212,-19,5
214,-15,5,2213,-19,5
215,-15,5,2214,-19,5
216,-15,5,2215,-19,5
217,-14,5,2216,-19,5
218,-13,5,2217,-19,5
219,-15,5,2218,-19,5
220,-16,5,2219,-19,5
221,-17,5,2220,-19,5
222,-19,5,2221,-19,5
223,-19,5,2222,-19,5
224,-18,5,2223,-19,5
225,-17,5,2224,-19,5
226,-17,5,2225,-19,5
227,-16,5,2226,-19,5
228,-16,5,2227,-19,5
229,-15,5,2228,-19,5
230,-15,5,2229,-19,5
231,-14,5,2230,-19,5
232,-14,5,2231,-19,5
233,-14,5,2232,-18,5
234,-13,5,2233,-18,5
235,-12,5,2234,-18,5
236,-11,5,2235,-18,5
237,-10,5,2236,-18,5
238,-10,5,2237,-17,5
239,-10,5,2238,-17,5
240,-9,5,2239,-17,5
241,-7,5,2240,-17,5
242,-6,5,2241,-16,5
243,-5,5,2242,-17,5
244,-5,5,2243,-18,5
245,-5,5,2244,-18,5
246,-5,5,2245,-17,5
247,-3,5,2246,-16,5
248,-3,5,2247,-16,5
249,-2,5,2248,-16,5
250,-1,5,2249,-18,5
251,0,5,2250,-18,5
252,0,5,2251,-19,5
253,0,5,2252,-19,5
254,0,5,2253,-18,5
255,2,5,2254,-19,5
256,4,5,2255,-19,5
257,3,5,2256,-18,5
258,3,5,2257,-18,5
259,3,5,2258,-17,5
260,4,5,2259,-16,5
261,5,5,2260,-16,5
262,7,5,2261,-17,5
263,8,5,2262,-16,5
264,8,5,2263,-15,5
265,9,5,2264,-15,5
266,9,5,2265,-16,5
267,9,5,2266,-16,5
268,10,5,2267,-16,5
269,12,5,2268,-15,5
270,15,5,2269,-14,5
271,17,5,2270,-13,5
272,18,5,2271,-13,5
273,17,5,2272,-13,5
274,17,5,2273,-13,5
275,19,5,2274,-14,5
276,21,5,2275,-14,5
277,23,5,2276,-14,5
278,25,5,2277,-15,5
279,26,5,2278,-16,5
280,26,5,2279,-14,5
281,27,5,2280,-14,5
282,28,5,2281,-13,5
283,29,5,2282,-11,5
284,29,5,2283,-10,5
285,30,5,2284,-9,5
286,31,5,2285,-8,5
287,33,5,2286,-7,5
288,33,5,2287,-6,5
289,34,5,2288,-6,5
290,36,5,2289,-5,5
291,38,5,2290,-5,5
292,40,5,2291,-4,5
293,40,5,2292,-4,5
294,40,5,2293,-3,5
295,41,5,2294,-3,5
296,41,5,2295,-2,5
297,40,5,2296,-1,5
298,37,5,2297,0,5
299,37,5,2298,1,5
300,36,5,2299,3,5
301,35,5,2300,3,5
302,36,5,2301,4,5
303,36,5,2302,4,5
304,35,5,2303,5,5
305,34,5,2304,6,5
306,33,5,2305,7,5
307,33,5,2306,7,5
308,33,5,2307,8,5
309,32,5,2308,10,5
310,31,5,2309,11,5
311,30,5,2310,13,5
312,29,5,2311,14,5
313,27,5,2312,15,5
314,25,5,2313,17,5
315,23,5,2314,19,5
316,20,5,2315,21,5
317,18,5,2316,21,5
318,17,5,2317,23,5
319,16,5,2318,24,5
320,14,5,2319,24,5
321,13,5,2320,25,5
322,11,5,2321,26,5
323,9,5,2322,27,5
324,7,5,2323,28,5
325,6,5,2324,29,5
326,4,5,2325,31,5
327,2,5,2326,30,5
328,1,5,2327,29,5
329,0,5,2328,29,5
330,-1,5,2329,30,5
331,-2,5,2330,31,5
332,-2,5,2331,31,5
333,-3,5,2332,30,5
334,-3,5,2333,30,5
335,-4,5,2334,30,5
336,-4,5,2335,29,5
337,-4,5,2336,28,5
338,-5,5,2337,28,5
339,-5,5,2338,28,5
340,-6,5,2339,26,5
341,-5,5,2340,25,5
342,-5,5,2341,23,5
343,-8,5,2342,22,5
344,-10,5,2343,21,5
345,-12,5,2344,19,5
346,-14,5,2345,17,5
347,-15,5,2346,14,5
348,-16,5,2347,12,5
349,-16,5,2348,11,5
350,-17,5,2349,10,5
351,-17,5,2350,7,5
352,-18,5,2351,5,5
353,-19,5,2352,3,5
354,-18,5,2353,3,5
355,-18,5,2354,1,5
356,-18,5,2355,1,5
357,-19,5,2356,0,5
358,-19,5,2357,-1,5
359,-19,5,2358,-2,5
360,-19,5,2359,-4,5
361,-19,5,2360,-5,5
362,-19,5,2361,-6,5
363,-19,5,2362,-8,5
364,-19,5,2363,-9,5
365,-19,5,2364,-10,5
366,-19,5,2365,-12,5
367,-19,5,2366,-13,5
368,-19,5,2367,-14,5
369,-19,5,2368,-15,5
370,-19,5,2369,-16,5
371,-19,5,2370,-17,5
372,-17,5,2371,-18,5
373,-18,5,2372,-18,5
374,-18,5,2373,-18,5
375,-18,5,2374,-18,5
376,-19,5,2375,-18,5
377,-19,5,2376,-19,5
378,-19,5,2377,-18,5
379,-19,5,2378,-18,5
380,-19,5,2379,-17,5
381,-19,5,2380,-17,5
382,-19,5,2381,-17,5
383,-18,5,2382,-17,5
384,-16,5,2383,-17,5
385,-15,5,2384,-19,5
386,-15,5,2385,-19,5
387,-15,5,2386,-19,5
388,-16,5,2387,-19,5
389,-16,5,2388,-19,5
390,-15,5,2389,-19,5
391,-14,5,2390,-19,5
392,-14,5,2391,-19,5
393,-14,5,2392,-19,5
394,-14,5,2393,-19,5
395,-13,5,2394,-19,5
396,-13,5,2395,-19,5
397,-13,5,2396,-19,5
398,-14,5,2397,-19,5
399,-14,5,2398,-19,5
400,-12,5,2399,-19,5
401,-12,5,2400,-19,5
402,-11,5,2401,-19,5
403,-11,5,2402,-19,5
404,-12,5,2403,-19,5
405,-12,5,2404,-19,5
406,-12,5,2405,-19,5
407,-11,5,2406,-19,5
408,-12,5,2407,-19,5
409,-14,5,2408,-19,5
410,-13,5,2409,-19,5
411,-13,5,2410,-19,5
412,-12,5,2411,-19,5
413,-11,5,2412,-19,5
414,-10,5,2413,-19,5
415,-10,5,2414,-19,5
416,-11,5,2415,-19,5
417,-11,5,2416,-19,5
418,-10,5,2417,-19,5
419,-8,5,2418,-19,5
420,-8,5,2419,-19,5
421,-8,5,2420,-19,5
422,-8,5,2421,-19,5
423,-9,5,2422,-19,5
424,-9,5,2423,-19,5
425,-10,5,2424,-19,5
426,-10,5,2425,-19,5
427,-11,5,2426,-19,5
428,-12,5,2427,-19,5
429,-14,5,2428,-19,5
430,-15,5,2429,-19,5
431,-15,5,2430,-19,5
432,-14,5,2431,-19,5
433,-13,5,2432,-19,5
434,-13,5,2433,-19,5
435,-14,5,2434,-19,5
436,-13,5,2435,-17,5
437,-12,5,2436,-17,5
438,-12,5,2437,-16,5
439,-12,5,2438,-17,5
440,-13,5,2439,-16,5
441,-13,5,2440,-16,5
442,-14,5,2441,-18,5
443,-15,5,2442,-18,5
444,-16,5,2443,-15,5
445,-17,5,2444,-15,5
446,-16,5,2445,-15,5
447,-15,5,2446,-15,5
448,-15,5,2447,-15,5
449,-17,5,2448,-15,5
450,-18,5,2449,-14,5
451,-17,5,2450,-14,5
452,-16,5,2451,-14,5
453,-15,5,2452,-14,5
454,-15,5,2453,-14,5
455,-16,5,2454,-14,5
456,-18,5,2455,-13,5
457,-19,5,2456,-11,5
458,-19,5,2457,-11,5
459,-19,5,2458,-11,5
460,-19,5,2459,-11,5
461,-19,5,2460,-12,5
462,-19,5,2461,-14,5
463,-19,5,2462,-15,5
464,-19,5,2463,-15,5
465,-19,5,2464,-16,5
466,-19,5,2465,-16,5
467,-19,5,2466,-15,5
468,-19,5,2467,-15,5
469,-19,5,2468,-15,5
470,-19,5,2469,-14,5
471,-19,5,2470,-12,5
472,-19,5,2471,-12,5
473,-18,5,2472,-12,5
474,-18,5,2473,-11,5
475,-18,5,2474,-11,5
476,-18,5,2475,-11,5
477,-19,5,2476,-13,5
478,-19,5,2477,-16,5
479,-19,5,2478,-18,5
480,-19,5,2479,-19,5
481,-19,5,2480,-19,5
482,-19,5,2481,-17,5
483,-19,5,2482,-16,5
484,-19,5,2483,-16,5
485,-19,5,2484,-16,5
486,-19,5,2485,-15,5
487,-19,5,2486,-15,5
488,-19,5,2487,-16,5
489,-19,5,2488,-16,5
490,-19,5,2489,-15,5
491,-19,5,2490,-15,5
492,-19,5,2491,-14,5
493,-19,5,2492,-14,5
494,-19,5,2493,-14,5
495,-19,5,2494,-13,5
496,-19,5,2495,-12,5
497,-19,5,2496,-12,5
498,-19,5,2497,-13,5
499,-19,5,2498,-14,5
500,-19,5,2499,-14,5
501,-19,5,2500,-16,5
502,-19,5,2501,-17,5
503,-19,5,2502,-16,5
504,-19,5,2503,-18,5
505,-19,5,2504,-17,5
506,-19,5,2505,-16,5
507,-19,5,2506,-17,5
508,-19,5,2507,-17,5
509,-19,5,2508,-16,5
510,-19,5,2509,-15,5
511,-19,5,2510,-15,5
512,-19,5,2511,-15,5
513,-19,5,2512,-15,5
514,-19,5,2513,-15,5
515,-19,5,2514,-14,5
516,-19,5,2515,-14,5
517,-19,5,2516,-14,5
518,-19,5,2517,-15,5
519,-19,5,2518,-16,5
520,-19,5,2519,-16,5
521,-19,5,2520,-16,5
522,-19,5,2521,-17,5
523,-19,5,2522,-17,5
524,-19,5,2523,-16,5
525,-19,5,2524,-16,5
526,-19,5,2525,-18,5
527,-19,5,2526,-19,5
528,-19,5,2527,-17,5
529,-19,5,2528,-17,5
530,-19,5,2529,-17,5
531,-19,5,2530,-17,5
532,-19,5,2531,-18,5
533,-19,5,2532,-17,5
534,-19,5,2533,-16,5
535,-19,5,2534,-15,5
536,-19,5,2535,-15,5
537,-19,5,2536,-14,5
538,-19,5,2537,-13,5
539,-19,5,2538,-13,5
540,-19,5,2539,-14,5
541,-19,5,2540,-15,5
542,-19,5,2541,-14,5
543,-19,5,2542,-13,5
544,-19,5,2543,-12,5
545,-19,5,2544,-13,5
546,-19,5,2545,-14,5
547,-19,5,2546,-14,5
548,-19,5,2547,-13,5
549,-19,5,2548,-13,5
550,-19,5,2549,-12,5
551,-19,5,2550,-11,5
552,-19,5,2551,-10,5
553,-19,5,2552,-12,5
554,-19,5,2553,-14,5
555,-19,5,2554,-14,5
556,-19,5,2555,-14,5
557,-19,5,2556,-14,5
558,-19,5,2557,-15,5
559,-19,5,2558,-15,5
560,-19,5,2559,-14,5
561,-19,5,2560,-12,5
562,-19,5,2561,-11,5
563,-19,5,2562,-11,5
564,-19,5,2563,-11,5
565,-19,5,2564,-11,5
566,-19,5,2565,-10,5
567,-19,5,2566,-10,5
568,-19,5,2567,-11,5
569,-19,5,2568,-10,5
570,-19,5,2569,-10,5
571,-19,5,2570,-10,5
572,-19,5,2571,-10,5
573,-19,5,2572,-11,5
574,-19,5,2573,-11,5
575,-19,5,2574,-11,5
576,-19,5,2575,-11,5
577,-16,5,2576,-11,5
578,-16,5,2577,-12,5
579,-17,5,2578,-13,5
580,-17,5,2579,-13,5
581,-18,5,2580,-13,5
582,-17,5,2581,-12,5
583,-17,5,2582,-12,5
584,-16,5,2583,-13,5
585,-16,5,2584,-13,5
586,-17,5,2585,-13,5
587,-18,5,2586,-14,5
588,-17,5,2587,-13,5
589,-16,5,2588,-12,5
590,-16,5,2589,-12,5
591,-17,5,2590,-11,5
592,-17,5,2591,-10,5
593,-18,5,2592,-10,5
594,-18,5,2593,-9,5
595,-18,5,2594,-9,5
596,-17,5,2595,-10,5
597,-16,5,2596,-12,5
598,-15,5,2597,-13,5
599,-14,5,2598,-14,5
600,-13,5,2599,-14,5
601,-11,5,2600,-13,5
602,-10,5,2601,-13,5
603,-10,5,2602,-12,5
604,-9,5,2603,-12,5
605,-9,5,2604,-12,5
606,-8,5,2605,-12,5
607,-8,5,2606,-11,5
608,-8,5,2607,-10,5
609,-8,5,2608,-10,5
610,-7,5,2609,-11,5
611,-7,5,2610,-11,5
612,-8,5,2611,-12,5
613,-10,5,2612,-12,5
614,-11,5,2613,-12,5
615,-14,5,2614,-12,5
616,-15,5,2615,-11,5
617,-17,5,2616,-11,5
618,-19,5,2617,-11,5
619,-19,5,2618,-11,5
620,-19,5,2619,-11,5
621,-19,5,2620,-11,5
622,-19,5,2621,-10,5
623,-19,5,2622,-11,5
624,-19,5,2623,-10,5
625,-19,5,2624,-9,5
626,-19,5,2625,-7,5
627,-19,5,2626,-6,5
628,-19,5,2627,-5,5
629,-19,5,2628,-6,5
630,-19,5,2629,-6,5
631,-19,5,2630,-4,5
632,-19,5,2631,-3,5
633,-19,5,2632,-4,5
634,-19,5,2633,-3,5
635,-19,5,2634,-3,5
636,-19,5,2635,-3,5
637,-19,5,2636,-3,5
638,-19,5,2637,-2,5
639,-19,5,2638,-2,5
640,-19,5,2639,-2,5
641,-19,5,2640,-2,5
642,-19,5,2641,-3,5
643,-19,5,2642,-4,5
644,-19,5,2643,-5,5
645,-19,5,2644,-7,5
646,-19,5,2645,-9,5
647,-19,5,2646,-10,5
648,-19,5,2647,-12,5
649,-19,5,2648,-15,5
650,-19,5,2649,-18,5
651,-19,5,2650,-19,5
652,-18,5,2651,-19,5
653,-13,5,2652,-19,5
654,-5,5,2653,-19,5
655,8,5,2654,-19,5
656,26,5,2655,-19,5
657,50,5,2656,-19,5
658,79,5,2657,-19,5
659,113,5,2658,-19,5
660,142,5,2659,-19,5
661,142,5,2660,-19,5
662,142,5,2661,-19,5
663,142,5,2662,-19,5
664,142,5,2663,-19,5
665,142,5,2664,-19,5
666,142,5,2665,-19,5
667,142,5,2666,-19,5
668,142,5,2667,-19,5
669,138,5,2668,-19,5
670,96,5,2669,-19,5
671,60,5,2670,-19,5
672,30,5,2671,-19,5
673,4,5,2672,-19,5
674,-12,5,2673,-19,5
675,-19,5,2674,-19,5
676,-19,5,2675,-19,5
677,-19,5,2676,-19,5
678,-19,5,2677,-19,5
679,-19,5,2678,-19,5
680,-19,5,2679,-19,5
681,-19,5,2680,-19,5
682,-19,5,2681,-19,5
683,-19,5,2682,-17,5
684,-19,5,2683,-13,5
685,-19,5,2684,-1,5
686,-19,5,2685,16,5
687,-19,5,2686,37,5
688,-19,5,2687,67,5
689,-19,5,2688,98,5
690,-19,5,2689,130,5
691,-19,5,2690,142,5
692,-19,5,2691,142,5
693,-19,5,2692,142,5
694,-19,5,2693,142,5
695,-19,5,2694,142,5
696,-19,5,2695,142,5
697,-19,5,2696,142,5
698,-19,5,2697,142,5
699,-19,5,2698,142,5
700,-19,5,2699,112,5
701,-19,5,2700,71,5
702,-19,5,2701,36,5
703,-19,5,2702,9,5
704,-19,5,2703,-11,5
705,-19,5,2704,-19,5
706,-19,5,2705,-19,5
707,-19,5,2706,-19,5
708,-19,5,2707,-19,5
709,-19,5,2708,-19,5
710,-19,5,2709,-19,5
711,-19,5,2710,-19,5
712,-19,5,2711,-19,5
713,-19,5,2712,-19,5
714,-19,5,2713,-19,5
715,-19,5,2714,-19,5
716,-19,5,2715,-19,5
717,-19,5,2716,-19,5
718,-19,5,2717,-19,5
719,-19,5,2718,-19,5
720,-19,5,2719,-19,5
721,-19,5,2720,-19,5
722,-19,5,2721,-19,5
723,-19,5,2722,-19,5
724,-19,5,2723,-19,5
725,-19,5,2724,-19,5
726,-19,5,2725,-19,5
727,-19,5,2726,-19,5
728,-19,5,2727,-19,5
729,-19,5,2728,-19,5
730,-19,5,2729,-19,5
731,-19,5,2730,-19,5
732,-19,5,2731,-19,5
733,-19,5,2732,-19,5
734,-19,5,2733,-19,5
735,-19,5,2734,-19,5
736,-19,5,2735,-19,5
737,-19,5,2736,-19,5
738,-19,5,2737,-19,5
739,-19,5,2738,-19,5
740,-18,5,2739,-19,5
741,-18,5,2740,-19,5
742,-19,5,2741,-19,5
743,-19,5,2742,-19,5
744,-18,5,2743,-19,5
745,-18,5,2744,-19,5
746,-19,5,2745,-19,5
747,-18,5,2746,-19,5
748,-17,5,2747,-19,5
749,-18,5,2748,-19,5
750,-18,5,2749,-19,5
751,-19,5,2750,-19,5
752,-19,5,2751,-19,5
753,-17,5,2752,-19,5
754,-17,5,2753,-19,5
755,-16,5,2754,-19,5
756,-16,5,2755,-19,5
757,-16,5,2756,-19,5
758,-16,5,2757,-19,5
759,-16,5,2758,-19,5
760,-16,5,2759,-19,5
761,-16,5,2760,-19,5
762,-16,5,2761,-19,5
763,-16,5,2762,-19,5
764,-15,5,2763,-19,5
765,-13,5,2764,-19,5
766,-13,5,2765,-19,5
767,-12,5,2766,-19,5
768,-11,5,2767,-19,5
769,-9,5,2768,-19,5
770,-8,5,2769,-19,5
771,-8,5,2770,-19,5
772,-7,5,2771,-19,5
773,-6,5,2772,-19,5
774,-6,5,2773,-19,5
775,-6,5,2774,-18,5
776,-6,5,2775,-18,5
777,-4,5,2776,-19,5
778,-2,5,2777,-19,5
779,-1,5,2778,-19,5
780,0,5,2779,-19,5
781,0,5,2780,-18,5
782,1,5,2781,-19,5
783,3,5,2782,-19,5
784,5,5,2783,-18,5
785,5,5,2784,-18,5
786,5,5,2785,-17,5
787,5,5,2786,-15,5
788,7,5,2787,-14,5
789,7,5,2788,-14,5
790,8,5,2789,-15,5
791,9,5,2790,-14,5
792,11,5,2791,-14,5
793,13,5,2792,-14,5
794,15,5,2793,-13,5
795,16,5,2794,-12,5
796,18,5,2795,-10,5
797,18,5,2796,-8,5
798,19,5,2797,-8,5
799,20,5,2798,-7,5
800,21,5,2799,-5,5
801,21,5,2800,-2,5
802,21,5,2801,-2,5
803,22,5,2802,-2,5
804,23,5,2803,0,5
805,23,5,2804,0,5
806,24,5,2805,1,5
807,25,5,2806,1,5
808,24,5,2807,2,5
809,23,5,2808,3,5
810,23,5,2809,3,5
811,23,5,2810,3,5
812,24,5,2811,4,5
813,23,5,2812,5,5
814,23,5,2813,6,5
815,22,5,2814,8,5
816,21,5,2815,9,5
817,21,5,2816,10,5
818,21,5,2817,10,5
819,20,5,2818,11,5
820,19,5,2819,13,5
821,19,5,2820,15,5
822,17,5,2821,17,5
823,14,5,2822,19,5
824,13,5,2823,19,5
825,12,5,2824,20,5
826,10,5,2825,20,5
827,8,5,2826,21,5
828,8,5,2827,22,5
829,6,5,2828,22,5
830,3,5,2829,23,5
831,0,5,2830,25,5
832,-1,5,2831,24,5
833,-4,5,2832,25,5
834,-6,5,2833,26,5
835,-8,5,2834,26,5
836,-10,5,2835,26,5
837,-10,5,2836,27,5
838,-11,5,2837,28,5
839,-12,5,2838,28,5
840,-12,5,2839,29,5
841,-12,5,2840,29,5
842,-14,5,2841,29,5
843,-16,5,2842,29,5
844,-17,5,2843,29,5
845,-18,5,2844,28,5
846,-19,5,2845,27,5
847,-19,5,2846,26,5
848,-19,5,2847,26,5
849,-19,5,2848,24,5
850,-19,5,2849,20,5
851,-19,5,2850,17,5
852,-19,5,2851,15,5
853,-19,5,2852,14,5
854,-19,5,2853,12,5
855,-19,5,2854,11,5
856,-19,5,2855,10,5
857,-19,5,2856,8,5
858,-19,5,2857,6,5
859,-19,5,2858,5,5
860,-19,5,2859,4,5
861,-19,5,2860,2,5
862,-19,5,2861,1,5
863,-19,5,2862,0,5
864,-19,5,2863,-2,5
865,-19,5,2864,-4,5
866,-19,5,2865,-5,5
867,-19,5,2866,-6,5
868,-19,5,2867,-9,5
869,-19,5,2868,-12,5
870,-19,5,2869,-13,5
871,-19,5,2870,-12,5
872,-19,5,2871,-14,5
873,-19,5,2872,-15,5
874,-19,5,2873,-15,5
875,-19,5,2874,-16,5
876,-19,5,2875,-17,5
877,-19,5,2876,-17,5
878,-19,5,2877,-17,5
879,-19,5,2878,-17,5
880,-19,5,2879,-18,5
881,-19,5,2880,-19,5
882,-19,5,2881,-19,5
883,-19,5,2882,-19,5
884,-19,5,2883,-19,5
885,-19,5,2884,-19,5
886,-19,5,2885,-19,5
887,-19,5,2886,-19,5
888,-19,5,2887,-19,5
889,-19,5,2888,-19,5
890,-19,5,2889,-19,5
891,-19,5,2890,-19,5
892,-19,5,2891,-19,5
893,-19,5,2892,-19,5
894,-19,5,2893,-19,5
895,-19,5,2894,-19,5
896,-19,5,2895,-19,5
897,-19,5,2896,-19,5
898,-19,5,2897,-19,5
899,-19,5,2898,-19,5
900,-19,5,2899,-19,5
901,-19,5,2900,-19,5
902,-19,5,2901,-19,5
903,-19,5,2902,-19,5
904,-19,5,2903,-19,5
905,-19,5,2904,-19,5
906,-19,5,2905,-19,5
907,-19,5,2906,-19,5
908,-19,5,2907,-19,5
909,-19,5,2908,-19,5
910,-19,5,2909,-19,5
911,-19,5,2910,-19,5
912,-19,5,2911,-19,5
913,-19,5,2912,-19,5
914,-19,5,2913,-19,5
915,-19,5,2914,-19,5
916,-19,5,2915,-19,5
917,-19,5,2916,-19,5
918,-19,5,2917,-19,5
919,-19,5,2918,-19,5
920,-19,5,2919,-19,5
921,-19,5,2920,-19,5
922,-19,5,2921,-19,5
923,-19,5,2922,-19,5
924,-19,5,2923,-19,5
925,-19,5,2924,-19,5
926,-19,5,2925,-19,5
927,-19,5,2926,-19,5
928,-18,5,2927,-19,5
929,-18,5,2928,-19,5
930,-18,5,2929,-19,5
931,-18,5,2930,-19,5
932,-18,5,2931,-19,5
933,-18,5,2932,-19,5
934,-19,5,2933,-19,5
935,-19,5,2934,-19,5
936,-19,5,2935,-19,5
937,-19,5,2936,-19,5
938,-19,5,2937,-19,5
939,-19,5,2938,-19,5
940,-19,5,2939,-19,5
941,-19,5,2940,-18,5
942,-19,5,2941,-18,5
943,-19,5,2942,-17,5
944,-19,5,2943,-17,5
945,-19,5,2944,-17,5
946,-19,5,2945,-16,5
947,-19,5,2946,-17,5
948,-19,5,2947,-17,5
949,-19,5,2948,-17,5
950,-19,5,2949,-15,5
951,-19,5,2950,-14,5
952,-19,5,2951,-12,5
953,-19,5,2952,-12,5
954,-19,5,2953,-14,5
955,-19,5,2954,-15,5
956,-19,5,2955,-16,5
957,-19,5,2956,-15,5
958,-18,5,2957,-16,5
959,-18,5,2958,-17,5
960,-19,5,2959,-18,5
961,-19,5,2960,-17,5
962,-19,5,2961,-17,5
963,-19,5,2962,-16,5
964,-19,5,2963,-15,5
965,-19,5,2964,-15,5
966,-19,5,2965,-15,5
967,-19,5,2966,-15,5
968,-19,5,2967,-15,5
969,-19,5,2968,-16,5
970,-19,5,2969,-15,5
971,-19,5,2970,-15,5
972,-19,5,2971,-14,5
973,-19,5,2972,-15,5
974,-19,5,2973,-15,5
975,-19,5,2974,-15,5
976,-19,5,2975,-15,5
977,-19,5,2976,-15,5
978,-19,5,2977,-15,5
979,-19,5,2978,-15,5
980,-19,5,2979,-16,5
981,-19,5,2980,-17,5
982,-19,5,2981,-18,5
983,-19,5,2982,-19,5
984,-19,5,2983,-19,5
985,-19,5,2984,-19,5
986,-19,5,2985,-19,5
987,-19,5,2986,-19,5
988,-19,5,2987,-19,5
989,-19,5,2988,-19,5
990,-19,5,2989,-19,5
991,-19,5,2990,-18,5
992,-19,5,2991,-17,5
993,-19,5,2992,-16,5
994,-19,5,2993,-16,5
995,-19,5,2994,-17,5
996,-19,5,2995,-19,5
997,-19,5,2996,-19,5
998,-19,5,2997,-19,5
999,-19,5,2998,-19,5
1000,-19,5,2999,-19,5
1001,-19,5,3000,-19,5
1002,-19,5,3001,-19,5
1003,-19,5,3002,-19,5
1004,-19,5,3003,-19,5
1005,-19,5,3004,-19,5
1006,-19,5,3005,-19,5
1007,-19,5,3006,-19,5
1008,-19,5,3007,-19,5
1009,-19,5,3008,-19,5
1010,-19,5,3009,-19,5
1011,-18,5,3010,-19,5
1012,-18,5,3011,-19,5
1013,-18,5,3012,-19,5
1014,-19,5,3013,-19,5
1015,-19,5,3014,-19,5
1016,-19,5,3015,-19,5
1017,-19,5,3016,-19,5
1018,-19,5,3017,-19,5
1019,-19,5,3018,-19,5
1020,-19,5,3019,-19,5
1021,-19,5,3020,-19,5
1022,-19,5,3021,-19,5
1023,-19,5,3022,-19,5
1024,-19,5,3023,-19,5
1025,-19,5,3024,-19,5
1026,-19,5,3025,-19,5
1027,-19,5,3026,-19,5
1028,-19,5,3027,-19,5
1029,-19,5,3028,-18,5
1030,-19,5,3029,-18,5
1031,-19,5,3030,-19,5
1032,-19,5,3031,-19,5
1033,-19,5,3032,-19,5
1034,-19,5,3033,-19,5
1035,-19,5,3034,-19,5
1036,-19,5,3035,-19,5
1037,-19,5,3036,-19,5
1038,-19,5,3037,-19,5
1039,-19,5,3038,-19,5
1040,-19,5,3039,-19,5
1041,-19,5,3040,-19,5
1042,-19,5,3041,-19,5
1043,-19,5,3042,-19,5
1044,-19,5,3043,-19,5
1045,-19,5,3044,-19,5
1046,-19,5,3045,-19,5
1047,-19,5,3046,-19,5
1048,-19,5,3047,-19,5
1049,-19,5,3048,-19,5
1050,-19,5,3049,-19,5
1051,-19,5,3050,-19,5
1052,-19,5,3051,-19,5
1053,-19,5,3052,-19,5
1054,-19,5,3053,-19,5
1055,-19,5,3054,-19,5
1056,-19,5,3055,-19,5
1057,-19,5,3056,-19,5
1058,-19,5,3057,-19,5
1059,-19,5,3058,-19,5
1060,-18,5,3059,-19,5
1061,-17,5,3060,-19,5
1062,-16,5,3061,-19,5
1063,-16,5,3062,-19,5
1064,-16,5,3063,-19,5
1065,-16,5,3064,-19,5
1066,-16,5,3065,-19,5
1067,-17,5,3066,-19,5
1068,-17,5,3067,-19,5
1069,-16,5,3068,-19,5
1070,-17,5,3069,-19,5
1071,-18,5,3070,-19,5
1072,-19,5,3071,-19,5
1073,-19,5,3072,-19,5
1074,-19,5,3073,-19,5
1075,-19,5,3074,-19,5
1076,-19,5,3075,-19,5
1077,-18,5,3076,-19,5
1078,-17,5,3077,-19,5
1079,-17,5,3078,-19,5
1080,-16,5,3079,-19,5
1081,-15,5,3080,-19,5
1082,-13,5,3081,-19,5
1083,-11,5,3082,-19,5
1084,-11,5,3083,-19,5
1085,-11,5,3084,-19,5
1086,-12,5,3085,-19,5
1087,-12,5,3086,-19,5
1088,-12,5,3087,-19,5
1089,-11,5,3088,-19,5
1090,-11,5,3089,-19,5
1091,-11,5,3090,-19,5
1092,-10,5,3091,-19,5
1093,-8,5,3092,-19,5
1094,-7,5,3093,-19,5
1095,-5,5,3094,-19,5
1096,-1,5,3095,-19,5
1097,2,5,3096,-19,5
1098,4,5,3097,-19,5
1099,6,5,3098,-19,5
1100,7,5,3099,-19,5
1101,7,5,3100,-19,5
1102,6,5,3101,-19,5
1103,5,5,3102,-19,5
1104,3,5,3103,-19,5
1105,-1,5,3104,-19,5
1106,-4,5,3105,-19,5
1107,-5,5,3106,-19,5
1108,-5,5,3107,-19,5
1109,-5,5,3108,-19,5
1110,-7,5,3109,-19,5
1111,-8,5,3110,-19,5
1112,-9,5,3111,-19,5
1113,-10,5,3112,-19,5
1114,-10,5,3113,-19,5
1115,-12,5,3114,-19,5
1116,-11,5,3115,-19,5
1117,-11,5,3116,-19,5
1118,-11,5,3117,-19,5
1119,-12,5,3118,-18,5
1120,-12,5,3119,-18,5
1121,-12,5,3120,-17,5
1122,-13,5,3121,-17,5
1123,-14,5,3122,-18,5
1124,-16,5,3123,-18,5
1125,-16,5,3124,-18,5
1126,-17,5,3125,-18,5
1127,-17,5,3126,-19,5
1128,-17,5,3127,-19,5
1129,-16,5,3128,-17,5
1130,-16,5,3129,-17,5
1131,-16,5,3130,-16,5
1132,-17,5,3131,-15,5
1133,-17,5,3132,-13,5
1134,-17,5,3133,-14,5
1135,-17,5,3134,-14,5
1136,-17,5,3135,-13,5
1137,-17,5,3136,-13,5
1138,-17,5,3137,-13,5
1139,-17,5,3138,-14,5
1140,-17,5,3139,-15,5
1141,-17,5,3140,-16,5
1142,-17,5,3141,-15,5
1143,-17,5,3142,-14,5
1144,-19,5,3143,-13,5
1145,-19,5,3144,-14,5
1146,-19,5,3145,-14,5
1147,-18,5,3146,-13,5
1148,-17,5,3147,-12,5
1149,-17,5,3148,-11,5
1150,-17,5,3149,-10,5
1151,-16,5,3150,-9,5
1152,-16,5,3151,-9,5
1153,-14,5,3152,-9,5
1154,-12,5,3153,-10,5
1155,-10,5,3154,-12,5
1156,-8,5,3155,-12,5
1157,-5,5,3156,-13,5
1158,-2,5,3157,-15,5
1159,8,5,3158,-15,5
1160,25,5,3159,-17,5
1161,47,5,3160,-19,5
1162,74,5,3161,-19,5
1163,105,5,3162,-19,5
1164,137,5,3163,-19,5
1165,142,5,3164,-19,5
1166,142,5,3165,-19,5
1167,142,5,3166,-19,5
1168,142,5,3167,-19,5
1169,142,5,3168,-19,5
1170,142,5,3169,-19,5
1171,142,5,3170,-19,5
1172,142,5,3171,-19,5
1173,142,5,3172,-19,5
1174,116,5,3173,-19,5
1175,74,5,3174,-19,5
1176,40,5,3175,-19,5
1177,14,5,3176,-19,5
1178,-6,5,3177,-19,5
1179,-19,5,3178,-19,5
1180,-19,5,3179,-19,5
1181,-19,5,3180,-19,5
1182,-19,5,3181,-19,5
1183,-19,5,3182,-19,5
1184,-19,5,3183,-19,5
1185,-19,5,3184,-19,5
1186,-19,5,3185,-19,5
1187,-19,5,3186,-19,5
1188,-16,5,3187,-19,5
1189,-15,5,3188,-19,5
1190,-13,5,3189,-19,5
1191,-13,5,3190,-19,5
1192,-13,5,3191,-19,5
1193,-12,5,3192,-19,5
1194,-12,5,3193,-19,5
1195,-12,5,3194,-19,5
1196,-11,5,3195,-18,5
1197,-11,5,3196,-6,5
1198,-11,5,3197,8,5
1199,-10,5,3198,26,5
1200,-9,5,3199,51,5
1201,-9,5,3200,81,5
1202,-9,5,3201,114,5
1203,-9,5,3202,142,5
1204,-8,5,3203,142,5
1205,-8,5,3204,142,5
1206,-8,5,3205,142,5
1207,-8,5,3206,142,5
1208,-8,5,3207,142,5
1209,-8,5,3208,142,5
1210,-8,5,3209,142,5
1211,-7,5,3210,142,5
1212,-7,5,3211,141,5
1213,-8,5,3212,100,5
1214,-8,5,3213,64,5
1215,-7,5,3214,33,5
1216,-7,5,3215,9,5
1217,-7,5,3216,-8,5
1218,-7,5,3217,-19,5
1219,-7,5,3218,-19,5
1220,-7,5,3219,-19,5
1221,-7,5,3220,-19,5
1222,-8,5,3221,-19,5
1223,-8,5,3222,-19,5
1224,-7,5,3223,-19,5
1225,-6,5,3224,-19,5
1226,-6,5,3225,-19,5
1227,-5,5,3226,-19,5
1228,-5,5,3227,-19,5
1229,-5,5,3228,-19,5
1230,-3,5,3229,-19,5
1231,-3,5,3230,-19,5
1232,-4,5,3231,-19,5
1233,-4,5,3232,-19,5
1234,-5,5,3233,-19,5
1235,-4,5,3234,-19,5
1236,-3,5,3235,-19,5
1237,-2,5,3236,-19,5
1238,-1,5,3237,-19,5
1239,-3,5,3238,-19,5
1240,-5,5,3239,-19,5
1241,-5,5,3240,-19,5
1242,-5,5,3241,-19,5
1243,-4,5,3242,-19,5
1244,-3,5,3243,-19,5
1245,-3,5,3244,-19,5
1246,-3,5,3245,-19,5
1247,-4,5,3246,-19,5
1248,-4,5,3247,-19,5
1249,-4,5,3248,-19,5
1250,-3,5,3249,-19,5
1251,-3,5,3250,-19,5
1252,-3,5,3251,-19,5
1253,-3,5,3252,-19,5
1254,-3,5,3253,-19,5
1255,-2,5,3254,-19,5
1256,0,5,3255,-19,5
1257,0,5,3256,-19,5
1258,0,5,3257,-19,5
1259,0,5,3258,-19,5
1260,2,5,3259,-19,5
1261,4,5,3260,-19,5
1262,5,5,3261,-19,5
1263,5,5,3262,-19,5
1264,5,5,3263,-19,5
1265,3,5,3264,-19,5
1266,3,5,3265,-19,5
1267,4,5,3266,-19,5
1268,4,5,3267,-19,5
1269,4,5,3268,-19,5
1270,5,5,3269,-19,5
1271,6,5,3270,-19,5
1272,5,5,3271,-19,5
1273,5,5,3272,-19,5
1274,7,5,3273,-19,5
1275,9,5,3274,-19,5
1276,9,5,3275,-19,5
1277,10,5,3276,-19,5
1278,11,5,3277,-19,5
1279,11,5,3278,-19,5
1280,12,5,3279,-19,5
1281,13,5,3280,-19,5
1282,14,5,3281,-19,5
1283,15,5,3282,-19,5
1284,17,5,3283,-19,5
1285,17,5,3284,-19,5
1286,18,5,3285,-19,5
1287,19,5,3286,-19,5
1288,20,5,3287,-19,5
1289,22,5,3288,-19,5
1290,25,5,3289,-19,5
1291,27,5,3290,-19,5
1292,28,5,3291,-19,5
1293,29,5,3292,-19,5
1294,31,5,3293,-19,5
1295,32,5,3294,-19,5
1296,31,5,3295,-18,5
1297,33,5,3296,-18,5
1298,34,5,3297,-18,5
1299,35,5,3298,-17,5
1300,35,5,3299,-17,5
1301,36,5,3300,-16,5
1302,35,5,3301,-17,5
1303,35,5,3302,-18,5
1304,36,5,3303,-19,5
1305,37,5,3304,-18,5
1306,38,5,3305,-16,5
1307,40,5,3306,-15,5
1308,39,5,3307,-16,5
1309,40,5,3308,-16,5
1310,39,5,3309,-14,5
1311,39,5,3310,-12,5
1312,39,5,3311,-11,5
1313,39,5,3312,-11,5
1314,38,5,3313,-9,5
1315,37,5,3314,-8,5
1316,37,5,3315,-7,5
1317,38,5,3316,-7,5
1318,36,5,3317,-6,5
1319,36,5,3318,-5,5
1320,36,5,3319,-5,5
1321,36,5,3320,-5,5
1322,35,5,3321,-5,5
1323,35,5,3322,-4,5
1324,33,5,3323,-3,5
1325,31,5,3324,-2,5
1326,29,5,3325,-1,5
1327,27,5,3326,0,5
1328,24,5,3327,1,5
1329,22,5,3328,3,5
1330,20,5,3329,4,5
1331,19,5,3330,4,5
1332,20,5,3331,5,5
1333,18,5,3332,6,5
1334,16,5,3333,8,5
1335,13,5,3334,10,5
1336,12,5,3335,13,5
1337,10,5,3336,14,5
1338,8,5,3337,16,5
1339,6,5,3338,17,5
1340,5,5,3339,17,5
1341,5,5,3340,19,5
1342,2,5,3341,20,5
1343,0,5,3342,21,5
1344,-1,5,3343,22,5
1345,-2,5,3344,22,5
1346,-3,5,3345,23,5
1347,-4,5,3346,24,5
1348,-6,5,3347,24,5
1349,-8,5,3348,24,5
1350,-9,5,3349,24,5
1351,-9,5,3350,24,5
1352,-9,5,3351,24,5
1353,-10,5,3352,24,5
1354,-10,5,3353,26,5
1355,-12,5,3354,25,5
1356,-14,5,3355,24,5
1357,-15,5,3356,23,5
1358,-14,5,3357,23,5
1359,-14,5,3358,23,5
1360,-13,5,3359,22,5
1361,-14,5,3360,22,5
1362,-14,5,3361,20,5
1363,-15,5,3362,18,5
1364,-15,5,3363,16,5
1365,-15,5,3364,15,5
1366,-16,5,3365,13,5
1367,-17,5,3366,11,5
1368,-18,5,3367,10,5
1369,-19,5,3368,7,5
1370,-19,5,3369,4,5
1371,-19,5,3370,3,5
1372,-19,5,3371,2,5
1373,-19,5,3372,1,5
1374,-19,5,3373,1,5
1375,-19,5,3374,0,5
1376,-19,5,3375,-2,5
1377,-19,5,3376,-5,5
1378,-18,5,3377,-9,5
1379,-18,5,3378,-10,5
1380,-19,5,3379,-11,5
1381,-18,5,3380,-13,5
1382,-18,5,3381,-13,5
1383,-18,5,3382,-15,5
1384,-17,5,3383,-17,5
1385,-18,5,3384,-17,5
1386,-19,5,3385,-17,5
1387,-19,5,3386,-18,5
1388,-19,5,3387,-19,5
1389,-19,5,3388,-19,5
1390,-19,5,3389,-19,5
1391,-18,5,3390,-19,5
1392,-18,5,3391,-19,5
1393,-18,5,3392,-19,5
1394,-19,5,3393,-19,5
1395,-18,5,3394,-19,5
1396,-17,5,3395,-19,5
1397,-18,5,3396,-19,5
1398,-17,5,3397,-19,5
1399,-16,5,3398,-19,5
1400,-16,5,3399,-19,5
1401,-16,5,3400,-19,5
1402,-17,5,3401,-19,5
1403,-17,5,3402,-19,5
1404,-16,5,3403,-19,5
1405,-14,5,3404,-19,5
1406,-14,5,3405,-19,5
1407,-15,5,3406,-19,5
1408,-14,5,3407,-19,5
1409,-14,5,3408,-19,5
1410,-13,5,3409,-19,5
1411,-13,5,3410,-19,5
1412,-12,5,3411,-19,5
1413,-11,5,3412,-19,5
1414,-10,5,3413,-19,5
1415,-10,5,3414,-19,5
1416,-11,5,3415,-19,5
1417,-12,5,3416,-19,5
1418,-11,5,3417,-19,5
1419,-11,5,3418,-19,5
1420,-11,5,3419,-19,5
1421,-10,5,3420,-19,5
1422,-10,5,3421,-19,5
1423,-10,5,3422,-19,5
1424,-9,5,3423,-19,5
1425,-8,5,3424,-19,5
1426,-7,5,3425,-19,5
1427,-7,5,3426,-19,5
1428,-5,5,3427,-19,5
1429,-5,5,3428,-19,5
1430,-5,5,3429,-19,5
1431,-7,5,3430,-19,5
1432,-7,5,3431,-19,5
1433,-7,5,3432,-19,5
1434,-8,5,3433,-19,5
1435,-10,5,3434,-19,5
1436,-11,5,3435,-19,5
1437,-10,5,3436,-19,5
1438,-9,5,3437,-19,5
1439,-9,5,3438,-19,5
1440,-8,5,3439,-19,5
1441,-7,5,3440,-19,5
1442,-7,5,3441,-19,5
1443,-7,5,3442,-19,5
1444,-7,5,3443,-19,5
1445,-9,5,3444,-19,5
1446,-11,5,3445,-19,5
1447,-11,5,3446,-19,5
1448,-10,5,3447,-19,5
1449,-9,5,3448,-19,5
1450,-9,5,3449,-19,5
1451,-9,5,3450,-19,5
1452,-9,5,3451,-19,5
1453,-10,5,3452,-19,5
1454,-11,5,3453,-19,5
1455,-12,5,3454,-19,5
1456,-12,5,3455,-19,5
1457,-12,5,3456,-19,5
1458,-11,5,3457,-19,5
1459,-11,5,3458,-19,5
1460,-13,5,3459,-19,5
1461,-14,5,3460,-19,5
1462,-14,5,3461,-19,5
1463,-15,5,3462,-19,5
1464,-14,5,3463,-19,5
1465,-14,5,3464,-19,5
1466,-14,5,3465,-19,5
1467,-13,5,3466,-19,5
1468,-13,5,3467,-19,5
1469,-13,5,3468,-19,5
1470,-14,5,3469,-19,5
1471,-15,5,3470,-19,5
1472,-15,5,3471,-19,5
1473,-15,5,3472,-19,5
1474,-15,5,3473,-19,5
1475,-14,5,3474,-19,5
1476,-14,5,3475,-19,5
1477,-14,5,3476,-19,5
1478,-15,5,3477,-19,5
1479,-14,5,3478,-19,5
1480,-12,5,3479,-19,5
1481,-12,5,3480,-19,5
1482,-12,5,3481,-19,5
1483,-13,5,3482,-19,5
1484,-13,5,3483,-19,5
1485,-16,5,3484,-19,5
1486,-16,5,3485,-19,5
1487,-17,5,3486,-19,5
1488,-17,5,3487,-19,5
1489,-17,5,3488,-19,5
1490,-17,5,3489,-19,5
1491,-17,5,3490,-19,5
1492,-18,5,3491,-19,5
1493,-18,5,3492,-19,5
1494,-17,5,3493,-19,5
1495,-17,5,3494,-19,5
1496,-18,5,3495,-19,5
1497,-19,5,3496,-19,5
1498,-19,5,3497,-19,5
1499,-17,5,3498,-19,5
1500,-16,5,3499,-19,5
1501,-16,5,3500,-19,5
1502,-17,5,3501,-19,5
1503,-18,5,3502,-19,5
1504,-17,5,3503,-19,5
1505,-16,5,3504,-19,5
1506,-16,5,3505,-19,5
1507,-17,5,3506,-19,5
1508,-17,5,3507,-19,5
1509,-18,5,3508,-19,5
1510,-18,5,3509,-19,5
1511,-19,5,3510,-19,5
1512,-19,5,3511,-19,5
1513,-19,5,3512,-19,5
1514,-19,5,3513,-19,5
1515,-19,5,3514,-19,5
1516,-19,5,3515,-19,5
1517,-19,5,3516,-19,5
1518,-19,5,3517,-19,5
1519,-19,5,3518,-19,5
1520,-18,5,3519,-19,5
1521,-18,5,3520,-19,5
1522,-18,5,3521,-19,5
1523,-19,5,3522,-19,5
1524,-19,5,3523,-19,5
1525,-19,5,3524,-19,5
1526,-19,5,3525,-19,5
1527,-19,5,3526,-19,5
1528,-19,5,3527,-19,5
1529,-19,5,3528,-19,5
1530,-19,5,3529,-19,5
1531,-19,5,3530,-19,5
1532,-19,5,3531,-19,5
1533,-19,5,3532,-19,5
1534,-19,5,3533,-19,5
1535,-19,5,3534,-19,5
1536,-19,5,3535,-19,5
1537,-19,5,3536,-19,5
1538,-19,5,3537,-19,5
1539,-19,5,3538,-19,5
1540,-19,5,3539,-19,5
1541,-19,5,3540,-19,5
1542,-19,5,3541,-19,5
1543,-19,5,3542,-19,5
1544,-19,5,3543,-19,5
1545,-19,5,3544,-19,5
1546,-19,5,3545,-19,5
1547,-19,5,3546,-19,5
1548,-19,5,3547,-19,5
1549,-19,5,3548,-19,5
1550,-19,5,3549,-19,5
1551,-19,5,3550,-19,5
1552,-19,5,3551,-19,5
1553,-19,5,3552,-19,5
1554,-19,5,3553,-19,5
1555,-19,5,3554,-19,5
1556,-19,5,3555,-19,5
1557,-19,5,3556,-19,5
1558,-19,5,3557,-19,5
1559,-19,5,3558,-19,5
1560,-19,5,3559,-19,5
1561,-19,5,3560,-19,5
1562,-19,5,3561,-19,5
1563,-19,5,3562,-19,5
1564,-19,5,3563,-19,5
1565,-19,5,3564,-19,5
1566,-19,5,3565,-19,5
1567,-19,5,3566,-19,5
1568,-19,5,3567,-19,5
1569,-19,5,3568,-19,5
1570,-19,5,3569,-19,5
1571,-19,5,3570,-19,5
1572,-19,5,3571,-19,5
1573,-19,5,3572,-19,5
1574,-19,5,3573,-19,5
1575,-19,5,3574,-19,5
1576,-19,5,3575,-19,5
1577,-19,5,3576,-19,5
1578,-19,5,3577,-19,5
1579,-19,5,3578,-19,5
1580,-19,5,3579,-19,5
1581,-19,5,3580,-19,5
1582,-19,5,3581,-19,5
1583,-19,5,3582,-19,5
1584,-17,5,3583,-19,5
1585,-16,5,3584,-19,5
1586,-15,5,3585,-19,5
1587,-16,5,3586,-19,5
1588,-17,5,3587,-19,5
1589,-19,5,3588,-19,5
1590,-18,5,3589,-19,5
1591,-18,5,3590,-19,5
1592,-17,5,3591,-19,5
1593,-17,5,3592,-19,5
1594,-18,5,3593,-19,5
1595,-19,5,3594,-19,5
1596,-18,5,3595,-19,5
1597,-16,5,3596,-19,5
1598,-15,5,3597,-19,5
1599,-16,5,3598,-19,5
1600,-16,5,3599,-19,5
1601,-16,5,3600,-19,5
1602,-16,5,3601,-19,5
1603,-15,5,3602,-19,5
1604,-15,5,3603,-19,5
1605,-14,5,3604,-19,5
1606,-12,5,3605,-19,5
1607,-12,5,3606,-19,5
1608,-11,5,3607,-19,5
1609,-10,5,3608,-19,5
1610,-8,5,3609,-19,5
1611,-6,5,3610,-19,5
1612,-6,5,3611,-19,5
1613,-7,5,3612,-19,5
1614,-8,5,3613,-19,5
1615,-8,5,3614,-19,5
1616,-9,5,3615,-19,5
1617,-10,5,3616,-19,5
1618,-10,5,3617,-19,5
1619,-11,5,3618,-19,5
1620,-13,5,3619,-19,5
1621,-15,5,3620,-19,5
1622,-16,5,3621,-19,5
1623,-17,5,3622,-19,5
1624,-19,5,3623,-19,5
1625,-19,5,3624,-19,5
1626,-19,5,3625,-19,5
1627,-19,5,3626,-19,5
1628,-19,5,3627,-19,5
1629,-19,5,3628,-19,5
1630,-19,5,3629,-19,5
1631,-19,5,3630,-19,5
1632,-19,5,3631,-19,5
1633,-19,5,3632,-19,5
1634,-19,5,3633,-19,5
1635,-19,5,3634,-19,5
1636,-19,5,3635,-19,5
1637,-19,5,3636,-19,5
1638,-19,5,3637,-19,5
1639,-19,5,3638,-19,5
1640,-19,5,3639,-19,5
1641,-19,5,3640,-19,5
1642,-19,5,3641,-19,5
1643,-19,5,3642,-19,5
1644,-19,5,3643,-19,5
1645,-19,5,3644,-19,5
1646,-19,5,3645,-19,5
1647,-19,5,3646,-19,5
1648,-19,5,3647,-19,5
1649,-19,5,3648,-19,5
1650,-19,5,3649,-19,5
1651,-19,5,3650,-19,5
1652,-19,5,3651,-19,5
1653,-19,5,3652,-19,5
1654,-19,5,3653,-19,5
1655,-19,5,3654,-19,5
1656,-19,5,3655,-19,5
1657,-19,5,3656,-19,5
1658,-17,5,3657,-19,5
1659,-14,5,3658,-19,5
1660,-5,5,3659,-17,5
1661,10,5,3660,-15,5
1662,29,5,3661,-13,5
1663,53,5,3662,-13,5
1664,83,5,3663,-13,5
1665,115,5,3664,-13,5
1666,142,5,3665,-12,5
1667,142,5,3666,-11,5
1668,142,5,3667,-12,5
1669,142,5,3668,-12,5
1670,142,5,3669,-14,5
1671,142,5,3670,-16,5
1672,142,5,3671,-18,5
1673,142,5,3672,-19,5
1674,142,5,3673,-19,5
1675,142,5,3674,-19,5
1676,104,5,3675,-19,5
1677,66,5,3676,-19,5
1678,33,5,3677,-19,5
1679,8,5,3678,-19,5
1680,-10,5,3679,-19,5
1681,-19,5,3680,-19,5
1682,-19,5,3681,-19,5
1683,-19,5,3682,-19,5
1684,-19,5,3683,-19,5
1685,-19,5,3684,-19,5
1686,-19,5,3685,-19,5
1687,-19,5,3686,-19,5
1688,-19,5,3687,-19,5
1689,-19,5,3688,-19,5
1690,-19,5,3689,-19,5
1691,-19,5,3690,-19,5
1692,-19,5,3691,-19,5
1693,-19,5,3692,-19,5
1694,-19,5,3693,-19,5
1695,-19,5,3694,-19,5
1696,-19,5,3695,-19,5
1697,-19,5,3696,-19,5
1698,-19,5,3697,-19,5
1699,-19,5,3698,-19,5
1700,-19,5,3699,-19,5
1701,-19,5,3700,-19,5
1702,-19,5,3701,-19,5
1703,-19,5,3702,-19,5
1704,-19,5,3703,-19,5
1705,-19,5,3704,-19,5
1706,-19,5,3705,-19,5
1707,-19,5,3706,-19,5
1708,-19,5,3707,-19,5
1709,-19,5,3708,-19,5
1710,-19,5,3709,-17,5
1711,-19,5,3710,-15,5
1712,-19,5,3711,-6,5
1713,-19,5,3712,12,5
1714,-19,5,3713,35,5
1715,-19,5,3714,62,5
1716,-19,5,3715,91,5
1717,-19,5,3716,123,5
1718,-19,5,3717,142,5
1719,-18,5,3718,142,5
1720,-18,5,3719,142,5
1721,-18,5,3720,142,5
1722,-19,5,3721,142,5
1723,-18,5,3722,142,5
1724,-18,5,3723,142,5
1725,-19,5,3724,142,5
1726,-18,5,3725,142,5
1727,-18,5,3726,132,5
1728,-19,5,3727,89,5
1729,-19,5,3728,52,5
1730,-19,5,3729,23,5
1731,-19,5,3730,2,5
1732,-19,5,3731,-14,5
1733,-19,5,3732,-19,5
1734,-19,5,3733,-19,5
1735,-19,5,3734,-19,5
1736,-19,5,3735,-19,5
1737,-19,5,3736,-19,5
1738,-19,5,3737,-19,5
1739,-19,5,3738,-19,5
1740,-19,5,3739,-19,5
1741,-19,5,3740,-19,5
1742,-18,5,3741,-19,5
1743,-17,5,3742,-19,5
1744,-18,5,3743,-19,5
1745,-19,5,3744,-18,5
1746,-19,5,3745,-18,5
1747,-19,5,3746,-17,5
1748,-19,5,3747,-16,5
1749,-19,5,3748,-15,5
1750,-19,5,3749,-14,5
1751,-19,5,3750,-13,5
1752,-17,5,3751,-14,5
1753,-16,5,3752,-14,5
1754,-17,5,3753,-15,5
1755,-17,5,3754,-14,5
1756,-18,5,3755,-13,5
1757,-18,5,3756,-13,5
1758,-19,5,3757,-14,5
1759,-18,5,3758,-15,5
1760,-17,5,3759,-16,5
1761,-17,5,3760,-16,5
1762,-17,5,3761,-14,5
1763,-16,5,3762,-13,5
1764,-15,5,3763,-13,5
1765,-14,5,3764,-13,5
1766,-13,5,3765,-14,5
1767,-12,5,3766,-14,5
1768,-11,5,3767,-14,5
1769,-10,5,3768,-13,5
1770,-9,5,3769,-11,5
1771,-9,5,3770,-10,5
1772,-9,5,3771,-10,5
1773,-9,5,3772,-11,5
1774,-7,5,3773,-11,5
1775,-7,5,3774,-11,5
1776,-8,5,3775,-9,5
1777,-8,5,3776,-8,5
1778,-6,5,3777,-8,5
1779,-5,5,3778,-8,5
1780,-4,5,3779,-8,5
1781,-3,5,3780,-8,5
1782,-2,5,3781,-9,5
1783,-1,5,3782,-11,5
1784,0,5,3783,-12,5
1785,0,5,3784,-11,5
1786,2,5,3785,-10,5
1787,2,5,3786,-10,5
1788,2,5,3787,-9,5
1789,3,5,3788,-8,5
1790,5,5,3789,-8,5
1791,7,5,3790,-7,5
1792,8,5,3791,-7,5
1793,10,5,3792,-6,5
1794,12,5,3793,-7,5
1795,13,5,3794,-7,5
1796,13,5,3795,-9,5
1797,14,5,3796,-9,5
1798,15,5,3797,-9,5
1799,16,5,3798,-8,5
1800,18,5,3799,-8,5
1801,20,5,3800,-8,5
1802,21,5,3801,-7,5
1803,21,5,3802,-7,5
1804,22,5,3803,-8,5
1805,23,5,3804,-6,5
1806,24,5,3805,-5,5
1807,25,5,3806,-4,5
1808,26,5,3807,-5,5
1809,27,5,3808,-6,5
1810,28,5,3809,-5,5
1811,30,5,3810,-3,5
1812,28,5,3811,-1,5
1813,26,5,3812,-1,5
1814,26,5,3813,-2,5
1815,26,5,3814,-3,5
1816,26,5,3815,-2,5
1817,27,5,3816,-1,5
1818,26,5,3817,0,5
1819,27,5,3818,1,5
1820,25,5,3819,2,5
1821,24,5,3820,4,5
1822,23,5,3821,5,5
1823,23,5,3822,5,5
1824,23,5,3823,6,5
1825,22,5,3824,5,5
1826,20,5,3825,6,5
1827,18,5,3826,7,5
1828,16,5,3827,8,5
1829,15,5,3828,7,5
1830,14,5,3829,8,5
1831,13,5,3830,9,5
1832,12,5,3831,11,5
1833,9,5,3832,13,5
1834,7,5,3833,15,5
1835,6,5,3834,15,5
1836,4,5,3835,13,5
1837,2,5,3836,13,5
1838,0,5,3837,15,5
1839,-2,5,3838,16,5
1840,-4,5,3839,18,5
1841,-5,5,3840,19,5
1842,-6,5,3841,22,5
1843,-7,5,3842,24,5
1844,-9,5,3843,26,5
1845,-12,5,3844,27,5
1846,-14,5,3845,29,5
1847,-13,5,3846,29,5
1848,-13,5,3847,29,5
1849,-14,5,3848,30,5
1850,-14,5,3849,31,5
1851,-15,5,3850,31,5
1852,-17,5,3851,33,5
1853,-18,5,3852,34,5
1854,-19,5,3853,36,5
1855,-19,5,3854,39,5
1856,-19,5,3855,41,5
1857,-19,5,3856,41,5
1858,-19,5,3857,42,5
1859,-19,5,3858,42,5
1860,-19,5,3859,42,5
1861,-19,5,3860,42,5
1862,-19,5,3861,42,5
1863,-19,5,3862,43,5
1864,-19,5,3863,43,5
1865,-19,5,3864,43,5
1866,-19,5,3865,44,5
1867,-19,5,3866,43,5
1868,-19,5,3867,43,5
1869,-19,5,3868,43,5
1870,-19,5,3869,42,5
1871,-19,5,3870,41,5
1872,-19,5,3871,42,5
1873,-19,5,3872,40,5
1874,-19,5,3873,40,5
1875,-19,5,3874,40,5
1876,-19,5,3875,39,5
1877,-19,5,3876,39,5
1878,-19,5,3877,38,5
1879,-19,5,3878,35,5
1880,-19,5,3879,33,5
1881,-19,5,3880,31,5
1882,-19,5,3881,30,5
1883,-19,5,3882,27,5
1884,-19,5,3883,26,5
1885,-19,5,3884,25,5
1886,-19,5,3885,23,5
1887,-19,5,3886,20,5
1888,-19,5,3887,18,5
1889,-19,5,3888,16,5
1890,-19,5,3889,14,5
1891,-19,5,3890,12,5
1892,-19,5,3891,11,5
1893,-19,5,3892,11,5
1894,-19,5,3893,9,5
1895,-19,5,3894,7,5
1896,-19,5,3895,4,5
1897,-19,5,3896,1,5
1898,-19,5,3897,0,5
1899,-19,5,3898,0,5
1900,-19,5,3899,-1,5
1901,-19,5,3900,-3,5
1902,-19,5,3901,-4,5
1903,-19,5,3902,-4,5
1904,-19,5,3903,-5,5
1905,-19,5,3904,-4,5
1906,-19,5,3905,-3,5
1907,-19,5,3906,-3,5
1908,-19,5,3907,-3,5
1909,-19,5,3908,-5,5
1910,-19,5,3909,-6,5
1911,-19,5,3910,-7,5
1912,-19,5,3911,-7,5
1913,-19,5,3912,-7,5
1914,-19,5,3913,-8,5
1915,-19,5,3914,-9,5
1916,-19,5,3915,-9,5
1917,-19,5,3916,-10,5
1918,-19,5,3917,-11,5
1919,-19,5,3918,-11,5
1920,-19,5,3919,-11,5
1921,-19,5,3920,-11,5
1922,-19,5,3921,-10,5
1923,-19,5,3922,-10,5
1924,-19,5,3923,-12,5
1925,-19,5,3924,-13,5
1926,-18,5,3925,-13,5
1927,-17,5,3926,-14,5
1928,-17,5,3927,-14,5
1929,-17,5,3928,-15,5
1930,-16,5,3929,-15,5
1931,-16,5,3930,-15,5
1932,-16,5,3931,-15,5
1933,-18,5,3932,-15,5
1934,-19,5,3933,-15,5
1935,-19,5,3934,-15,5
1936,-19,5,3935,-15,5
1937,-19,5,3936,-14,5
1938,-18,5,3937,-15,5
1939,-17,5,3938,-15,5
1940,-17,5,3939,-16,5
1941,-17,5,3940,-15,5
1942,-16,5,3941,-13,5
1943,-14,5,3942,-13,5
1944,-14,5,3943,-14,5
1945,-15,5,3944,-15,5
1946,-16,5,3945,-15,5
1947,-16,5,3946,-14,5
1948,-17,5,3947,-14,5
1949,-16,5,3948,-13,5
1950,-14,5,3949,-13,5
1951,-14,5,3950,-13,5
1952,-13,5,3951,-15,5
1953,-16,5,3952,-15,5
1954,-18,5,3953,-14,5
1955,-18,5,3954,-13,5
1956,-18,5,3955,-12,5
1957,-18,5,3956,-12,5
1958,-18,5,3957,-12,5
1959,-18,5,3958,-11,5
1960,-18,5,3959,-10,5
1961,-19,5,3960,-10,5
1962,-19,5,3961,-10,5
1963,-19,5,3962,-9,5
1964,-18,5,3963,-8,5
1965,-17,5,3964,-8,5
1966,-16,5,3965,-9,5
1967,-17,5,3966,-8,5
1968,-18,5,3967,-7,5
1969,-18,5,3968,-6,5
1970,-17,5,3969,-6,5
1971,-17,5,3970,-6,5
1972,-18,5,3971,-6,5
1973,-18,5,3972,-7,5
1974,-19,5,3973,-8,5
1975,-19,5,3974,-7,5
1976,-19,5,3975,-6,5
1977,-19,5,3976,-5,5
1978,-19,5,3977,-5,5
1979,-19,5,3978,-5,5
1980,-19,5,3979,-5,5
1981,-19,5,3980,-4,5
1982,-18,5,3981,-4,5
1983,-18,5,3982,-3,5
1984,-19,5,3983,-3,5
1985,-19,5,3984,-4,5
1986,-19,5,3985,-4,5
1987,-19,5,3986,-4,5
1988,-19,5,3987,-4,5
1989,-19,5,3988,-3,5
1990,-19,5,3989,-2,5
1991,-19,5,3990,-2,5
1992,-19,5,3991,-3,5
1993,-19,5,3992,-6,5
1994,-19,5,3993,-6,5
1995,-19,5,3994,-6,5
1996,-19,5,3995,-5,5
1997,-19,5,3996,-4,5
1998,-19,5,3997,-4,5
1999,-19,5,3998,-5,5
2000,-19,5,3999,-6,5
2001,-19,5,4000,-7,5
2002,-19,5,4001,-6,5
2003,-19,5,4002,-6,5
2004,-19,5,4003,-6,5
2005,-19,5,4004,-6,5
2006,-19,5,4005,-8,5
2007,-19,5,4006,-8,5
2008,-19,5,4007,-9,5
2009,-19,5,4008,-9,5
2010,-19,5,4009,-8,5
2011,-19,5,4010,-8,5
2012,-19,5,4011,-7,5
2013,-19,5,4012,-7,5
2014,-19,5,4013,-7,5
2015,-19,5,4014,-9,5
2016,-19,5,4015,-10,5
2017,-19,5,4016,-10,5
2018,-19,5,4017,-9,5
2019,-19,5,4018,-9,5
2020,-19,5,4019,-9,5
2021,-19,5,4020,-9,5
2022,-19,5,4021,-10,5
2023,-19,5,4022,-9,5
2024,-19,5,4023,-9,5
2025,-19,5,4024,-10,5
2026,-19,5,4025,-11,5
2027,-19,5,4026,-13,5
2028,-19,5,4027,-13,5
2029,-19,5,4028,-13,5
2030,-19,5,4029,-12,5
2031,-18,5,4030,-11,5
2032,-18,5,4031,-11,5
2033,-18,5,4032,-11,5
2034,-19,5,4033,-11,5
2035,-19,5,4034,-10,5
2036,-18,5,4035,-10,5
2037,-17,5,4036,-12,5
2038,-19,5,4037,-13,5
2039,-19,5,4038,-15,5
2040,-19,5,4039,-15,5
2041,-19,5,4040,-15,5
2042,-19,5,4041,-14,5
2043,-19,5,4042,-14,5
2044,-19,5,4043,-14,5
2045,-19,5,4044,-14,5
2046,-19,5,4045,-13,5
2047,-19,5,4046,-13,5
2048,-19,5,4047,-13,5
2049,-19,5,4048,-14,5
2050,-19,5,4049,-14,5
2051,-19,5,4050,-14,5
2052,-19,5,4051,-13,5
2053,-19,5,4052,-13,5
2054,-19,5,4053,-13,5
2055,-19,5,4054,-12,5
2056,-19,5,4055,-13,5
2057,-19,5,4056,-14,5
2058,-19,5,4057,-14,5
2059,-19,5,4058,-14,5
2060,-19,5,4059,-13,5
2061,-19,5,4060,-14,5
2062,-19,5,4061,-14,5
2063,-19,5,4062,-13,5
2064,-19,5,4063,-13,5
2065,-19,5,4064,-13,5
2066,-19,5,4065,-12,5
2067,-19,5,4066,-11,5
2068,-19,5,4067,-11,5
2069,-19,5,4068,-12,5
2070,-19,5,4069,-13,5
2071,-19,5,4070,-14,5
2072,-17,5,4071,-16,5
2073,-17,5,4072,-18,5
2074,-17,5,4073,-18,5
2075,-19,5,4074,-18,5
2076,-19,5,4075,-17,5
2077,-18,5,4076,-17,5
2078,-18,5,4077,-18,5
2079,-18,5,4078,-18,5
2080,-18,5,4079,-17,5
2081,-17,5,4080,-17,5
2082,-18,5,4081,-16,5
2083,-18,5,4082,-15,5
2084,-18,5,4083,-15,5
2085,-18,5,4084,-15,5
2086,-18,5,4085,-15,5
2087,-18,5,4086,-15,5
2088,-18,5,4087,-15,5
2089,-19,5,4088,-14,5
2090,-19,5,4089,-14,5
2091,-19,5,4090,-14,5
2092,-19,5,4091,-14,5
2093,-19,5,4092,-14,5
2094,-19,5,4093,-13,5
2095,-19,5,4094,-13,5
2096,-19,5,4095,-13,5
2097,-18,5,4096,-14,5
2098,-18,5,4097,-16,5
2099,-19,5,4098,-17,5
2100,-19,5,4099,-17,5
2101,-19,5,4100,-18,5
2102,-18,5,4101,-18,5
2103,-17,5,4102,-18,5
2104,-16,5,4103,-18,5
2105,-16,5,4104,-16,5
2106,-17,5,4105,-17,5
2107,-16,5,4106,-17,5
2108,-15,5,4107,-17,5
2109,-15,5,4108,-16,5
2110,-14,5,4109,-13,5
2111,-14,5,4110,-12,5
2112,-14,5,4111,-14,5
2113,-13,5,4112,-16,5
2114,-12,5,4113,-18,5
2115,-12,5,4114,-19,5
2116,-13,5,4115,-18,5
2117,-13,5,4116,-18,5
2118,-13,5,4117,-19,5
2119,-13,5,4118,-19,5
2120,-12,5,4119,-18,5
2121,-11,5,4120,-17,5
2122,-10,5,4121,-16,5
2123,-11,5,4122,-16,5
2124,-11,5,4123,-16,5
2125,-11,5,4124,-16,5
2126,-10,5,4125,-16,5
2127,-8,5,4126,-16,5
2128,-7,5,4127,-16,5
2129,-6,5,4128,-17,5
2130,-6,5,4129,-18,5
2131,-6,5,4130,-17,5
2132,-7,5,4131,-16,5
2133,-7,5,4132,-15,5
2134,-8,5,4133,-13,5
2135,-10,5,4134,-12,5
2136,-11,5,4135,-11,5
2137,-14,5,4136,-12,5
2138,-17,5,4137,-12,5
2139,-18,5,4138,-13,5
2140,-19,5,4139,-12,5
2141,-19,5,4140,-11,5
2142,-19,5,4141,-12,5
2143,-19,5,4142,-11,5
2144,-19,5,4143,-11,5
2145,-19,5,4144,-11,5
2146,-19,5,4145,-11,5
2147,-19,5,4146,-12,5
2148,-19,5,4147,-14,5
2149,-19,5,4148,-14,5
2150,-19,5,4149,-13,5
2151,-19,5,4150,-13,5
2152,-19,5,4151,-12,5
2153,-19,5,4152,-12,5
2154,-19,5,4153,-11,5
2155,-19,5,4154,-10,5
2156,-19,5,4155,-9,5
2157,-19,5,4156,-9,5
2158,-19,5,4157,-8,5
2159,-19,5,4158,-7,5
2160,-19,5,4159,-7,5
2161,-19,5,4160,-8,5
2162,-19,5,4161,-7,5
2163,-19,5,4162,-7,5
2164,-19,5,4163,-7,5
2165,-19,5,4164,-7,5
2166,-19,5,4165,-5,5
2167,-19,5,4166,-5,5
2168,-19,5,4167,-3,5
2169,-19,5,4168,-2,5
2170,-19,5,4169,-3,5
2171,-19,5,4170,-3,5
2172,-19,5,4171,-2,5
2173,-17,5,4172,-2,5
2174,-15,5,4173,-2,5
2175,-11,5,4174,-3,5
2176,-2,5,4175,-5,5
2177,12,5,4176,-7,5
2178,29,5,4177,-11,5
2179,53,5,4178,-14,5
2180,83,5,4179,-16,5
2181,116,5,4180,-18,5
2182,142,5,4181,-19,5
2183,142,5,4182,-19,5
2184,142,5,4183,-19,5
2185,142,5,4184,-19,5
2186,142,5,4185,-19,5
2187,142,5,4186,-19,5
2188,142,5,4187,-19,5
2189,142,5,4188,-19,5
2190,142,5,4189,-19,5
2191,142,5,4190,-19,5
2192,103,5,4191,-19,5
2193,66,5,4192,-19,5
2194,34,5,4193,-19,5
2195,8,5,4194,-19,5
2196,-9,5,4195,-19,5
2197,-19,5,4196,-19,5
2198,-19,5,4197,-19,5
2199,-19,5,4198,-19,5
2200,-19,5,4199,-19,5
2201,-19,5,4200,-19,5
2202,-19,5,4201,-19,5
2203,-19,5,4202,-19,5
2204,-19,5,4203,-19,5
2205,-19,5,4204,-19,5
2206,-19,5,4205,-19,5
2207,-19,5,4206,-19,5
2208,-19,5,4207,-19,5
2209,-19,5,4208,-19,5
2210,-19,5,4209,-19,5
2211,-19,5,4210,-19,5
2212,-19,5,4211,-19,5
2213,-19,5,4212,-16,5
2214,-19,5,4213,-15,5
2215,-19,5,4214,-12,5
2216,-19,5,4215,-8,5
2217,-19,5,4216,3,5
2218,-19,5,4217,19,5
2219,-19,5,4218,41,5
2220,-19,5,4219,68,5
2221,-19,5,4220,99,5
2222,-19,5,4221,132,5
2223,-19,5,4222,142,5
2224,-19,5,4223,142,5
2225,-19,5,4224,142,5
2226,-19,5,4225,142,5
2227,-19,5,4226,142,5
2228,-19,5,4227,142,5
2229,-19,5,4228,142,5
2230,-19,5,4229,142,5
2231,-19,5,4230,142,5
2232,-19,5,4231,133,5
2233,-18,5,4232,91,5
2234,-18,5,4233,54,5
2235,-18,5,4234,24,5
2236,-18,5,4235,1,5
2237,-18,5,4236,-13,5
2238,-17,5,4237,-19,5
2239,-17,5,4238,-19,5
2240,-17,5,4239,-19,5
2241,-17,5,4240,-19,5
2242,-16,5,4241,-19,5
2243,-17,5,4242,-19,5
2244,-18,5,4243,-19,5
2245,-18,5,4244,-19,5
2246,-17,5,4245,-19,5
2247,-16,5,4246,-19,5
2248,-16,5,4247,-19,5
2249,-16,5,4248,-19,5
2250,-18,5,4249,-19,5
2251,-18,5,4250,-19,5
2252,-19,5,4251,-19,5
2253,-19,5,4252,-19,5
2254,-18,5,4253,-19,5
2255,-19,5,4254,-19,5
2256,-19,5,4255,-19,5
2257,-18,5,4256,-19,5
2258,-18,5,4257,-19,5
2259,-17,5,4258,-19,5
2260,-16,5,4259,-18,5
2261,-16,5,4260,-18,5
2262,-17,5,4261,-19,5
2263,-16,5,4262,-19,5
2264,-15,5,4263,-19,5
2265,-15,5,4264,-19,5
2266,-16,5,4265,-19,5
2267,-16,5,4266,-19,5
2268,-16,5,4267,-19,5
2269,-15,5,4268,-19,5
2270,-14,5,4269,-19,5
2271,-13,5,4270,-19,5
2272,-13,5,4271,-18,5
2273,-13,5,4272,-18,5
2274,-13,5,4273,-18,5
2275,-14,5,4274,-19,5
2276,-14,5,4275,-19,5
2277,-14,5,4276,-17,5
2278,-15,5,4277,-17,5
2279,-16,5,4278,-16,5
2280,-14,5,4279,-17,5
2281,-14,5,4280,-16,5
2282,-13,5,4281,-17,5
2283,-11,5,4282,-17,5
2284,-10,5,4283,-17,5
2285,-9,5,4284,-17,5
2286,-8,5,4285,-17,5
2287,-7,5,4286,-17,5
2288,-6,5,4287,-18,5
2289,-6,5,4288,-18,5
2290,-5,5,4289,-18,5
2291,-5,5,4290,-18,5
2292,-4,5,4291,-19,5
2293,-4,5,4292,-19,5
2294,-3,5,4293,-19,5
2295,-3,5,4294,-19,5
2296,-2,5,4295,-19,5
2297,-1,5,4296,-18,5
2298,0,5,4297,-17,5
2299,1,5,4298,-18,5
2300,3,5,4299,-18,5
2301,3,5,4300,-19,5
2302,4,5,4301,-18,5
2303,4,5,4302,-18,5
2304,5,5,4303,-17,5
2305,6,5,4304,-17,5
2306,7,5,4305,-18,5
2307,7,5,4306,-19,5
2308,8,5,4307,-19,5
2309,10,5,4308,-19,5
2310,11,5,4309,-19,5
2311,13,5,4310,-18,5
2312,14,5,4311,-17,5
2313,15,5,4312,-16,5
2314,17,5,4313,-15,5
2315,19,5,4314,-14,5
2316,21,5,4315,-14,5
2317,21,5,4316,-15,5
2318,23,5,4317,-15,5
2319,24,5,4318,-15,5
2320,24,5,4319,-15,5
2321,25,5,4320,-14,5
2322,26,5,4321,-11,5
2323,27,5,4322,-10,5
2324,28,5,4323,-9,5
2325,29,5,4324,-9,5
2326,31,5,4325,-10,5
2327,30,5,4326,-10,5
2328,29,5,4327,-9,5
2329,29,5,4328,-9,5
2330,30,5,4329,-8,5
2331,31,5,4330,-8,5
2332,31,5,4331,-7,5
2333,30,5,4332,-7,5
2334,30,5,4333,-6,5
2335,30,5,4334,-5,5
2336,29,5,4335,-5,5
2337,28,5,4336,-5,5
2338,28,5,4337,-5,5
2339,28,5,4338,-3,5
2340,26,5,4339,-3,5
2341,25,5,4340,-2,5
2342,23,5,4341,0,5
2343,22,5,4342,0,5
2344,21,5,4343,2,5
2345,19,5,4344,4,5
2346,17,5,4345,6,5
2347,14,5,4346,7,5
2348,12,5,4347,8,5
2349,11,5,4348,8,5
2350,10,5,4349,9,5
2351,7,5,4350,10,5
2352,5,5,4351,12,5
2353,3,5,4352,14,5
2354,3,5,4353,16,5
2355,1,5,4354,16,5
2356,1,5,4355,19,5
2357,0,5,4356,21,5
2358,-1,5,4357,22,5
2359,-2,5,4358,23,5
2360,-4,5,4359,24,5
2361,-5,5,4360,25,5
2362,-6,5,4361,25,5
2363,-8,5,4362,26,5
2364,-9,5,4363,27,5
2365,-10,5,4364,27,5
2366,-12,5,4365,28,5
2367,-13,5,4366,28,5
2368,-14,5,4367,29,5
2369,-15,5,4368,29,5
2370,-16,5,4369,30,5
2371,-17,5,4370,30,5
2372,-18,5,4371,30,5
2373,-18,5,4372,30,5
2374,-18,5,4373,30,5
2375,-18,5,4374,29,5
2376,-18,5,4375,28,5
2377,-19,5,4376,27,5
2378,-18,5,4377,26,5
2379,-18,5,4378,25,5
2380,-17,5,4379,25,5
2381,-17,5,4380,24,5
2382,-17,5,4381,24,5
2383,-17,5,4382,22,5
2384,-17,5,4383,21,5
2385,-19,5,4384,19,5
2386,-19,5,4385,17,5
2387,-19,5,4386,15,5
2388,-19,5,4387,13,5
2389,-19,5,4388,11,5
2390,-19,5,4389,10,5
2391,-19,5,4390,7,5
2392,-19,5,4391,4,5
2393,-19,5,4392,2,5
2394,-19,5,4393,0,5
2395,-19,5,4394,-2,5
2396,-19,5,4395,-5,5
2397,-19,5,4396,-7,5
2398,-19,5,4397,-8,5
2399,-19,5,4398,-8,5
2400,-19,5,4399,-10,5
2401,-19,5,4400,-10,5
2402,-19,5,4401,-10,5
2403,-19,5,4402,-11,5
2404,-19,5,4403,-13,5
2405,-19,5,4404,-14,5
2406,-19,5,4405,-17,5
2407,-19,5,4406,-18,5
2408,-19,5,4407,-17,5
2409,-19,5,4408,-18,5
2410,-19,5,4409,-19,5
2411,-19,5,4410,-19,5
2412,-19,5,4411,-19,5
2413,-19,5,4412,-19,5
2414,-19,5,4413,-19,5
2415,-19,5,4414,-19,5
2416,-19,5,4415,-19,5
2417,-19,5,4416,-19,5
2418,-19,5,4417,-19,5
2419,-19,5,4418,-19,5
2420,-19,5,4419,-19,5
2421,-19,5,4420,-19,5
2422,-19,5,4421,-19,5
2423,-19,5,4422,-19,5
2424,-19,5,4423,-19,5
2425,-19,5,4424,-19,5
2426,-19,5,4425,-19,5
2427,-19,5,4426,-19,5
2428,-19,5,4427,-19,5
2429,-19,5,4428,-19,5
2430,-19,5,4429,-19,5
2431,-19,5,4430,-19,5
2432,-19,5,4431,-19,5
2433,-19,5,4432,-19,5
2434,-19,5,4433,-19,5
2435,-19,5,4434,-19,5
2436,-17,5,4435,-19,5
2437,-17,5,4436,-19,5
2438,-16,5,4437,-19,5
2439,-17,5,4438,-19,5
2440,-16,5,4439,-19,5
2441,-16,5,4440,-19,5
2442,-18,5,4441,-19,5
2443,-18,5,4442,-19,5
2444,-15,5,4443,-19,5
2445,-15,5,4444,-19,5
2446,-15,5,4445,-19,5
2447,-15,5,4446,-19,5
2448,-15,5,4447,-19,5
2449,-15,5,4448,-19,5
2450,-14,5,4449,-19,5
2451,-14,5,4450,-19,5
2452,-14,5,4451,-19,5
2453,-14,5,4452,-19,5
2454,-14,5,4453,-19,5
2455,-14,5,4454,-19,5
2456,-13,5,4455,-19,5
2457,-11,5,4456,-19,5
2458,-11,5,4457,-19,5
2459,-11,5,4458,-19,5
2460,-11,5,4459,-19,5
2461,-12,5,4460,-19,5
2462,-14,5,4461,-19,5
2463,-15,5,4462,-19,5
2464,-15,5,4463,-19,5
2465,-16,5,4464,-19,5
2466,-16,5,4465,-19,5
2467,-15,5,4466,-19,5
2468,-15,5,4467,-19,5
2469,-15,5,4468,-19,5
2470,-14,5,4469,-19,5
2471,-12,5,4470,-19,5
2472,-12,5,4471,-19,5
2473,-12,5,4472,-19,5
2474,-11,5,4473,-19,5
2475,-11,5,4474,-19,5
2476,-11,5,4475,-19,5
2477,-13,5,4476,-19,5
2478,-16,5,4477,-19,5
2479,-18,5,4478,-19,5
2480,-19,5,4479,-19,5
2481,-19,5,4480,-19,5
2482,-17,5,4481,-19,5
2483,-16,5,4482,-19,5
2484,-16,5,4483,-19,5
2485,-16,5,4484,-19,5
2486,-15,5,4485,-19,5
2487,-15,5,4486,-19,5
2488,-16,5,4487,-19,5
2489,-16,5,4488,-19,5
2490,-15,5,4489,-19,5
2491,-15,5,4490,-19,5
2492,-14,5,4491,-19,5
2493,-14,5,4492,-19,5
2494,-14,5,4493,-19,5
2495,-13,5,4494,-19,5
2496,-12,5,4495,-19,5
2497,-12,5,4496,-19,5
2498,-13,5,4497,-19,5
2499,-14,5,4498,-19,5
2500,-14,5,4499,-19,5
2501,-16,5,4500,-19,5
2502,-17,5,4501,-19,5
2503,-16,5,4502,-19,5
2504,-18,5,4503,-19,5
2505,-17,5,4504,-19,5
2506,-16,5,4505,-19,5
2507,-17,5,4506,-19,5
2508,-17,5,4507,-19,5
2509,-16,5,4508,-19,5
2510,-15,5,4509,-19,5
2511,-15,5,4510,-19,5
2512,-15,5,4511,-19,5
2513,-15,5,4512,-19,5
2514,-15,5,4513,-19,5
2515,-14,5,4514,-19,5
2516,-14,5,4515,-19,5
2517,-14,5,4516,-19,5
2518,-15,5,4517,-19,5
2519,-16,5,4518,-19,5
2520,-16,5,4519,-19,5
2521,-16,5,4520,-19,5
2522,-17,5,4521,-19,5
2523,-17,5,4522,-19,5
2524,-16,5,4523,-19,5
2525,-16,5,4524,-19,5
2526,-18,5,4525,-19,5
2527,-19,5,4526,-19,5
2528,-17,5,4527,-19,5
2529,-17,5,4528,-19,5
2530,-17,5,4529,-19,5
2531,-17,5,4530,-19,5
2532,-18,5,4531,-19,5
2533,-17,5,4532,-19,5
2534,-16,5,4533,-19,5
2535,-15,5,4534,-19,5
2536,-15,5,4535,-19,5
2537,-14,5,4536,-19,5
2538,-13,5,4537,-19,5
2539,-13,5,4538,-19,5
2540,-14,5,4539,-19,5
2541,-15,5,4540,-19,5
2542,-14,5,4541,-19,5
2543,-13,5,4542,-19,5
2544,-12,5,4543,-19,5
2545,-13,5,4544,-19,5
2546,-14,5,4545,-19,5
2547,-14,5,4546,-19,5
2548,-13,5,4547,-19,5
2549,-13,5,4548,-19,5
2550,-12,5,4549,-19,5
2551,-11,5,4550,-19,5
2552,-10,5,4551,-19,5
2553,-12,5,4552,-19,5
2554,-14,5,4553,-19,5
2555,-14,5,4554,-19,5
2556,-14,5,4555,-19,5
2557,-14,5,4556,-19,5
2558,-15,5,4557,-19,5
2559,-15,5,4558,-19,5
2560,-14,5,4559,-19,5
2561,-12,5,4560,-19,5
2562,-11,5,4561,-19,5
2563,-11,5,4562,-19,5
2564,-11,5,4563,-19,5
2565,-11,5,4564,-19,5
2566,-10,5,4565,-19,5
2567,-10,5,4566,-19,5
2568,-11,5,4567,-19,5
2569,-10,5,4568,-19,5
2570,-10,5,4569,-19,5
2571,-10,5,4570,-19,5
2572,-10,5,4571,-19,5
2573,-11,5,4572,-19,5
2574,-11,5,4573,-19,5
2575,-11,5,4574,-19,5
2576,-11,5,4575,-19,5
2577,-11,5,4576,-19,5
2578,-12,5,4577,-19,5
2579,-13,5,4578,-19,5
2580,-13,5,4579,-19,5
2581,-13,5,4580,-19,5
2582,-12,5,4581,-19,5
2583,-12,5,4582,-19,5
2584,-13,5,4583,-19,5
2585,-13,5,4584,-19,5
2586,-13,5,4585,-19,5
2587,-14,5,4586,-19,5
2588,-13,5,4587,-19,5
2589,-12,5,4588,-19,5
2590,-12,5,4589,-19,5
2591,-11,5,4590,-19,5
2592,-10,5,4591,-19,5
2593,-10,5,4592,-19,5
2594,-9,5,4593,-19,5
2595,-9,5,4594,-19,5
2596,-10,5,4595,-19,5
2597,-12,5,4596,-19,5
2598,-13,5,4597,-19,5
2599,-14,5,4598,-19,5
2600,-14,5,4599,-19,5
2601,-13,5,4600,-19,5
2602,-13,5,4601,-19,5
2603,-12,5,4602,-19,5
2604,-12,5,4603,-19,5
2605,-12,5,4604,-19,5
2606,-12,5,4605,-19,5
2607,-11,5,4606,-19,5
2608,-10,5,4607,-19,5
2609,-10,5,4608,-19,5
2610,-11,5,4609,-19,5
2611,-11,5,4610,-19,5
2612,-12,5,4611,-19,5
2613,-12,5,4612,-19,5
2614,-12,5,4613,-19,5
2615,-12,5,4614,-19,5
2616,-11,5,4615,-19,5
2617,-11,5,4616,-19,5
2618,-11,5,4617,-19,5
2619,-11,5,4618,-19,5
2620,-11,5,4619,-19,5
2621,-11,5,4620,-19,5
2622,-10,5,4621,-19,5
2623,-11,5,4622,-19,5
2624,-10,5,4623,-19,5
2625,-9,5,4624,-19,5
2626,-7,5,4625,-19,5
2627,-6,5,4626,-19,5
2628,-5,5,4627,-19,5
2629,-6,5,4628,-19,5
2630,-6,5,4629,-19,5
2631,-4,5,4630,-19,5
2632,-3,5,4631,-19,5
2633,-4,5,4632,-19,5
2634,-3,5,4633,-19,5
2635,-3,5,4634,-19,5
2636,-3,5,4635,-19,5
2637,-3,5,4636,-19,5
2638,-2,5,4637,-19,5
2639,-2,5,4638,-19,5
2640,-2,5,4639,-19,5
2641,-2,5,4640,-19,5
2642,-3,5,4641,-19,5
2643,-4,5,4642,-19,5
2644,-5,5,4643,-19,5
2645,-7,5,4644,-19,5
2646,-9,5,4645,-19,5
2647,-10,5,4646,-19,5
2648,-12,5,4647,-19,5
2649,-15,5,4648,-19,5
2650,-18,5,4649,-19,5
2651,-19,5,4650,-19,5
2652,-19,5,4651,-19,5
2653,-19,5,4652,-19,5
2654,-19,5,4653,-19,5
2655,-19,5,4654,-19,5
2656,-19,5,4655,-19,5
2657,-19,5,4656,-19,5
2658,-19,5,4657,-19,5
2659,-19,5,4658,-19,5
2660,-19,5,4659,-19,5
2661,-19,5,4660,-19,5
2662,-19,5,4661,-19,5
2663,-19,5,4662,-19,5
2664,-19,5,4663,-19,5
2665,-19,5,4664,-19,5
2666,-19,5,4665,-19,5
2667,-19,5,4666,-19,5
2668,-19,5,4667,-19,5
2669,-19,5,4668,-19,5
2670,-19,5,4669,-19,5
2671,-19,5,4670,-19,5
2672,-19,5,4671,-19,5
2673,-19,5,4672,-19,5
2674,-19,5,4673,-19,5
2675,-19,5,4674,-19,5
2676,-19,5,4675,-19,5
2677,-19,5,4676,-19,5
2678,-19,5,4677,-19,5
2679,-19,5,4678,-19,5
2680,-19,5,4679,-18,5
2681,-19,5,4680,-17,5
2682,-19,5,4681,-17,5
2683,-17,5,4682,-17,5
2684,-13,5,4683,-17,5
2685,-1,5,4684,-18,5
2686,16,5,4685,-17,5
2687,37,5,4686,-14,5
2688,67,5,4687,-14,5
2689,98,5,4688,-13,5
2690,130,5,4689,-12,5
2691,142,5,4690,-12,5
2692,142,5,4691,-12,5
2693,142,5,4692,-14,5
2694,142,5,4693,-16,5
2695,142,5,4694,-18,5
2696,142,5,4695,-19,5
2697,142,5,4696,-19,5
2698,142,5,4697,-19,5
2699,142,5,4698,-19,5
2700,112,5,4699,-19,5
2701,71,5,4700,-19,5
2702,36,5,4701,-19,5
2703,9,5,4702,-19,5
2704,-11,5,4703,-19,5
2705,-19,5,4704,-19,5
2706,-19,5,4705,-19,5
2707,-19,5,4706,-19,5
2708,-19,5,4707,-19,5
2709,-19,5,4708,-19,5
2710,-19,5,4709,-19,5
2711,-19,5,4710,-19,5
2712,-19,5,4711,-19,5
2713,-19,5,4712,-19,5
2714,-19,5,4713,-19,5
2715,-19,5,4714,-19,5
2716,-19,5,4715,-19,5
2717,-19,5,4716,-19,5
2718,-19,5,4717,-19,5
2719,-19,5,4718,-19,5
2720,-19,5,4719,-19,5
2721,-19,5,4720,-19,5
2722,-19,5,4721,-19,5
2723,-19,5,4722,-19,5
2724,-19,5,4723,-19,5
2725,-19,5,4724,-19,5
2726,-19,5,4725,-19,5
2727,-19,5,4726,-19,5
2728,-19,5,4727,-19,5
2729,-19,5,4728,-19,5
2730,-19,5,4729,-19,5
2731,-19,5,4730,-19,5
2732,-19,5,4731,-19,5
2733,-19,5,4732,-19,5
2734,-19,5,4733,-13,5
2735,-19,5,4734,0,5
2736,-19,5,4735,16,5
2737,-19,5,4736,40,5
2738,-19,5,4737,69,5
2739,-19,5,4738,101,5
2740,-19,5,4739,138,5
2741,-19,5,4740,142,5
2742,-19,5,4741,142,5
2743,-19,5,4742,142,5
2744,-19,5,4743,142,5
2745,-19,5,4744,142,5
2746,-19,5,4745,142,5
2747,-19,5,4746,142,5
2748,-19,5,4747,142,5
2749,-19,5,4748,142,5
2750,-19,5,4749,115,5
2751,-19,5,4750,76,5
2752,-19,5,4751,42,5
2753,-19,5,4752,16,5
2754,-19,5,4753,-4,5
2755,-19,5,4754,-17,5
2756,-19,5,4755,-19,5
2757,-19,5,4756,-19,5
2758,-19,5,4757,-19,5
2759,-19,5,4758,-19,5
2760,-19,5,4759,-19,5
2761,-19,5,4760,-19,5
2762,-19,5,4761,-19,5
2763,-19,5,4762,-19,5
2764,-19,5,4763,-19,5
2765,-19,5,4764,-19,5
2766,-19,5,4765,-19,5
2767,-19,5,4766,-19,5
2768,-19,5,4767,-19,5
2769,-19,5,4768,-19,5
2770,-19,5,4769,-19,5
2771,-19,5,4770,-19,5
2772,-19,5,4771,-19,5
2773,-19,5,4772,-19,5
2774,-19,5,4773,-19,5
2775,-18,5,4774,-19,5
2776,-18,5,4775,-19,5
2777,-19,5,4776,-19,5
2778,-19,5,4777,-19,5
2779,-19,5,4778,-19,5
2780,-19,5,4779,-19,5
2781,-18,5,4780,-19,5
2782,-19,5,4781,-19,5
2783,-19,5,4782,-19,5
2784,-18,5,4783,-19,5
2785,-18,5,4784,-19,5
2786,-17,5,4785,-19,5
2787,-15,5,4786,-19,5
2788,-14,5,4787,-19,5
2789,-14,5,4788,-19,5
2790,-15,5,4789,-19,5
2791,-14,5,4790,-19,5
2792,-14,5,4791,-19,5
2793,-14,5,4792,-19,5
2794,-13,5,4793,-19,5
2795,-12,5,4794,-19,5
2796,-10,5,4795,-19,5
2797,-8,5,4796,-19,5
2798,-8,5,4797,-19,5
2799,-7,5,4798,-19,5
2800,-5,5,4799,-19,5
2801,-2,5,4800,-19,5
2802,-2,5,4801,-19,5
2803,-2,5,4802,-19,5
2804,0,5,4803,-19,5
2805,0,5,4804,-19,5
2806,1,5,4805,-19,5
2807,1,5,4806,-19,5
2808,2,5,4807,-19,5
2809,3,5,4808,-19,5
2810,3,5,4809,-19,5
2811,3,5,4810,-19,5
2812,4,5,4811,-18,5
2813,5,5,4812,-17,5
2814,6,5,4813,-17,5
2815,8,5,4814,-17,5
2816,9,5,4815,-18,5
2817,10,5,4816,-19,5
2818,10,5,4817,-19,5
2819,11,5,4818,-19,5
2820,13,5,4819,-18,5
2821,15,5,4820,-19,5
2822,17,5,4821,-19,5
2823,19,5,4822,-19,5
2824,19,5,4823,-19,5
2825,20,5,4824,-19,5
2826,20,5,4825,-19,5
2827,21,5,4826,-19,5
2828,22,5,4827,-18,5
2829,22,5,4828,-17,5
2830,23,5,4829,-16,5
2831,25,5,4830,-16,5
2832,24,5,4831,-15,5
2833,25,5,4832,-16,5
2834,26,5,4833,-16,5
2835,26,5,4834,-16,5
2836,26,5,4835,-16,5
2837,27,5,4836,-16,5
2838,28,5,4837,-17,5
2839,28,5,4838,-16,5
2840,29,5,4839,-15,5
2841,29,5,4840,-14,5
2842,29,5,4841,-13,5
2843,29,5,4842,-13,5
2844,29,5,4843,-13,5
2845,28,5,4844,-12,5
2846,27,5,4845,-12,5
2847,26,5,4846,-11,5
2848,26,5,4847,-10,5
2849,24,5,4848,-9,5
2850,20,5,4849,-8,5
2851,17,5,4850,-8,5
2852,15,5,4851,-7,5
2853,14,5,4852,-7,5
2854,12,5,4853,-6,5
2855,11,5,4854,-4,5
2856,10,5,4855,-2,5
2857,8,5,4856,0,5
2858,6,5,4857,0,5
2859,5,5,4858,2,5
2860,4,5,4859,3,5
2861,2,5,4860,3,5
2862,1,5,4861,3,5
2863,0,5,4862,4,5
2864,-2,5,4863,7,5
2865,-4,5,4864,8,5
2866,-5,5,4865,9,5
2867,-6,5,4866,10,5
2868,-9,5,4867,12,5
2869,-12,5,4868,13,5
2870,-13,5,4869,14,5
2871,-12,5,4870,13,5
2872,-14,5,4871,14,5
2873,-15,5,4872,15,5
2874,-15,5,4873,17,5
2875,-16,5,4874,19,5
2876,-17,5,4875,21,5
2877,-17,5,4876,23,5
2878,-17,5,4877,24,5
2879,-17,5,4878,24,5
2880,-18,5,4879,25,5
2881,-19,5,4880,25,5
2882,-19,5,4881,27,5
2883,-19,5,4882,29,5
2884,-19,5,4883,29,5
2885,-19,5,4884,29,5
2886,-19,5,4885,30,5
2887,-19,5,4886,31,5
2888,-19,5,4887,32,5
2889,-19,5,4888,33,5
2890,-19,5,4889,32,5
2891,-19,5,4890,32,5
2892,-19,5,4891,31,5
2893,-19,5,4892,29,5
2894,-19,5,4893,27,5
2895,-19,5,4894,27,5
2896,-19,5,4895,28,5
2897,-19,5,4896,29,5
2898,-19,5,4897,28,5
2899,-19,5,4898,27,5
2900,-19,5,4899,26,5
2901,-19,5,4900,25,5
2902,-19,5,4901,25,5
2903,-19,5,4902,24,5
2904,-19,5,4903,22,5
2905,-19,5,4904,20,5
2906,-19,5,4905,18,5
2907,-19,5,4906,15,5
2908,-19,5,4907,13,5
2909,-19,5,4908,11,5
2910,-19,5,4909,10,5
2911,-19,5,4910,8,5
2912,-19,5,4911,6,5
2913,-19,5,4912,5,5
2914,-19,5,4913,3,5
2915,-19,5,4914,1,5
2916,-19,5,4915,-1,5
2917,-19,5,4916,-3,5
2918,-19,5,4917,-5,5
2919,-19,5,4918,-7,5
2920,-19,5,4919,-9,5
2921,-19,5,4920,-9,5
2922,-19,5,4921,-11,5
2923,-19,5,4922,-12,5
2924,-19,5,4923,-14,5
2925,-19,5,4924,-14,5
2926,-19,5,4925,-13,5
2927,-19,5,4926,-12,5
2928,-19,5,4927,-12,5
2929,-19,5,4928,-14,5
2930,-19,5,4929,-16,5
2931,-19,5,4930,-15,5
2932,-19,5,4931,-15,5
2933,-19,5,4932,-15,5
2934,-19,5,4933,-17,5
2935,-19,5,4934,-17,5
2936,-19,5,4935,-17,5
2937,-19,5,4936,-17,5
2938,-19,5,4937,-17,5
2939,-19,5,4938,-17,5
2940,-19,5,4939,-18,5
2941,-18,5,4940,-19,5
2942,-18,5,4941,-19,5
2943,-17,5,4942,-19,5
2944,-17,5,4943,-19,5
2945,-17,5,4944,-19,5
2946,-16,5,4945,-19,5
2947,-17,5,4946,-18,5
2948,-17,5,4947,-18,5
2949,-17,5,4948,-19,5
2950,-15,5,4949,-19,5
2951,-14,5,4950,-19,5
2952,-12,5,4951,-19,5
2953,-12,5,4952,-19,5
2954,-14,5,4953,-19,5
2955,-15,5,4954,-19,5
2956,-16,5,4955,-19,5
2957,-15,5,4956,-19,5
2958,-16,5,4957,-19,5
2959,-17,5,4958,-19,5
2960,-18,5,4959,-19,5
2961,-17,5,4960,-19,5
2962,-17,5,4961,-19,5
2963,-16,5,4962,-19,5
2964,-15,5,4963,-19,5
2965,-15,5,4964,-19,5
2966,-15,5,4965,-18,5
2967,-15,5,4966,-18,5
2968,-15,5,4967,-18,5
2969,-16,5,4968,-18,5
2970,-15,5,4969,-19,5
2971,-15,5,4970,-19,5
2972,-14,5,4971,-19,5
2973,-15,5,4972,-19,5
2974,-15,5,4973,-19,5
2975,-15,5,4974,-19,5
2976,-15,5,4975,-19,5
2977,-15,5,4976,-19,5
2978,-15,5,4977,-19,5
2979,-15,5,4978,-19,5
2980,-16,5,4979,-19,5
2981,-17,5,4980,-19,5
2982,-18,5,4981,-19,5
2983,-19,5,4982,-18,5
2984,-19,5,4983,-17,5
2985,-19,5,4984,-16,5
2986,-19,5,4985,-14,5
2987,-19,5,4986,-14,5
2988,-19,5,4987,-15,5
2989,-19,5,4988,-16,5
2990,-19,5,4989,-17,5
2991,-18,5,4990,-17,5
2992,-17,5,4991,-16,5
2993,-16,5,4992,-16,5
2994,-16,5,4993,-16,5
2995,-17,5,4994,-15,5
2996,-19,5,4995,-15,5
2997,-19,5,4996,-15,5
2998,-19,5,4997,-13,5
2999,-19,5,4998,-12,5
3000,-19,5,4999,-12,5
