TS,Reading
1,-0.6
2,-0.3
3,-0.3
4,-0.4
5,-0.4
6,-0.4
7,-0.3
8,-0.4
9,-0.4
10,-0.5
11,-0.5
12,-0.6
13,-0.5
14,-0.5
15,-0.3
16,-0.4
17,-0.6
18,-0.7
19,-0.8
20,-0.6
21,-0.4
22,-0.4
23,-0.6
24,-0.9
25,-0.9
26,-0.8
27,-0.8
28,-0.7
29,-0.8
30,-1
31,-1.8
32,-2.4
33,-2.5
34,-2.7
35,-2.6
36,-2.7
37,-2.6
38,-2.8
39,-3
40,-2.9
41,-3.1
42,-3.2
43,-3.1
44,-3.3
45,-3.3
46,-3.1
47,-2.8
48,-2.6
49,-2.6
50,-2.5
51,-2.5
52,-2.6
53,-2.7
54,-2.9
55,-2.9
56,-2.8
57,-2.7
58,-2.7
59,-2.4
60,-2.3
61,-2.1
62,-2
63,-2.3
64,-2.3
65,-2.3
66,-2.2
67,-2
68,-2
69,-1.9
70,-1.8
71,-1.8
72,-1.8
73,-1.7
74,-1.9
75,-2
76,-2.3
77,-2.3
78,-2.3
79,-2.4
80,-2.3
81,-2.3
82,-2.5
83,-2.5
84,-2.3
85,-2.3
86,-2.3
87,-2.4
88,-2.4
89,-2.7
90,-2.8
91,-3
92,-2.9
93,-3
94,-3.1
95,-3.2
96,-3
97,-3
98,-3.2
99,-3.2
100,-3.3
101,-3.4
102,-3.2
103,-3.2
104,-3.3
105,-3.3
106,-3.3
107,-3.3
108,-3.1
109,-3
110,-3.1
111,-2.9
112,-3
113,-3
114,-2.8
115,-2.8
116,-2.8
117,-3.1
118,-3.4
119,-3.4
120,-3.3
121,-3.2
122,-3
123,-2.2
124,-1
125,0.5
126,2.4
127,4.2
128,6.3
129,9.3
130,13.6
131,18
132,21
133,23.4
134,24.7
135,25.3
136,23.8
137,21.5
138,18.9
139,15.4
140,9.6
141,3.4
142,-0.6
143,-2.8
144,-4.4
145,-6
146,-7.6
147,-8.5
148,-8.9
149,-8.7
150,-8.3
151,-7.4
152,-6.6
153,-6
154,-5.5
155,-5.2
156,-4.7
157,-4.3
158,-3.8
159,-3.5
160,-3.3
161,-3
162,-2.9
163,-2.9
164,-3
165,-2.8
166,-2.9
167,-3
168,-2.9
169,-2.7
170,-2.8
171,-3
172,-2.9
173,-2.9
174,-2.9
175,-2.6
176,-2.4
177,-2.6
178,-2.9
179,-2.8
180,-2.6
181,-2.5
182,-2.3
183,-2.3
184,-2.3
185,-2.4
186,-2.3
187,-2.6
188,-2.6
189,-2.3
190,-2.2
191,-2.4
192,-2.2
193,-2.2
194,-2.3
195,-2.2
196,-2.3
197,-2.2
198,-2.1
199,-2.1
200,-2.1
201,-2.3
202,-2.3
203,-2.2
204,-2
205,-2
206,-2.1
207,-2
208,-1.5
209,-1.5
210,-1.7
211,-1.6
212,-1.6
213,-1.6
214,-1.8
215,-1.8
216,-1.6
217,-1.6
218,-1.6
219,-1.6
220,-1.6
221,-1.4
222,-1.4
223,-1.3
224,-1.3
225,-1.2
226,-1.2
227,-1.2
228,-1
229,-0.8
230,-0.6
231,-0.8
232,-0.8
233,-0.6
234,-0.6
235,-0.7
236,-0.4
237,-0.2
238,-0.2
239,-0.4
240,-0.3
241,-0.1
242,-0.1
243,-0.1
244,0
245,0.3
246,0.4
247,0.4
248,0.9
249,1.1
250,1.2
251,1.3
252,1.3
253,1.3
254,1.6
255,1.7
256,1.8
257,1.9
258,1.8
259,2
260,2.1
261,2.1
262,2.4
263,2.6
264,2.5
265,2.5
266,2.5
267,2.7
268,2.7
269,2.8
270,2.8
271,2.7
272,2.7
273,2.7
274,2.8
275,2.9
276,2.9
277,2.9
278,2.9
279,2.8
280,2.9
281,2.9
282,2.9
283,2.8
284,2.5
285,2.5
286,2.3
287,2.1
288,1.8
289,1.9
290,2
291,1.8
292,1.8
293,1.5
294,1.2
295,0.9
296,0.9
297,0.8
298,0.5
299,0.3
300,0.4
301,0.5
302,0.2
303,0
304,0
305,-0.4
306,-0.7
307,-1
308,-1.2
309,-1.2
310,-1.2
311,-1.1
312,-1.2
313,-1.4
314,-1.6
315,-1.8
316,-1.7
317,-1.7
318,-1.8
319,-2
320,-2.1
321,-2.2
322,-2.2
323,-2.1
324,-2
325,-1.8
326,-1.6
327,-1.4
328,-1.6
329,-2
330,-2.2
331,-2.3
332,-2.3
333,-2.2
334,-2.2
335,-2.3
336,-2.1
337,-2.1
338,-2.3
339,-2.2
340,-2.3
341,-2.4
342,-2.3
343,-2.4
344,-2.3
345,-2.4
346,-2.3
347,-2.1
348,-2.2
349,-2.3
350,-2.3
351,-2.4
352,-2.5
353,-2.3
354,-2.3
355,-2.3
356,-2.2
357,-2.2
358,-2.3
359,-2.4
360,-2.3
361,-2.2
362,-2.3
363,-2.5
364,-2.7
365,-2.7
366,-2.5
367,-2.4
368,-2.3
369,-2.4
370,-2.3
371,-2.3
372,-2.3
373,-2.4
374,-2.5
375,-2.3
376,-2.2
377,-2.1
378,-2
379,-1.9
380,-2
381,-2
382,-2
383,-1.9
384,-1.8
385,-2
386,-2
387,-2
388,-1.9
389,-1.9
390,-1.8
391,-1.8
392,-1.8
393,-1.8
394,-1.8
395,-1.7
396,-1.9
397,-1.9
398,-1.8
399,-1.8
400,-1.8
401,-1.9
402,-2.1
403,-2.1
404,-2.2
405,-1.9
406,-1.7
407,-1.8
408,-1.9
409,-1.9
410,-2
411,-2.1
412,-2
413,-2
414,-2.1
415,-2.1
416,-2.1
417,-2.1
418,-2.2
419,-2.1
420,-1.7
421,-1.8
422,-2
423,-2
424,-2.1
425,-2.2
426,-2.1
427,-2.3
428,-2.2
429,-2.2
430,-2.2
431,-2.4
432,-2.4
433,-2.4
434,-2.4
435,-2.3
436,-2.3
437,-2.3
438,-2.3
439,-2.4
440,-2.3
441,-2.4
442,-2.6
443,-2.5
444,-2.5
445,-2.5
446,-2.4
447,-2.2
448,-2.3
449,-2.5
450,-2.7
451,-2.6
452,-2.4
453,-2.4
454,-2.4
455,-2.5
456,-2.5
457,-2.5
458,-2.7
459,-3
460,-3
461,-2.9
462,-2.8
463,-2.6
464,-2.6
465,-2.7
466,-2.5
467,-2.5
468,-2.6
469,-2.7
470,-2.7
471,-2.6
472,-2.6
473,-2.7
474,-2.8
475,-2.9
476,-2.8
477,-2.7
478,-2.8
479,-2.9
480,-3
481,-3
482,-2.9
483,-3
484,-2.8
485,-2.7
486,-2.8
487,-2.9
488,-2.8
489,-2.7
490,-2.8
491,-2.7
492,-2.7
493,-2.7
494,-2.8
495,-2.9
496,-2.9
497,-2.8
498,-2.8
499,-2.8
500,-2.9
501,-2.9
502,-3
503,-3
504,-2.9
505,-2.8
506,-2.8
507,-2.9
508,-2.7
509,-2.8
510,-2.8
511,-2.9
512,-2.9
513,-2.7
514,-2.7
515,-2.7
516,-2.9
517,-2.9
518,-3
519,-3
520,-3
521,-3.2
522,-3.1
523,-3.1
524,-3
525,-3
526,-3
527,-3
528,-3
529,-2.9
530,-2.9
531,-2.8
532,-2.6
533,-2.3
534,-2.4
535,-2.3
536,-2.3
537,-2.4
538,-2.4
539,-2.4
540,-2.3
541,-2.4
542,-2.6
543,-2.7
544,-2.6
545,-2.4
546,-2.1
547,-1.9
548,-1.9
549,-1.8
550,-1.9
551,-2.1
552,-2.2
553,-2.1
554,-1.9
555,-1.4
556,-1.4
557,-1.6
558,-1.7
559,-1.9
560,-2
561,-2.1
562,-2.4
563,-2.1
564,-2.2
565,-2.2
566,-2.1
567,-2
568,-2.1
569,-2.2
570,-2.5
571,-2.8
572,-2.9
573,-3
574,-2.9
575,-2.9
576,-2.7
577,-2.6
578,-2.6
579,-2.7
580,-3
581,-3.2
582,-3.2
583,-3.1
584,-3.3
585,-3.3
586,-3.4
587,-3.3
588,-3.2
589,-3
590,-2.9
591,-3.2
592,-3.3
593,-3.5
594,-3.3
595,-3
596,-3
597,-3.2
598,-3.4
599,-3.4
600,-3.3
601,-3.2
602,-3.4
603,-3.5
604,-3.3
605,-3.1
606,-3
607,-2.2
608,-0.9
609,0.6
610,2.6
611,4.5
612,6.3
613,9.2
614,13.6
615,18
616,20.7
617,23
618,24.3
619,24.4
620,22.6
621,20.4
622,18
623,14.5
624,8.4
625,2.3
626,-1.5
627,-3.7
628,-5.3
629,-6.7
630,-8
631,-8.6
632,-8.6
633,-8.5
634,-8.1
635,-7
636,-6.3
637,-5.5
638,-4.8
639,-4.5
640,-4.3
641,-4.1
642,-4
643,-3.5
644,-3.3
645,-3.3
646,-3.3
647,-3.3
648,-3.2
649,-3.1
650,-3.1
651,-3.2
652,-3.1
653,-3.2
654,-3.2
655,-3
656,-3
657,-3.1
658,-2.9
659,-2.8
660,-2.8
661,-2.9
662,-2.8
663,-2.7
664,-2.7
665,-2.6
666,-2.7
667,-2.5
668,-2.5
669,-2.6
670,-2.5
671,-2.4
672,-2.5
673,-2.5
674,-2.5
675,-2.3
676,-2.3
677,-2.3
678,-2.4
679,-2.2
680,-1.9
681,-1.8
682,-1.9
683,-1.9
684,-2
685,-2.1
686,-2.1
687,-2.2
688,-2.4
689,-2.2
690,-2
691,-2
692,-1.8
693,-1.7
694,-1.7
695,-1.7
696,-1.7
697,-1.7
698,-1.7
699,-1.7
700,-1.5
701,-1.5
702,-1.5
703,-1.4
704,-1.4
705,-1.4
706,-1.3
707,-1.4
708,-1.3
709,-1.4
710,-1.4
711,-1.3
712,-1.3
713,-1.4
714,-1.3
715,-1.1
716,-1.2
717,-1
718,-0.7
719,-0.6
720,-0.6
721,-0.5
722,-0.4
723,-0.4
724,-0.2
725,-0.2
726,-0.1
727,0.1
728,0.3
729,0.5
730,0.8
731,0.8
732,1
733,1
734,1
735,0.9
736,1.1
737,1.5
738,1.6
739,1.5
740,1.5
741,1.6
742,1.7
743,1.8
744,1.9
745,2.1
746,2
747,2.2
748,2.3
749,2.5
750,2.7
751,2.8
752,2.8
753,2.8
754,2.7
755,2.5
756,2.7
757,2.9
758,2.9
759,2.9
760,2.9
761,2.7
762,2.7
763,2.7
764,2.7
765,2.7
766,2.6
767,2.4
768,2.4
769,2.4
770,2.4
771,2.3
772,2.2
773,2
774,1.8
775,1.4
776,1.4
777,1.2
778,0.9
779,0.7
780,0.7
781,0.6
782,0.6
783,0.5
784,0.4
785,0.1
786,0
787,-0.1
788,-0.3
789,-0.7
790,-0.8
791,-0.8
792,-0.9
793,-1
794,-1.2
795,-1.2
796,-1.3
797,-1.3
798,-1.6
799,-1.9
800,-1.8
801,-1.8
802,-1.6
803,-1.6
804,-1.7
805,-1.8
806,-2
807,-2.1
808,-2.3
809,-2.3
810,-2.4
811,-2.3
812,-2.3
813,-2.3
814,-2.4
815,-2.3
816,-2.3
817,-2.4
818,-2.4
819,-2.4
820,-2.5
821,-2.3
822,-2.4
823,-2.4
824,-2.3
825,-2.3
826,-2.5
827,-2.6
828,-2.5
829,-2.4
830,-2.5
831,-2.6
832,-2.5
833,-2.5
834,-2.6
835,-2.5
836,-2.5
837,-2.4
838,-2.5
839,-2.6
840,-2.7
841,-2.7
842,-2.9
843,-2.8
844,-2.8
845,-2.8
846,-2.6
847,-2.5
848,-2.6
849,-2.6
850,-2.8
851,-2.9
852,-3.1
853,-3
854,-2.8
855,-2.9
856,-3
857,-3
858,-3
859,-2.9
860,-2.7
861,-2.4
862,-2.4
863,-2.6
864,-2.6
865,-2.8
866,-2.8
867,-2.7
868,-2.7
869,-2.9
870,-2.7
871,-2.6
872,-2.5
873,-2.4
874,-2.3
875,-2.4
876,-2.5
877,-2.5
878,-2.6
879,-2.5
880,-2.5
881,-2.5
882,-2.4
883,-2.5
884,-2.6
885,-2.7
886,-2.4
887,-2.4
888,-2.4
889,-2.6
890,-2.8
891,-2.6
892,-2.6
893,-2.6
894,-2.6
895,-2.6
896,-2.6
897,-2.6
898,-2.7
899,-2.6
900,-2.6
901,-2.7
902,-2.8
903,-2.9
904,-2.8
905,-2.7
906,-2.7
907,-2.7
908,-2.8
909,-3
910,-3.2
911,-3.2
912,-3.3
913,-3.2
914,-3
915,-2.9
916,-2.9
917,-3
918,-3
919,-2.9
920,-2.8
921,-2.9
922,-3.1
923,-3
924,-3.1
925,-2.9
926,-2.9
927,-2.9
928,-3
929,-3.2
930,-3.2
931,-3.2
932,-3.2
933,-3.4
934,-3.4
935,-3.3
936,-3.2
937,-3.2
938,-3.3
939,-3.2
940,-3.2
941,-3.3
942,-3.3
943,-3.2
944,-3.1
945,-3.1
946,-3.4
947,-3.4
948,-3.4
949,-3.5
950,-3.7
951,-3.4
952,-3.4
953,-3.4
954,-3.3
955,-3.3
956,-3.3
957,-3.3
958,-3.3
959,-3.3
960,-3.5
961,-3.7
962,-3.9
963,-3.8
964,-3.6
965,-3.6
966,-3.6
967,-3.8
968,-3.8
969,-3.7
970,-3.6
971,-3.6
972,-3.7
973,-3.8
974,-3.8
975,-3.9
976,-3.6
977,-3.5
978,-3.5
979,-3.6
980,-3.6
981,-3.6
982,-3.6
983,-3.5
984,-3.7
985,-3.8
986,-3.8
987,-3.8
988,-3.9
989,-3.9
990,-3.7
991,-3.6
992,-3.6
993,-3.7
994,-3.9
995,-3.8
996,-3.8
997,-3.8
998,-3.7
999,-3.7
1000,-3.7
1001,-3.7
1002,-3.7
1003,-3.7
1004,-3.8
1005,-3.9
1006,-3.8
1007,-3.6
1008,-3.6
1009,-4
1010,-4
1011,-3.9
1012,-3.8
1013,-3.8
1014,-4.1
1015,-4
1016,-3.9
1017,-3.9
1018,-4
1019,-3.9
1020,-3.8
1021,-3.8
1022,-3.8
1023,-3.7
1024,-3.7
1025,-3.6
1026,-3.7
1027,-3.5
1028,-3.4
1029,-3.4
1030,-3.4
1031,-3.3
1032,-3.2
1033,-3.4
1034,-3.8
1035,-3.6
1036,-3.2
1037,-3.1
1038,-3
1039,-2.7
1040,-2.6
1041,-2.6
1042,-2.8
1043,-2.8
1044,-2.6
1045,-2.5
1046,-2.7
1047,-2.7
1048,-2.9
1049,-3.1
1050,-3.1
1051,-3.2
1052,-3.2
1053,-3.1
1054,-2.9
1055,-2.7
1056,-2.7
1057,-2.9
1058,-3
1059,-3
1060,-3.1
1061,-3.3
1062,-3.3
1063,-3.4
1064,-3.5
1065,-3.6
1066,-3.8
1067,-3.7
1068,-3.8
1069,-3.9
1070,-3.9
1071,-3.9
1072,-3.8
1073,-3.8
1074,-3.9
1075,-3.9
1076,-4.1
1077,-4
1078,-4.1
1079,-4
1080,-4
1081,-4
1082,-4.1
1083,-4.2
1084,-4.2
1085,-4.2
1086,-4.2
1087,-4.1
1088,-4.2
1089,-4
1090,-3.7
1091,-3.7
1092,-3.8
1093,-4.1
1094,-4.2
1095,-4.4
1096,-4.1
1097,-3.4
1098,-2.6
1099,-1.5
1100,0
1101,1.9
1102,3.8
1103,5.6
1104,8.7
1105,13
1106,17.3
1107,20.2
1108,22.3
1109,23.4
1110,23.7
1111,21.8
1112,19.5
1113,16.9
1114,13.2
1115,6.8
1116,0.4
1117,-3
1118,-4.9
1119,-6.2
1120,-7.8
1121,-9
1122,-9.6
1123,-9.5
1124,-9.4
1125,-8.5
1126,-7.3
1127,-6.7
1128,-6.1
1129,-5.5
1130,-5.2
1131,-4.9
1132,-4.7
1133,-4.2
1134,-3.9
1135,-3.6
1136,-3.3
1137,-3.3
1138,-3.3
1139,-3.3
1140,-3.3
1141,-3.1
1142,-3
1143,-3
1144,-3.2
1145,-3.4
1146,-3.3
1147,-3.3
1148,-3.3
1149,-3.2
1150,-3.3
1151,-3.4
1152,-3.3
1153,-3.2
1154,-3.1
1155,-3
1156,-2.9
1157,-2.6
1158,-2.7
1159,-2.5
1160,-2.5
1161,-2.7
1162,-3
1163,-2.8
1164,-2.6
1165,-2.5
1166,-2.5
1167,-2.4
1168,-2.2
1169,-2.3
1170,-2.7
1171,-2.6
1172,-2.5
1173,-2.3
1174,-2.3
1175,-2.2
1176,-2.2
1177,-2.2
1178,-2.2
1179,-2
1180,-1.8
1181,-1.8
1182,-1.8
1183,-1.9
1184,-2.1
1185,-2
1186,-1.9
1187,-1.8
1188,-1.8
1189,-1.8
1190,-1.7
1191,-1.6
1192,-1.6
1193,-1.5
1194,-1.5
1195,-1.7
1196,-1.7
1197,-1.7
1198,-1.4
1199,-1.2
1200,-1.3
1201,-1.2
1202,-1.1
1203,-0.9
1204,-0.9
1205,-1
1206,-0.8
1207,-0.7
1208,-0.6
1209,-0.5
1210,-0.4
1211,-0.4
1212,-0.4
1213,-0.2
1214,-0.2
1215,0
1216,0.2
1217,0.4
1218,0.5
1219,0.5
1220,0.4
1221,0.6
1222,0.7
1223,0.9
1224,1
1225,1.1
1226,1.2
1227,1.2
1228,1.6
1229,1.7
1230,1.8
1231,1.9
1232,1.9
1233,2
1234,2
1235,2.3
1236,2.7
1237,2.9
1238,2.9
1239,3
1240,2.9
1241,2.9
1242,2.9
1243,3
1244,3.1
1245,2.9
1246,2.8
1247,2.9
1248,2.8
1249,3
1250,3.1
1251,3
1252,3
1253,3.2
1254,3
1255,2.9
1256,2.9
1257,2.9
1258,2.7
1259,2.8
1260,2.8
1261,2.6
1262,2.4
1263,2.2
1264,2.1
1265,1.9
1266,1.9
1267,1.9
1268,1.8
1269,1.6
1270,1.4
1271,1.2
1272,1.2
1273,1.3
1274,1.2
1275,1
1276,0.5
1277,0.5
1278,0.3
1279,0
1280,-0.1
1281,-0.2
1282,-0.4
1283,-0.4
1284,-0.5
1285,-0.7
1286,-0.6
1287,-0.7
1288,-1
1289,-1.2
1290,-1.2
1291,-1.2
1292,-1.4
1293,-1.5
1294,-1.5
1295,-1.5
1296,-1.6
1297,-1.5
1298,-1.6
1299,-1.7
1300,-1.8
1301,-1.9
1302,-2
1303,-1.8
1304,-1.9
1305,-1.9
1306,-1.9
1307,-2.1
1308,-2.2
1309,-2
1310,-1.9
1311,-1.8
1312,-1.7
1313,-1.9
1314,-1.9
1315,-2
1316,-2.2
1317,-2.4
1318,-2.3
1319,-2.1
1320,-2.1
1321,-2.3
1322,-2.5
1323,-2.5
1324,-2.4
1325,-2.4
1326,-2.3
1327,-2.2
1328,-2.2
1329,-2.5
1330,-2.3
1331,-2.3
1332,-2.3
1333,-2
1334,-2
1335,-1.9
1336,-1.9
1337,-2
1338,-2.1
1339,-2.1
1340,-2.2
1341,-2.3
1342,-2.2
1343,-2.1
1344,-2.1
1345,-2.1
1346,-2.3
1347,-2.2
1348,-1.9
1349,-1.7
1350,-1.9
1351,-1.9
1352,-2.2
1353,-2.4
1354,-2.2
1355,-2.1
1356,-1.9
1357,-1.8
1358,-1.5
1359,-1.6
1360,-1.9
1361,-1.9
1362,-1.9
1363,-1.9
1364,-1.6
1365,-1.6
1366,-1.6
1367,-1.7
1368,-1.7
1369,-1.7
1370,-1.8
1371,-1.8
1372,-1.7
1373,-1.5
1374,-1.1
1375,-1.4
1376,-1.6
1377,-1.7
1378,-1.8
1379,-1.8
1380,-1.6
1381,-1.5
1382,-1.7
1383,-2.1
1384,-2.1
1385,-1.7
1386,-1.7
1387,-1.9
1388,-1.8
1389,-1.7
1390,-1.8
1391,-2
1392,-1.9
1393,-1.7
1394,-1.7
1395,-1.7
1396,-1.4
1397,-1.5
1398,-1.8
1399,-1.9
1400,-1.9
1401,-1.8
1402,-1.7
1403,-1.7
1404,-1.7
1405,-2
1406,-2.3
1407,-2.2
1408,-2.1
1409,-2.3
1410,-2.4
1411,-2.3
1412,-2.2
1413,-2.2
1414,-2.2
1415,-2.2
1416,-2.1
1417,-2.1
1418,-2.1
1419,-2.2
1420,-2.3
1421,-2.3
1422,-2.4
1423,-2.3
1424,-2.2
1425,-2
1426,-2.1
1427,-2
1428,-2.1
1429,-2.2
1430,-2.2
1431,-2.2
1432,-2.4
1433,-2.5
1434,-2.6
1435,-2.5
1436,-2.2
1437,-2.2
1438,-2.3
1439,-2.5
1440,-2.5
1441,-2.5
1442,-2.5
1443,-2.4
1444,-2.4
1445,-2.4
1446,-2.3
1447,-2.5
1448,-2.4
1449,-2.4
1450,-2.3
1451,-2.6
1452,-2.5
1453,-2.6
1454,-2.8
1455,-2.8
1456,-2.8
1457,-2.8
1458,-2.7
1459,-2.7
1460,-2.6
1461,-2.4
1462,-2.5
1463,-2.6
1464,-2.7
1465,-2.9
1466,-2.7
1467,-2.7
1468,-2.8
1469,-2.8
1470,-2.7
1471,-2.6
1472,-2.8
1473,-2.9
1474,-2.7
1475,-2.9
1476,-2.9
1477,-2.7
1478,-2.7
1479,-2.7
1480,-2.7
1481,-2.7
1482,-2.9
1483,-2.8
1484,-2.7
1485,-2.7
1486,-2.2
1487,-1.1
1488,-0.9
1489,-0.7
1490,-0.4
1491,-0.1
1492,0.2
1493,0.5
1494,0.6
1495,0.8
1496,0.7
1497,0.7
1498,0.7
1499,0.6
1500,0.6
1501,0.5
1502,0.8
1503,0.9
1504,0.9
1505,1.1
1506,1.2
1507,1.3
1508,1.4
1509,1.4
1510,1.5
1511,1.6
1512,1.6
1513,1.5
1514,1.5
1515,1.5
1516,1.5
1517,1.4
1518,1.6
1519,1.6
1520,1.7
1521,1.5
1522,1.2
1523,1.2
1524,1.2
1525,1
1526,1
1527,0.9
1528,0.9
1529,0.9
1530,0.8
1531,0.8
1532,0.7
1533,0.6
1534,0.5
1535,0.3
1536,0.3
1537,0.4
1538,0.2
1539,0
1540,0
1541,0
1542,-0.1
1543,-0.2
1544,-0.3
1545,-0.2
1546,-0.2
1547,-0.2
1548,-0.2
1549,-0.2
1550,-0.3
1551,-0.2
1552,-0.1
1553,0.1
1554,0.1
1555,-0.2
1556,-0.3
1557,-0.4
1558,-0.3
1559,-0.2
1560,-0.1
1561,-0.1
1562,-0.3
1563,-0.6
1564,-0.6
1565,-0.5
1566,-0.4
1567,-0.2
1568,0.3
1569,1.3
1570,2.8
1571,4.5
1572,6.5
1573,8.3
1574,11.4
1575,15.8
1576,20.4
1577,23.5
1578,25.5
1579,26.8
1580,27.7
1581,26
1582,23.8
1583,21.3
1584,17.9
1585,12.2
1586,5.4
1587,1.1
1588,-1.4
1589,-3.1
1590,-4.6
1591,-6.3
1592,-7.5
1593,-8.1
1594,-7.8
1595,-7
1596,-6.2
1597,-5.6
1598,-4.7
1599,-3.9
1600,-3.3
1601,-2.6
1602,-2.1
1603,-1.7
1604,-1.4
1605,-1
1606,-0.8
1607,-0.7
1608,-0.8
1609,-1
1610,-0.9
1611,-0.9
1612,-0.7
1613,-0.8
1614,-0.8
1615,-0.7
1616,-0.5
1617,-0.4
1618,-0.4
1619,-0.5
1620,-0.6
1621,-0.7
1622,-0.6
1623,-0.4
1624,-0.4
1625,-0.4
1626,-0.4
1627,-0.4
1628,-0.3
1629,-0.4
1630,-0.6
1631,-0.4
1632,-0.5
1633,-0.7
1634,-0.6
1635,-0.5
1636,-0.4
1637,-0.5
1638,-0.5
1639,-0.4
1640,-0.4
1641,-0.3
1642,-0.2
1643,0
1644,0.1
1645,0
1646,0
1647,0
1648,-0.2
1649,-0.3
1650,-0.4
1651,-0.1
1652,0.1
1653,0.1
1654,0
1655,-0.3
1656,-0.2
1657,0
1658,0
1659,0
1660,0.2
1661,0.5
1662,0.3
1663,0.2
1664,0.5
1665,0.5
1666,0.5
1667,0.5
1668,0.7
1669,0.8
1670,1.2
1671,1
1672,1
1673,0.9
1674,1
1675,1.3
1676,1.2
1677,1.3
1678,1.3
1679,1.3
1680,1.6
1681,1.6
1682,1.7
1683,1.7
1684,1.9
1685,2.1
1686,2.1
1687,2.1
1688,2
1689,2.1
1690,2.2
1691,2.4
1692,2.6
1693,2.6
1694,2.8
1695,2.8
1696,3
1697,3.1
1698,3.3
1699,3.5
1700,3.7
1701,3.7
1702,3.8
1703,3.9
1704,3.9
1705,4
1706,4.1
1707,4.2
1708,4.3
1709,4.2
1710,4.5
1711,4.6
1712,4.7
1713,4.7
1714,4.6
1715,4.6
1716,4.6
1717,4.5
1718,4.6
1719,4.7
1720,4.9
1721,4.8
1722,4.8
1723,4.7
1724,4.6
1725,4.6
1726,4.6
1727,4.7
1728,4.7
1729,4.6
1730,4.5
1731,4.2
1732,4.2
1733,4
1734,3.9
1735,3.8
1736,3.6
1737,3.4
1738,3
1739,2.9
1740,2.8
1741,2.6
1742,2.4
1743,2.2
1744,2.1
1745,1.8
1746,1.7
1747,1.8
1748,1.9
1749,1.8
1750,1.7
1751,1.4
1752,1.1
1753,0.8
1754,0.5
1755,0.5
1756,0.3
1757,0.1
1758,0
1759,0.1
1760,0.1
1761,0
1762,0
1763,0
1764,0
1765,0
1766,-0.1
1767,-0.2
1768,-0.3
1769,-0.5
1770,-0.4
1771,-0.4
1772,-0.5
1773,-0.6
1774,-0.6
1775,-0.7
1776,-0.6
1777,-0.4
1778,-0.4
1779,-0.4
1780,-0.4
1781,-0.5
1782,-0.6
1783,-0.5
1784,-0.6
1785,-0.8
1786,-0.7
1787,-0.7
1788,-0.7
1789,-0.7
1790,-0.4
1791,-0.5
1792,-0.6
1793,-0.6
1794,-0.7
1795,-0.8
1796,-0.8
1797,-0.6
1798,-0.4
1799,-0.4
1800,-0.4
1801,-0.6
1802,-0.5
1803,-0.4
1804,-0.6
1805,-0.5
1806,-0.7
1807,-0.6
1808,-0.4
1809,-0.3
1810,-0.3
1811,-0.2
1812,-0.3
1813,-0.3
1814,-0.4
1815,-0.4
1816,-0.3
1817,-0.2
1818,-0.2
1819,0
1820,0.1
1821,0
1822,0
1823,-0.1
1824,0.1
1825,0.1
1826,0.2
1827,0.2
1828,0.3
1829,0.3
1830,0.3
1831,0.2
1832,0
1833,0
1834,0
1835,0.1
1836,0.1
1837,0.1
1838,0.3
1839,0.4
1840,0.2
1841,0.2
1842,0.2
1843,0.3
1844,0.2
1845,0.2
1846,0.1
1847,0.2
1848,0.4
1849,0.4
1850,0.3
1851,0.2
1852,0.1
1853,0.2
1854,0.2
1855,0.2
1856,0.3
1857,0.4
1858,0.4
1859,0.4
1860,0.5
1861,0.4
1862,0.4
1863,0.3
1864,0.3
1865,0.2
1866,0
1867,0
1868,-0.2
1869,-0.2
1870,0
1871,0
1872,0
1873,-0.1
1874,0
1875,-0.1
1876,0
1877,0
1878,0
1879,-0.1
1880,0
1881,0
1882,0
1883,-0.1
1884,0.1
1885,0.2
1886,-0.1
1887,-0.1
1888,-0.1
1889,-0.2
1890,-0.2
1891,-0.2
1892,-0.1
1893,-0.2
1894,-0.5
1895,-0.5
1896,-0.5
1897,-0.3
1898,-0.2
1899,-0.1
1900,-0.1
1901,-0.2
1902,-0.2
1903,-0.5
1904,-0.7
1905,-0.8
1906,-0.5
1907,-0.3
1908,-0.1
1909,-0.2
1910,-0.1
1911,-0.3
1912,-0.2
1913,-0.2
1914,-0.3
1915,-0.2
1916,-0.2
1917,-0.3
1918,-0.5
1919,-0.6
1920,-0.5
1921,-0.3
1922,-0.4
1923,-0.4
1924,-0.3
1925,-0.3
1926,-0.4
1927,-0.3
1928,-0.3
1929,-0.5
1930,-0.6
1931,-0.5
1932,-0.5
1933,-0.7
1934,-0.9
1935,-0.7
1936,-0.7
1937,-0.9
1938,-1.1
1939,-1
1940,-0.9
1941,-0.9
1942,-0.8
1943,-0.9
1944,-1
1945,-1
1946,-1
1947,-1
1948,-0.8
1949,-0.4
1950,-0.4
1951,-0.6
1952,-0.7
1953,-0.5
1954,-0.6
1955,-0.6
1956,-0.5
1957,-0.6
1958,-0.7
1959,-1
1960,-1.6
1961,-2.1
1962,-2.4
1963,-2.4
1964,-2.4
1965,-2.4
1966,-2.5
1967,-2.6
1968,-2.7
1969,-2.4
1970,-2.3
1971,-2.3
1972,-2.3
1973,-2.1
1974,-2
1975,-2.1
1976,-2.3
1977,-2.3
1978,-2.4
1979,-2.3
1980,-2.2
1981,-2.3
1982,-2.5
1983,-2.5
1984,-2.3
1985,-2.1
1986,-2.3
1987,-2.3
1988,-2.3
1989,-2.4
1990,-2.5
1991,-2.5
1992,-2.5
1993,-2.6
1994,-2.9
1995,-2.8
1996,-2.8
1997,-3
1998,-3.1
1999,-3
2000,-3
2001,-3.2
2002,-3.4
2003,-3.7
2004,-3.7
2005,-3.7
2006,-3.6
2007,-3.6
2008,-3.6
2009,-3.5
2010,-3.3
2011,-3.3
2012,-3.4
2013,-3.5
2014,-3.6
2015,-3.8
2016,-3.6
2017,-3.5
2018,-3.5
2019,-3.2
2020,-3.3
2021,-3.2
2022,-3.2
2023,-3.3
2024,-3.3
2025,-3.6
2026,-3.6
2027,-3.6
2028,-3.5
2029,-3.5
2030,-3.5
2031,-3.6
2032,-3.6
2033,-3.4
2034,-3.2
2035,-2.8
2036,-1.5
2037,0.1
2038,2.1
2039,3.9
2040,5.6
2041,8.5
2042,12.7
2043,17
2044,20.1
2045,22.2
2046,24
2047,24.8
2048,23.4
2049,21.1
2050,18.8
2051,16
2052,10.6
2053,3.8
2054,-0.5
2055,-3.1
2056,-5
2057,-6.5
2058,-8.1
2059,-9.3
2060,-9.8
2061,-9.6
2062,-9.1
2063,-7.8
2064,-7
2065,-6.5
2066,-5.9
2067,-5.4
2068,-4.8
2069,-4.3
2070,-3.9
2071,-3.6
2072,-3.5
2073,-3.5
2074,-3.3
2075,-3.2
2076,-3.2
2077,-3
2078,-3
2079,-3.2
2080,-3.2
2081,-3.1
2082,-3.1
2083,-3.2
2084,-3.1
2085,-3.1
2086,-3
2087,-3
2088,-3.2
2089,-3.1
2090,-2.8
2091,-2.7
2092,-2.9
2093,-2.8
2094,-2.7
2095,-2.6
2096,-2.6
2097,-2.6
2098,-2.7
2099,-2.7
2100,-2.8
2101,-2.8
2102,-2.8
2103,-2.7
2104,-2.2
2105,-2.2
2106,-2.3
2107,-2.3
2108,-2.3
2109,-2.6
2110,-2.6
2111,-2.4
2112,-2.4
2113,-2.3
2114,-2.2
2115,-2.3
2116,-2.3
2117,-2.2
2118,-2.1
2119,-2
2120,-1.9
2121,-1.9
2122,-2
2123,-1.9
2124,-2
2125,-1.9
2126,-1.8
2127,-1.6
2128,-1.6
2129,-1.8
2130,-1.6
2131,-1.7
2132,-1.4
2133,-1.3
2134,-1.4
2135,-1.3
2136,-1.4
2137,-1.3
2138,-1.3
2139,-1.2
2140,-1.3
2141,-1.2
2142,-1
2143,-0.9
2144,-1
2145,-0.9
2146,-0.9
2147,-0.9
2148,-0.8
2149,-0.8
2150,-0.7
2151,-0.5
2152,-0.2
2153,-0.1
2154,0
2155,0.2
2156,0.2
2157,0.3
2158,0.7
2159,0.7
2160,0.6
2161,0.5
2162,0.6
2163,0.6
2164,0.7
2165,0.8
2166,1
2167,1.2
2168,1.3
2169,1.3
2170,1.3
2171,1.6
2172,1.8
2173,2
2174,2
2175,2.2
2176,2.4
2177,2.3
2178,2.3
2179,2.3
2180,2.3
2181,2.5
2182,2.5
2183,2.4
2184,2.5
2185,2.5
2186,2.5
2187,2.5
2188,2.6
2189,2.6
2190,2.6
2191,2.3
2192,2.3
2193,2.2
2194,2.1
2195,2
2196,2
2197,1.9
2198,1.8
2199,1.7
2200,1.8
2201,1.8
2202,1.4
2203,1.2
2204,1.2
2205,1.1
2206,1
2207,0.9
2208,0.7
2209,0.4
2210,0.3
2211,0
2212,-0.1
2213,-0.1
2214,-0.3
2215,-0.6
2216,-0.7
2217,-0.9
2218,-0.9
2219,-1
2220,-1.2
2221,-1.4
2222,-1.5
2223,-1.6
2224,-1.9
2225,-2
2226,-1.9
2227,-1.9
2228,-2.1
2229,-2.3
2230,-2.3
2231,-2.3
2232,-2.2
2233,-2.2
2234,-2.2
2235,-2.3
2236,-2.2
2237,-2.6
2238,-2.8
2239,-2.9
2240,-2.9
2241,-2.8
2242,-2.6
2243,-2.5
2244,-2.5
2245,-2.7
2246,-2.8
2247,-2.8
2248,-2.9
2249,-2.7
2250,-2.7
2251,-2.7
2252,-2.7
2253,-2.7
2254,-2.8
2255,-2.8
2256,-2.8
2257,-3
2258,-2.7
2259,-2.8
2260,-3
2261,-2.9
2262,-2.9
2263,-2.9
2264,-2.9
2265,-2.9
2266,-2.7
2267,-2.6
2268,-2.6
2269,-2.6
2270,-2.5
2271,-2.4
2272,-2.6
2273,-2.7
2274,-2.6
2275,-2.6
2276,-2.6
2277,-2.7
2278,-2.7
2279,-2.8
2280,-2.8
2281,-2.7
2282,-2.7
2283,-2.6
2284,-2.5
2285,-2.5
2286,-2.4
2287,-2.4
2288,-2.4
2289,-2.4
2290,-2.4
2291,-2.4
2292,-2.5
2293,-2.4
2294,-2.5
2295,-2.5
2296,-2.5
2297,-2.3
2298,-2.1
2299,-1.9
2300,-2
2301,-2.1
2302,-2.1
2303,-2
2304,-2
2305,-2.1
2306,-2
2307,-2
2308,-2.1
2309,-2.3
2310,-2.3
2311,-2.3
2312,-2.4
2313,-2.2
2314,-2
2315,-2
2316,-2.1
2317,-2.2
2318,-2.3
2319,-2.2
2320,-2.2
2321,-2.2
2322,-2.3
2323,-2.4
2324,-2.5
2325,-2.3
2326,-2.3
2327,-2.3
2328,-2.3
2329,-2.2
2330,-2
2331,-2.3
2332,-2.3
2333,-2.4
2334,-2.4
2335,-2.1
2336,-2.1
2337,-2.4
2338,-2.4
2339,-2.5
2340,-2.6
2341,-2.6
2342,-2.4
2343,-2.2
2344,-2.3
2345,-2.3
2346,-2.3
2347,-2.2
2348,-2.1
2349,-2.4
2350,-2.5
2351,-2.5
2352,-2.5
2353,-2.6
2354,-2.5
2355,-2.4
2356,-2.5
2357,-2.4
2358,-2.2
2359,-2.3
2360,-2.4
2361,-2.5
2362,-2.6
2363,-2.5
2364,-2.5
2365,-2.5
2366,-2.6
2367,-2.6
2368,-2.7
2369,-2.6
2370,-2.5
2371,-2.8
2372,-2.7
2373,-2.7
2374,-2.7
2375,-2.7
2376,-2.6
2377,-2.3
2378,-2.3
2379,-2.4
2380,-2.4
2381,-2.4
2382,-2.5
2383,-2.7
2384,-2.7
2385,-2.6
2386,-2.6
2387,-2.5
2388,-2.5
2389,-2.7
2390,-2.5
2391,-2.7
2392,-2.7
2393,-2.7
2394,-2.7
2395,-2.6
2396,-2.5
2397,-2.3
2398,-2
2399,-2.1
2400,-2.4
2401,-2.4
2402,-2.4
2403,-2.4
2404,-2.2
2405,-2.4
2406,-2.4
2407,-2.5
2408,-2.4
2409,-2.2
2410,-2.2
2411,-2.2
2412,-2.1
2413,-2
2414,-2
2415,-2.2
2416,-2.3
2417,-2.3
2418,-2.3
2419,-2.5
2420,-2.5
2421,-2.5
2422,-2.2
2423,-2.1
2424,-2.1
2425,-2.3
2426,-2.3
2427,-2.3
2428,-2.4
2429,-2.4
2430,-2.4
2431,-2.2
2432,-2
2433,-2
2434,-2
2435,-2
2436,-2.1
2437,-2
2438,-2.1
2439,-2
2440,-1.9
2441,-2
2442,-2.1
2443,-2.4
2444,-2.3
2445,-2
2446,-1.7
2447,-1.6
2448,-1.4
2449,-1.6
2450,-1.6
2451,-1.7
2452,-1.7
2453,-1.7
2454,-1.9
2455,-2
2456,-1.8
2457,-1.5
2458,-1.3
2459,-1.2
2460,-1.2
2461,-1.2
2462,-1.3
2463,-1.5
2464,-1.5
2465,-1.5
2466,-1.6
2467,-1.5
2468,-1.5
2469,-1.4
2470,-1.3
2471,-1.3
2472,-1.4
2473,-1.4
2474,-1.5
2475,-1.6
2476,-1.5
2477,-1.4
2478,-1.5
2479,-1.8
2480,-1.8
2481,-1.8
2482,-1.9
2483,-2
2484,-2.3
2485,-2.6
2486,-2.7
2487,-2.5
2488,-2.4
2489,-2.5
2490,-2.6
2491,-2.8
2492,-2.8
2493,-2.9
2494,-2.7
2495,-2.7
2496,-2.6
2497,-2.6
2498,-2.8
2499,-2.8
2500,-2.7
2501,-2.5
2502,-2.6
2503,-2.6
2504,-2.5
2505,-2.6
2506,-2.7
2507,-2.9
2508,-2.9
2509,-2.9
2510,-2.8
2511,-2.9
2512,-2.9
2513,-3
2514,-3
2515,-2.9
2516,-2.7
2517,-2.7
2518,-2.6
2519,-2
2520,-1
2521,0.3
2522,2.2
2523,4.2
2524,5.9
2525,8.7
2526,12.8
2527,17.2
2528,20.3
2529,22.5
2530,24.2
2531,25
2532,23.5
2533,21.2
2534,18.8
2535,15.9
2536,10.9
2537,4.2
2538,-0.6
2539,-3.2
2540,-4.9
2541,-6.2
2542,-7.7
2543,-8.3
2544,-8.4
2545,-8.3
2546,-8
2547,-6.9
2548,-6
2549,-5.5
2550,-5
2551,-4.6
2552,-4.2
2553,-3.9
2554,-3.5
2555,-3.1
2556,-3
2557,-2.9
2558,-2.9
2559,-3.1
2560,-3
2561,-2.8
2562,-2.8
2563,-2.8
2564,-2.7
2565,-2.8
2566,-2.8
2567,-2.8
2568,-2.8
2569,-2.6
2570,-2.5
2571,-2.6
2572,-2.6
2573,-2.5
2574,-2.5
2575,-2.6
2576,-2.6
2577,-2.5
2578,-2.4
2579,-2.4
2580,-2.4
2581,-2.4
2582,-2.4
2583,-2.4
2584,-2.2
2585,-2.2
2586,-2.3
2587,-2.3
2588,-2.3
2589,-2.4
2590,-2.4
2591,-2.2
2592,-2.1
2593,-2
2594,-1.8
2595,-1.8
2596,-1.8
2597,-1.9
2598,-1.9
2599,-2
2600,-2.1
2601,-1.9
2602,-1.9
2603,-1.9
2604,-1.8
2605,-1.7
2606,-1.5
2607,-1.4
2608,-1.4
2609,-1.5
2610,-1.7
2611,-1.6
2612,-1.8
2613,-1.8
2614,-1.6
2615,-1.3
2616,-1.1
2617,-1.2
2618,-1.3
2619,-1.1
2620,-1.1
2621,-1
2622,-1
2623,-1.1
2624,-1
2625,-1.1
2626,-1
2627,-1.1
2628,-0.9
2629,-0.5
2630,-0.5
2631,-0.4
2632,-0.3
2633,-0.4
2634,-0.4
2635,-0.4
2636,-0.3
2637,-0.2
2638,-0.1
2639,-0.1
2640,-0.1
2641,0.2
2642,0.1
2643,0
2644,0.5
2645,0.9
2646,1
2647,1
2648,1.2
2649,1.3
2650,1.4
2651,1.6
2652,1.8
2653,1.8
2654,1.7
2655,1.9
2656,1.9
2657,2.2
2658,2.1
2659,2.3
2660,2.3
2661,2.4
2662,2.7
2663,2.8
2664,2.6
2665,2.6
2666,2.4
2667,2.4
2668,2.5
2669,2.6
2670,2.7
2671,2.8
2672,3
2673,3
2674,3
2675,3
2676,2.8
2677,2.6
2678,2.8
2679,2.6
2680,2.6
2681,2.5
2682,2.3
2683,2.3
2684,2.3
2685,2.2
2686,1.9
2687,1.7
2688,1.5
2689,1.4
2690,1
2691,0.8
2692,0.8
2693,0.6
2694,0.5
2695,0.2
2696,0
2697,0.1
2698,0.1
2699,0
2700,-0.2
2701,-0.3
2702,-0.6
2703,-0.9
2704,-0.9
2705,-1
2706,-1
2707,-1.1
2708,-1.4
2709,-1.6
2710,-1.5
2711,-2
2712,-2
2713,-1.9
2714,-2
2715,-2.2
2716,-2.2
2717,-2.3
2718,-2.4
2719,-2.5
2720,-2.3
2721,-2.3
2722,-2.4
2723,-2.5
2724,-2.6
2725,-2.6
2726,-2.4
2727,-2.4
2728,-2.3
2729,-2.3
2730,-2.4
2731,-2.4
2732,-2.3
2733,-2.4
2734,-2.4
2735,-2.3
2736,-2.4
2737,-2.4
2738,-2.4
2739,-2.6
2740,-2.6
2741,-2.7
2742,-2.7
2743,-2.8
2744,-2.8
2745,-2.9
2746,-2.8
2747,-2.5
2748,-2.3
2749,-2.5
2750,-2.5
2751,-2.5
2752,-2.5
2753,-2.5
2754,-2.6
2755,-2.6
2756,-2.6
2757,-2.6
2758,-2.6
2759,-2.5
2760,-2.7
2761,-2.6
2762,-2.6
2763,-2.6
2764,-2.8
2765,-2.6
2766,-2.5
2767,-2.6
2768,-2.7
2769,-2.8
2770,-2.7
2771,-2.7
2772,-2.6
2773,-2.7
2774,-2.5
2775,-2.3
2776,-2.4
2777,-2.5
2778,-2.3
2779,-2.4
2780,-2.6
2781,-2.6
2782,-2.6
2783,-2.8
2784,-2.7
2785,-2.7
2786,-2.7
2787,-2.7
2788,-2.8
2789,-2.6
2790,-2.3
2791,-2.3
2792,-2.4
2793,-2.4
2794,-2.4
2795,-2.6
2796,-2.6
2797,-2.6
2798,-2.7
2799,-2.7
2800,-2.5
2801,-2.5
2802,-2.6
2803,-2.6
2804,-2.5
2805,-2.5
2806,-2.6
2807,-2.5
2808,-2.5
2809,-2.4
2810,-2.5
2811,-2.7
2812,-2.7
2813,-2.7
2814,-2.7
2815,-2.7
2816,-2.9
2817,-2.7
2818,-2.7
2819,-2.8
2820,-2.9
2821,-2.6
2822,-2.7
2823,-2.8
2824,-2.7
2825,-3
2826,-3
2827,-2.9
2828,-2.7
2829,-2.7
2830,-2.8
2831,-3
2832,-2.9
2833,-2.7
2834,-2.9
2835,-2.8
2836,-2.8
2837,-3
2838,-3
2839,-3.1
2840,-3.3
2841,-3.2
2842,-3.2
2843,-3.4
2844,-3.3
2845,-3.1
2846,-3.1
2847,-3.1
2848,-3.2
2849,-3.2
2850,-3.2
2851,-3.1
2852,-3.1
2853,-3.1
2854,-3.2
2855,-3.4
2856,-3.5
2857,-3.7
2858,-3.5
2859,-3.4
2860,-3.5
2861,-3.3
2862,-3.2
2863,-3.1
2864,-3
2865,-2.9
2866,-3
2867,-3.2
2868,-3.3
2869,-3.5
2870,-3.6
2871,-3.7
2872,-3.7
2873,-3.8
2874,-3.8
2875,-3.6
2876,-3.5
2877,-3.5
2878,-3.4
2879,-3.2
2880,-3.2
2881,-3.2
2882,-3.2
2883,-3.2
2884,-3.4
2885,-3.3
2886,-3.3
2887,-3.4
2888,-3.5
2889,-3.4
2890,-3.5
2891,-3.3
2892,-3.3
2893,-3.5
2894,-3.6
2895,-3.6
2896,-3.6
2897,-3.3
2898,-3.3
2899,-3.4
2900,-3.5
2901,-3.6
2902,-3.7
2903,-3.6
2904,-3.6
2905,-3.5
2906,-3.4
2907,-3.5
2908,-3.6
2909,-3.5
2910,-3.4
2911,-3.3
2912,-3.2
2913,-3.3
2914,-3.5
2915,-3.5
2916,-3.3
2917,-3.3
2918,-3.5
2919,-3.6
2920,-3.7
2921,-3.5
2922,-3.2
2923,-3.2
2924,-3.4
2925,-3.4
2926,-3.5
2927,-3.5
2928,-3.4
2929,-3.2
2930,-3.3
2931,-3.5
2932,-3.4
2933,-3.2
2934,-3.1
2935,-3.2
2936,-3.3
2937,-3.3
2938,-3.3
2939,-3.2
2940,-2.9
2941,-2.8
2942,-3
2943,-2.9
2944,-2.8
2945,-3.1
2946,-2.9
2947,-2.7
2948,-2.6
2949,-2.5
2950,-2.5
2951,-2.6
2952,-2.7
2953,-2.7
2954,-2.6
2955,-2.6
2956,-2.5
2957,-2.5
2958,-2.7
2959,-2.7
2960,-2.7
2961,-2.9
2962,-2.8
2963,-2.5
2964,-2.6
2965,-2.8
2966,-2.9
2967,-2.9
2968,-3.2
2969,-3.4
2970,-3.4
2971,-3.7
2972,-3.8
2973,-3.9
2974,-3.9
2975,-3.8
2976,-3.6
2977,-3.6
2978,-3.6
2979,-3.7
2980,-3.9
2981,-3.8
2982,-3.8
2983,-3.9
2984,-3.8
2985,-3.8
2986,-3.8
2987,-3.7
2988,-3.5
2989,-3.7
2990,-3.5
2991,-3.5
2992,-3.7
2993,-3.8
2994,-3.8
2995,-3.7
2996,-3.7
2997,-3.7
2998,-3.7
2999,-3.6
3000,-3.8
3001,-4.1
3002,-4.1
3003,-4
3004,-3.6
3005,-3
3006,-2.3
3007,-1.2
3008,0.6
3009,2.6
3010,4.2
3011,6.4
3012,9.9
3013,14.5
3014,18.4
3015,20.9
3016,23
3017,24.3
3018,23.7
3019,21.3
3020,18.9
3021,16.1
3022,12
3023,5.2
3024,-0.3
3025,-3.1
3026,-4.5
3027,-6
3028,-7.7
3029,-8.9
3030,-9.4
3031,-9.4
3032,-9.1
3033,-8
3034,-7
3035,-6.6
3036,-6
3037,-5.3
3038,-4.8
3039,-4.4
3040,-4.1
3041,-3.8
3042,-3.5
3043,-3.4
3044,-3.3
3045,-3.3
3046,-3.3
3047,-3.2
3048,-3.1
3049,-3.2
3050,-3.2
3051,-3.1
3052,-3
3053,-3
3054,-3.2
3055,-3.2
3056,-3.2
3057,-3.1
3058,-2.9
3059,-2.7
3060,-2.7
3061,-2.7
3062,-2.7
3063,-2.7
3064,-2.8
3065,-2.9
3066,-2.8
3067,-2.7
3068,-2.7
3069,-2.6
3070,-2.6
3071,-2.6
3072,-2.6
3073,-2.5
3074,-2.3
3075,-2.4
3076,-2.3
3077,-2.4
3078,-2.4
3079,-2.4
3080,-2.4
3081,-2.2
3082,-2.1
3083,-2
3084,-2
3085,-2.1
3086,-2.1
3087,-2.1
3088,-2.3
3089,-2.2
3090,-2
3091,-1.9
3092,-1.7
3093,-1.7
3094,-1.8
3095,-1.8
3096,-1.7
3097,-1.7
3098,-1.9
3099,-1.9
3100,-1.8
3101,-1.9
3102,-1.7
3103,-1.7
3104,-1.5
3105,-1.3
3106,-1.4
3107,-1.6
3108,-1.5
3109,-1.5
3110,-1.5
3111,-1.2
3112,-1.1
3113,-1.1
3114,-1.1
3115,-1
3116,-1
3117,-0.9
3118,-0.9
3119,-0.9
3120,-0.8
3121,-0.7
3122,-0.5
3123,-0.1
3124,0.1
3125,0.3
3126,0.4
3127,0.2
3128,0.5
3129,0.6
3130,0.9
3131,0.9
3132,0.9
3133,0.9
3134,0.9
3135,1.1
3136,1.2
3137,1
3138,1.4
3139,1.6
3140,1.7
3141,1.8
3142,2
3143,1.8
3144,2
3145,2.4
3146,2.5
3147,2.4
3148,2.4
3149,2.5
3150,2.5
3151,2.7
3152,2.7
3153,2.7
3154,2.7
3155,2.8
3156,3
3157,3
3158,2.8
3159,2.9
3160,2.9
3161,3.1
3162,3
3163,3
3164,2.7
3165,2.7
3166,2.8
3167,2.8
3168,2.6
3169,2.4
3170,2.1
3171,1.9
3172,1.9
3173,1.8
3174,1.7
3175,1.6
3176,1.6
3177,1.4
3178,1.1
3179,0.7
3180,0.6
3181,0.6
3182,0.4
3183,0.3
3184,0.1
3185,0
3186,0
3187,-0.1
3188,-0.3
3189,-0.5
3190,-0.6
3191,-0.8
3192,-1
3193,-1.1
3194,-1.1
3195,-1.1
3196,-1.1
3197,-1.3
3198,-1.3
3199,-1.3
3200,-1.3
3201,-1.6
3202,-1.8
3203,-1.8
3204,-1.8
3205,-1.8
3206,-1.9
3207,-2
3208,-2.1
3209,-2.3
3210,-2
3211,-2.2
3212,-2.4
3213,-2.3
3214,-1.9
3215,-1.9
3216,-1.8
3217,-1.8
3218,-1.4
3219,-1.4
3220,-1.5
3221,-1.5
3222,-1.7
3223,-1.8
3224,-1.8
3225,-1.8
3226,-1.7
3227,-1.6
3228,-1.6
3229,-1.7
3230,-1.9
3231,-2.1
3232,-2.2
3233,-2
3234,-1.7
3235,-1.6
3236,-1.6
3237,-1.6
3238,-1.7
3239,-1.8
3240,-1.7
3241,-1.7
3242,-1.8
3243,-1.8
3244,-1.8
3245,-1.8
3246,-1.8
3247,-1.8
3248,-1.9
3249,-1.6
3250,-1.7
3251,-1.7
3252,-1.6
3253,-1.6
3254,-1.7
3255,-1.7
3256,-1.5
3257,-1.4
3258,-1.6
3259,-1.7
3260,-1.8
3261,-1.4
3262,-1.5
3263,-1.4
3264,-1.5
3265,-1.6
3266,-1.8
3267,-1.8
3268,-1.6
3269,-1.5
3270,-1.3
3271,-1.2
3272,-1.1
3273,-1.1
3274,-1.2
3275,-1.2
3276,-1
3277,-0.9
3278,-1
3279,-1.1
3280,-1.4
3281,-1.5
3282,-1.5
3283,-1.5
3284,-1.5
3285,-1.6
3286,-1.4
3287,-1.1
3288,-0.9
3289,-1.1
3290,-1.2
3291,-1.3
3292,-1.3
3293,-1.3
3294,-1.5
3295,-1.4
3296,-1.5
3297,-1.5
3298,-1.4
3299,-1.1
3300,-1
3301,-1.1
3302,-1.4
3303,-1.4
3304,-1.3
3305,-1.4
3306,-1.6
3307,-1.5
3308,-1.5
3309,-1.4
3310,-1.2
3311,-1.3
3312,-1.3
3313,-1.1
3314,-1.2
3315,-1.4
3316,-1.2
3317,-1.1
3318,-1.4
3319,-1.5
3320,-1.7
3321,-1.6
3322,-1.7
3323,-1.6
3324,-1.5
3325,-1.8
3326,-2
3327,-1.9
3328,-1.7
3329,-1.7
3330,-1.7
3331,-1.8
3332,-1.8
3333,-1.8
3334,-1.7
3335,-1.7
3336,-1.5
3337,-1.3
3338,-1.2
3339,-1.4
3340,-1.4
3341,-1.2
3342,-1.5
3343,-1.7
3344,-1.6
3345,-1.6
3346,-1.7
3347,-1.7
3348,-1.6
3349,-1.6
3350,-1.7
3351,-1.5
3352,-1.5
3353,-1.7
3354,-1.9
3355,-2
3356,-2
3357,-1.9
3358,-1.8
3359,-1.9
3360,-1.8
3361,-1.9
3362,-1.8
3363,-1.7
3364,-1.7
3365,-1.6
3366,-1.5
3367,-1.6
3368,-1.6
3369,-1.6
3370,-1.3
3371,-1.3
3372,-1.3
3373,-1.6
3374,-1.9
3375,-1.8
3376,-1.6
3377,-1.6
3378,-1.9
3379,-2
3380,-2.2
3381,-2.1
3382,-2
3383,-2.1
3384,-1.9
3385,-1.8
3386,-1.7
3387,-1.6
3388,-1.4
3389,-1.4
3390,-1.2
3391,-1.2
3392,-1.4
3393,-1.5
3394,-1.4
3395,-1.4
3396,-1.2
3397,-0.9
3398,-0.9
3399,-0.9
3400,-0.9
3401,-0.9
3402,-0.9
3403,-0.9
3404,-0.8
3405,-0.8
3406,-0.8
3407,-0.8
3408,-0.9
3409,-0.8
3410,-0.5
3411,-0.4
3412,-0.4
3413,-0.3
3414,-0.3
3415,-0.1
3416,0.2
3417,0
3418,-0.1
3419,-0.1
3420,-0.1
3421,-0.1
3422,-0.1
3423,-0.2
3424,-0.2
3425,-0.4
3426,-0.4
3427,-0.3
3428,-0.3
3429,-0.3
3430,-0.3
3431,-0.3
3432,-0.4
3433,-0.6
3434,-0.6
3435,-0.7
3436,-1
3437,-1.3
3438,-1.5
3439,-1.4
3440,-1.3
3441,-1.2
3442,-1.3
3443,-1.2
3444,-1.2
3445,-1.4
3446,-1.6
3447,-1.6
3448,-1.4
3449,-1.4
3450,-1.5
3451,-1.5
3452,-1.6
3453,-1.7
3454,-1.9
3455,-1.9
3456,-1.7
3457,-1.5
3458,-1.5
3459,-1.7
3460,-1.4
3461,-1.4
3462,-1.3
3463,-1.4
3464,-1.4
3465,-1.3
3466,-1.4
3467,-1.6
3468,-1.4
3469,-1.4
3470,-1.3
3471,-0.9
3472,-0.1
3473,1
3474,2.6
3475,5
3476,7.1
3477,9.6
3478,13.3
3479,18.2
3480,21.8
3481,24.1
3482,25.7
3483,26.5
3484,25.9
3485,23.9
3486,21.9
3487,19
3488,13.9
3489,7
3490,1.7
3491,-1.2
3492,-2.9
3493,-4.3
3494,-6
3495,-7.2
3496,-8.1
3497,-8.3
3498,-7.7
3499,-7
3500,-6.3
3501,-5.7
3502,-4.9
3503,-4.2
3504,-3.9
3505,-3.4
3506,-2.9
3507,-2.4
3508,-1.9
3509,-1.7
3510,-1.7
3511,-1.7
3512,-1.5
3513,-1.5
3514,-1.6
3515,-1.6
3516,-1.6
3517,-1.6
3518,-1.6
3519,-1.6
3520,-1.6
3521,-1.1
3522,-1
3523,-1
3524,-1.2
3525,-1.2
3526,-1.1
3527,-1.1
3528,-1.1
3529,-1.2
3530,-1
3531,-0.8
3532,-0.9
3533,-1.2
3534,-1.3
3535,-1.2
3536,-1.1
3537,-1.2
3538,-1.3
3539,-1
3540,-1
3541,-0.9
3542,-0.9
3543,-0.9
3544,-0.7
3545,-0.7
3546,-1
3547,-0.9
3548,-0.9
3549,-0.7
3550,-0.6
3551,-0.6
3552,-0.6
3553,-0.6
3554,-0.5
3555,-0.5
3556,-0.5
3557,-0.6
3558,-0.6
3559,-0.5
3560,-0.4
3561,-0.4
3562,-0.4
3563,-0.4
3564,-0.2
3565,-0.1
3566,-0.1
3567,-0.2
3568,-0.2
3569,0.1
3570,0.2
3571,0.2
3572,0.2
3573,0.1
3574,0
3575,0
3576,0
3577,0.4
3578,0.6
3579,0.4
3580,0.6
3581,0.8
3582,0.8
3583,1
3584,1.1
3585,1
3586,0.9
3587,1
3588,1
3589,1
3590,1.5
3591,1.9
3592,1.9
3593,1.8
3594,1.6
3595,1.8
3596,2.2
3597,2.4
3598,2.6
3599,2.7
3600,2.8
3601,3
3602,3.1
3603,3.2
3604,3.2
3605,3.1
3606,3.1
3607,3.2
3608,3.5
3609,3.6
3610,3.6
3611,3.6
3612,3.6
3613,3.6
3614,3.8
3615,3.8
3616,3.8
3617,3.8
3618,4.1
3619,4.3
3620,4.4
3621,4.4
3622,4.1
3623,4
3624,4
3625,4.1
3626,3.9
3627,4
3628,4.1
3629,4
3630,3.9
3631,3.7
3632,3.5
3633,3.3
3634,3.3
3635,3.2
3636,3
3637,2.9
3638,2.8
3639,2.7
3640,2.6
3641,2.6
3642,2.5
3643,2.4
3644,2.4
3645,2.1
3646,1.8
3647,1.8
3648,1.6
3649,1.6
3650,1.4
3651,1
3652,1
3653,0.7
3654,0.6
3655,0.4
3656,0.1
3657,0
3658,-0.1
3659,-0.4
3660,-0.4
3661,-0.5
3662,-0.6
3663,-0.5
3664,-0.5
3665,-0.7
3666,-0.8
3667,-0.7
3668,-0.6
3669,-0.7
3670,-0.7
3671,-0.9
3672,-1.1
3673,-1.2
3674,-1.3
3675,-1.3
3676,-1.4
3677,-1.6
3678,-1.5
3679,-1.5
3680,-1.4
3681,-1.4
3682,-1.4
3683,-1.6
3684,-1.5
3685,-1.5
3686,-1.5
3687,-1.5
3688,-1.3
3689,-1.3
3690,-1.2
3691,-1.4
3692,-1.6
3693,-1.7
3694,-1.6
3695,-1.5
3696,-1.6
3697,-1.4
3698,-1.5
3699,-1.5
3700,-1.6
3701,-1.7
3702,-1.6
3703,-1.5
3704,-1.3
3705,-1.4
3706,-1.3
3707,-1.6
3708,-1.7
3709,-1.7
3710,-1.5
3711,-1.5
3712,-1.5
3713,-1.4
3714,-1.5
3715,-1.5
3716,-1.4
3717,-1.2
3718,-1.1
3719,-1.2
3720,-1.3
3721,-1.2
3722,-1
3723,-1
3724,-1
3725,-1.2
3726,-1.2
3727,-1
3728,-1
3729,-0.9
3730,-0.9
3731,-0.9
3732,-0.9
3733,-0.9
3734,-0.9
3735,-0.9
3736,-1.1
3737,-0.9
3738,-0.9
3739,-0.8
3740,-0.8
3741,-0.9
3742,-1
3743,-0.9
3744,-0.9
3745,-1
3746,-1
3747,-0.9
3748,-0.9
3749,-0.7
3750,-0.6
3751,-0.7
3752,-0.8
3753,-0.9
3754,-0.9
3755,-1.1
3756,-1.1
3757,-1.1
3758,-0.9
3759,-0.9
3760,-1.1
3761,-1.3
3762,-1.2
3763,-1.2
3764,-1.1
3765,-1.1
3766,-1.1
3767,-1.1
3768,-1.3
3769,-1.4
3770,-1.2
3771,-1.1
3772,-1.2
3773,-1.1
3774,-1.1
3775,-1.1
3776,-1.2
3777,-1.2
3778,-1.4
3779,-1.5
3780,-1.6
3781,-1.6
3782,-1.6
3783,-1.5
3784,-1.6
3785,-1.4
3786,-1.5
3787,-1.4
3788,-1.5
3789,-1.6
3790,-1.7
3791,-1.8
3792,-1.9
3793,-1.6
3794,-1.6
3795,-1.7
3796,-1.7
3797,-1.8
3798,-1.6
3799,-1.5
3800,-1.7
3801,-1.7
3802,-1.6
3803,-1.6
3804,-1.7
3805,-1.8
3806,-1.8
3807,-1.8
3808,-1.9
3809,-1.8
3810,-1.7
3811,-1.7
3812,-1.8
3813,-1.8
3814,-1.9
3815,-1.9
3816,-1.9
3817,-1.7
3818,-1.7
3819,-1.9
3820,-2
3821,-1.9
3822,-2
3823,-2
3824,-2
3825,-2
3826,-2.1
3827,-2
3828,-1.7
3829,-1.8
3830,-1.8
3831,-2
3832,-2.1
3833,-2
3834,-2.2
3835,-2.1
3836,-2
3837,-1.9
3838,-2
3839,-2.1
3840,-2.1
3841,-2.2
3842,-2.3
3843,-2.3
3844,-2.3
3845,-2.1
3846,-2.2
3847,-2.1
3848,-2.2
3849,-2.4
3850,-2.4
3851,-2.2
3852,-2.3
3853,-2.2
3854,-2.2
3855,-2.2
3856,-2.1
3857,-1.9
3858,-1.8
3859,-1.8
3860,-1.8
3861,-1.5
3862,-1.4
3863,-1.7
3864,-1.7
3865,-1.4
3866,-1.6
3867,-1.8
3868,-1.7
3869,-1.5
3870,-1.6
3871,-1.7
3872,-1.7
3873,-1.7
3874,-1.5
3875,-1.4
3876,-1.2
3877,-1.2
3878,-1.2
3879,-1.2
3880,-1.1
3881,-1.1
3882,-1.1
3883,-1.1
3884,-1
3885,-0.9
3886,-0.9
3887,-1.1
3888,-1.3
3889,-1.4
3890,-1.4
3891,-1.2
3892,-1.4
3893,-1.6
3894,-1.6
3895,-1.7
3896,-1.7
3897,-1.9
3898,-1.8
3899,-1.9
3900,-2.1
3901,-2.4
3902,-2.6
3903,-2.6
3904,-2.4
3905,-2.4
3906,-2.5
3907,-2.5
3908,-2.3
3909,-2.5
3910,-2.4
3911,-2.4
3912,-2.6
3913,-2.8
3914,-2.9
3915,-2.9
3916,-2.8
3917,-2.8
3918,-2.8
3919,-2.8
3920,-2.7
3921,-2.6
3922,-2.5
3923,-2.6
3924,-2.6
3925,-2.3
3926,-2.3
3927,-2.4
3928,-2.5
3929,-2.7
3930,-2.9
3931,-2.9
3932,-2.7
3933,-2.7
3934,-2
3935,-1
3936,0.5
3937,2.3
3938,4.2
3939,6
3940,8.8
3941,13.2
3942,17.8
3943,20.7
3944,22.8
3945,24.6
3946,25.4
3947,24.2
3948,22.2
3949,20
3950,17
3951,11.7
3952,5.2
3953,0.6
3954,-2
3955,-3.8
3956,-5.5
3957,-7.2
3958,-8.1
3959,-8.3
3960,-8
3961,-7.6
3962,-6.9
3963,-6.4
3964,-5.9
3965,-5.2
3966,-4.6
3967,-4.1
3968,-3.8
3969,-3.4
3970,-3
3971,-2.8
3972,-2.8
3973,-2.9
3974,-2.7
3975,-2.6
3976,-2.7
3977,-2.7
3978,-2.7
3979,-2.7
3980,-2.7
3981,-2.5
3982,-2.5
3983,-2.5
3984,-2.5
3985,-2.4
3986,-2.4
3987,-2.3
3988,-2.5
3989,-2.3
3990,-2.3
3991,-2.3
3992,-2.6
3993,-2.4
3994,-2.2
3995,-2.4
3996,-2.3
3997,-2.2
3998,-2.1
3999,-2
4000,-2
4001,-2.1
4002,-2.1
4003,-1.9
4004,-1.9
4005,-2
4006,-2
4007,-1.9
4008,-1.9
4009,-1.7
4010,-1.7
4011,-1.8
4012,-1.9
4013,-1.9
4014,-1.9
4015,-1.8
4016,-1.7
4017,-1.6
4018,-1.7
4019,-1.8
4020,-1.9
4021,-1.8
4022,-1.6
4023,-1.5
4024,-1.3
4025,-1.3
4026,-1.1
4027,-1.1
4028,-1.2
4029,-1.5
4030,-1.4
4031,-1.3
4032,-1.2
4033,-1.1
4034,-1.1
4035,-1.2
4036,-1.2
4037,-1
4038,-0.8
4039,-0.7
4040,-0.6
4041,-0.6
4042,-0.6
4043,-0.6
4044,-0.6
4045,-0.5
4046,-0.4
4047,-0.4
4048,-0.2
4049,0
4050,-0.1
4051,-0.2
4052,-0.1
4053,0.1
4054,0.4
4055,0.5
4056,0.5
4057,0.6
4058,0.8
4059,1
4060,1.2
4061,1.2
4062,1.1
4063,1.2
4064,1.3
4065,1.4
4066,1.6
4067,1.8
4068,1.7
4069,1.8
4070,1.8
4071,1.9
4072,2
4073,2.2
4074,2.2
4075,2.2
4076,2.2
4077,2.3
4078,2.6
4079,2.7
4080,2.8
4081,2.8
4082,2.8
4083,2.9
4084,3.1
4085,3.1
4086,2.8
4087,2.9
4088,3
4089,2.9
4090,2.8
4091,2.7
4092,2.8
4093,2.6
4094,2.4
4095,2.4
4096,2.4
4097,2.3
4098,2.2
4099,2.2
4100,2.1
4101,2
4102,1.8
4103,1.5
4104,1.4
4105,1.1
4106,1.1
4107,1.2
4108,1.1
4109,1.1
4110,0.9
4111,0.7
4112,0.5
4113,0.3
4114,0.1
4115,-0.1
4116,-0.1
4117,-0.2
4118,-0.5
4119,-0.6
4120,-0.8
4121,-0.9
4122,-0.9
4123,-0.8
4124,-1
4125,-1.1
4126,-1.4
4127,-1.4
4128,-1.4
4129,-1.5
4130,-1.6
4131,-1.7
4132,-1.7
4133,-1.7
4134,-1.7
4135,-1.8
4136,-1.9
4137,-1.7
4138,-1.7
4139,-1.7
4140,-1.7
4141,-1.8
4142,-1.9
4143,-1.9
4144,-2
4145,-1.7
4146,-1.8
4147,-1.9
4148,-2
4149,-2.1
4150,-2
4151,-2.1
4152,-2.3
4153,-2.2
4154,-2.2
4155,-2.2
4156,-2.2
4157,-2.2
4158,-2.3
4159,-2.3
4160,-2.2
4161,-1.9
4162,-2
4163,-1.8
4164,-1.8
4165,-2
4166,-2.1
4167,-2.2
4168,-2.2
4169,-2.2
4170,-2.2
4171,-2.1
4172,-2.2
4173,-2.1
4174,-1.9
4175,-1.9
4176,-1.8
4177,-1.9
4178,-1.7
4179,-1.6
4180,-2
4181,-2.1
4182,-2.1
4183,-2.1
4184,-2
4185,-1.9
4186,-1.9
4187,-1.9
4188,-2
4189,-2
4190,-1.9
4191,-2.1
4192,-2
4193,-2
4194,-2
4195,-1.9
4196,-1.7
4197,-1.7
4198,-1.6
4199,-1.7
4200,-1.7
4201,-1.6
4202,-1.6
4203,-1.6
4204,-1.6
4205,-1.6
4206,-1.7
4207,-1.7
4208,-1.7
4209,-1.4
4210,-1.6
4211,-1.6
4212,-1.5
4213,-1.5
4214,-1.6
4215,-1.5
4216,-1.5
4217,-1.5
4218,-1.5
4219,-1.5
4220,-1.7
4221,-1.6
4222,-1.8
4223,-1.7
4224,-1.7
4225,-1.7
4226,-1.7
4227,-1.9
4228,-1.8
4229,-1.8
4230,-2
4231,-1.9
4232,-1.9
4233,-2
4234,-1.7
4235,-1.7
4236,-1.7
4237,-1.8
4238,-2.1
4239,-2.1
4240,-2
4241,-1.9
4242,-2
4243,-2
4244,-2
4245,-2
4246,-1.9
4247,-1.7
4248,-1.9
4249,-1.9
4250,-2
4251,-2.1
4252,-2.1
4253,-2.3
4254,-2.2
4255,-2.1
4256,-2.1
4257,-2.2
4258,-2.1
4259,-2.1
4260,-2.2
4261,-2.3
4262,-2.1
4263,-2
4264,-2
4265,-2.1
4266,-2.1
4267,-2.2
4268,-2.2
4269,-2.2
4270,-2.2
4271,-2.3
4272,-2.3
4273,-2.4
4274,-2.3
4275,-2.4
4276,-2.3
4277,-2.5
4278,-2.7
4279,-2.5
4280,-2.3
4281,-2.1
4282,-2.1
4283,-2.2
4284,-2.3
4285,-2.4
4286,-2.4
4287,-2.3
4288,-2.2
4289,-2.2
4290,-2.2
4291,-2.4
4292,-2.4
4293,-2.6
4294,-2.6
4295,-2.3
4296,-2.4
4297,-2.6
4298,-2.3
4299,-2.2
4300,-2.4
4301,-2.6
4302,-2.5
4303,-2.5
4304,-2.5
4305,-2.4
4306,-2.3
4307,-2.3
4308,-2.1
4309,-2.3
4310,-2.2
4311,-2.2
4312,-2.3
4313,-2.4
4314,-2.2
4315,-2.1
4316,-2.2
4317,-2.3
4318,-2.3
4319,-2.2
4320,-2.2
4321,-2.2
4322,-2.2
4323,-2.1
4324,-2.2
4325,-2.4
4326,-2.3
4327,-2.3
4328,-2.4
4329,-2.3
4330,-2.2
4331,-2.2
4332,-2.1
4333,-1.8
4334,-1.8
4335,-1.8
4336,-1.9
4337,-2
4338,-1.8
4339,-1.9
4340,-1.7
4341,-1.6
4342,-1.5
4343,-1.5
4344,-1.6
4345,-1.6
4346,-1.4
4347,-1.2
4348,-1.3
4349,-1.4
4350,-1.6
4351,-1.6
4352,-1.5
4353,-1.3
4354,-1.2
4355,-1.2
4356,-1.3
4357,-1.6
4358,-1.7
4359,-1.9
4360,-1.7
4361,-1.7
4362,-1.7
4363,-1.6
4364,-1.6
4365,-1.7
4366,-1.7
4367,-1.7
4368,-1.8
4369,-2
4370,-2.2
4371,-2.4
4372,-2.4
4373,-2.3
4374,-2.4
4375,-2.5
4376,-2.6
4377,-2.8
4378,-2.7
4379,-2.7
4380,-2.7
4381,-2.7
4382,-2.7
4383,-2.8
4384,-2.8
4385,-2.8
4386,-2.8
4387,-2.9
4388,-2.8
4389,-2.8
4390,-2.8
4391,-2.6
4392,-2.7
4393,-3
4394,-3
4395,-2.9
4396,-2.8
4397,-2.6
4398,-2.7
4399,-3.1
4400,-3.1
4401,-3
4402,-3
4403,-2.6
4404,-1.7
4405,-0.3
4406,1.5
4407,3.3
4408,4.6
4409,6.6
4410,10.1
4411,14.6
4412,18.5
4413,21.1
4414,23
4415,24
4416,23.9
4417,22
4418,19.8
4419,16.8
4420,12.9
4421,6.8
4422,1.4
4423,-1.8
4424,-3.5
4425,-5.1
4426,-6.9
4427,-7.8
4428,-8.1
4429,-8.3
4430,-8.2
4431,-7.4
4432,-6.4
4433,-5.8
4434,-5.2
4435,-4.8
4436,-4.4
4437,-4.3
4438,-4
4439,-3.7
4440,-3.3
4441,-3.1
4442,-3.3
4443,-3.1
4444,-3
4445,-2.9
4446,-2.9
4447,-2.9
4448,-2.8
4449,-2.5
4450,-2.4
4451,-2.6
4452,-2.8
4453,-2.8
4454,-2.8
4455,-2.9
4456,-2.8
4457,-2.8
4458,-2.8
4459,-3
4460,-2.8
4461,-2.8
4462,-2.8
4463,-2.8
4464,-2.8
4465,-3
4466,-2.7
4467,-2.6
4468,-2.5
4469,-2.3
4470,-2.5
4471,-2.8
4472,-2.8
4473,-2.6
4474,-2.5
4475,-2.5
4476,-2.5
4477,-2.6
4478,-2.7
4479,-2.6
4480,-2.3
4481,-2.1
4482,-2.1
4483,-2.3
4484,-2.5
4485,-2.5
4486,-2.4
4487,-2.5
4488,-2.3
4489,-2.1
4490,-2.2
4491,-2.1
4492,-2.1
4493,-1.9
4494,-2
4495,-2.2
4496,-2.1
4497,-1.8
4498,-1.8
4499,-1.9
4500,-1.9
4501,-1.8
4502,-1.9
4503,-1.8
4504,-1.4
4505,-1.2
4506,-1.3
4507,-1.3
4508,-1.5
4509,-1.3
4510,-1.2
4511,-1.1
4512,-1.1
4513,-1.2
4514,-1.1
4515,-1.1
4516,-1.3
4517,-1.2
4518,-1.1
4519,-1.1
4520,-0.9
4521,-0.8
4522,-0.6
4523,-0.6
4524,-0.7
4525,-0.6
4526,-0.3
4527,-0.3
4528,-0.2
4529,0
4530,0.2
4531,0.4
4532,0.4
4533,0.5
4534,0.6
4535,0.7
4536,0.7
4537,0.9
4538,1.2
4539,1.2
4540,1.3
4541,1.5
4542,1.6
4543,1.6
4544,1.6
4545,1.6
4546,1.3
4547,1.3
4548,1.5
4549,1.7
4550,1.7
4551,1.6
4552,1.7
4553,1.9
4554,1.9
4555,2.1
4556,2.1
4557,2
4558,2
4559,1.8
4560,1.9
4561,1.9
4562,1.9
4563,1.9
4564,1.8
4565,1.6
4566,1.3
4567,1.3
4568,1.4
4569,1.2
4570,1.1
4571,1.1
4572,0.9
4573,0.7
4574,0.6
4575,0.2
4576,0
4577,-0.2
4578,-0.3
4579,-0.4
4580,-0.4
4581,-0.5
4582,-0.5
4583,-0.8
4584,-0.9
4585,-1
4586,-1.3
4587,-1.5
4588,-1.8
4589,-1.8
4590,-1.9
4591,-2
4592,-2.1
4593,-2.3
4594,-2.4
4595,-2.5
4596,-2.4
4597,-2.4
4598,-2.5
4599,-2.7
4600,-2.9
4601,-2.8
4602,-2.6
4603,-2.9
4604,-3
4605,-2.9
4606,-3.1
4607,-3.2
4608,-3.1
4609,-3
4610,-2.9
4611,-3.2
4612,-3.2
4613,-3.1
4614,-3.3
4615,-3.3
4616,-3.3
4617,-3.4
4618,-3.3
4619,-3.3
4620,-3.4
4621,-3.2
4622,-3
4623,-3.1
4624,-3.2
4625,-3.2
4626,-3.3
4627,-3.4
4628,-3.5
4629,-3.3
4630,-3.3
4631,-3.1
4632,-3.2
4633,-3.3
4634,-3.3
4635,-3.3
4636,-3.3
4637,-3.2
4638,-3.2
4639,-3.2
4640,-3.2
4641,-3.2
4642,-3.3
4643,-3.4
4644,-3.4
4645,-3.3
4646,-3.2
4647,-3.2
4648,-3.2
4649,-3.2
4650,-3.1
4651,-3.2
4652,-3.5
4653,-3.4
4654,-3.4
4655,-3.6
4656,-3.5
4657,-3.2
4658,-3.1
4659,-3
4660,-3.1
4661,-3.1
4662,-3.2
4663,-3.1
4664,-3.1
4665,-2.9
4666,-2.9
4667,-2.9
4668,-3
4669,-2.9
4670,-2.9
4671,-3
4672,-3.1
4673,-3.1
4674,-3
4675,-2.9
4676,-3
4677,-3
4678,-3.1
4679,-3.3
4680,-3.2
4681,-3.1
4682,-3
4683,-3.1
4684,-3.1
4685,-3.3
4686,-3.3
4687,-3.1
4688,-3.1
4689,-3.1
4690,-3
4691,-3
4692,-3
4693,-3.2
4694,-3.1
4695,-3
4696,-3.2
4697,-3.3
4698,-3.5
4699,-3.5
4700,-3.5
4701,-3.3
4702,-3.2
4703,-3.3
4704,-3.5
4705,-3.4
4706,-3.6
4707,-3.5
4708,-3.5
4709,-3.4
4710,-3.4
4711,-3.6
4712,-3.5
4713,-3.7
4714,-4
4715,-3.9
4716,-3.8
4717,-3.7
4718,-3.6
4719,-3.6
4720,-3.8
4721,-3.6
4722,-3.6
4723,-3.7
4724,-3.8
4725,-3.9
4726,-4
4727,-4
4728,-3.8
4729,-3.8
4730,-3.9
4731,-3.8
4732,-3.8
4733,-3.9
4734,-4
4735,-4
4736,-3.8
4737,-3.7
4738,-3.7
4739,-3.9
4740,-4
4741,-4
4742,-4
4743,-3.9
4744,-4
4745,-4.1
4746,-4.1
4747,-3.9
4748,-3.9
4749,-4
4750,-4.1
4751,-4.2
4752,-4.2
4753,-4.1
4754,-4.2
4755,-4.1
4756,-3.8
4757,-3.6
4758,-3.7
4759,-3.9
4760,-4.1
4761,-4.2
4762,-4.1
4763,-4.2
4764,-4.1
4765,-4.1
4766,-4.1
4767,-4.3
4768,-4.3
4769,-4.2
4770,-4.1
4771,-4.1
4772,-4.1
4773,-4.3
4774,-4
4775,-3.9
4776,-4.1
4777,-4
4778,-4.1
4779,-4.2
4780,-4.3
4781,-4.2
4782,-3.9
4783,-4.1
4784,-4.3
4785,-4.1
4786,-3.9
4787,-3.8
4788,-3.9
4789,-4
4790,-3.9
4791,-4
4792,-4.2
4793,-4.1
4794,-3.7
4795,-3.7
4796,-3.7
4797,-3.7
4798,-3.5
4799,-3.6
4800,-3.6
4801,-3.5
4802,-3.7
4803,-3.6
4804,-3.5
4805,-3.3
4806,-3.4
4807,-3.3
4808,-3.2
4809,-3.2
4810,-3.2
4811,-3.2
4812,-3.2
4813,-3.2
4814,-3.1
4815,-2.9
4816,-2.8
4817,-2.5
4818,-2.7
4819,-2.7
4820,-2.6
4821,-2.5
4822,-2.7
4823,-2.7
4824,-2.6
4825,-2.6
4826,-2.8
4827,-2.8
4828,-2.8
4829,-2.8
4830,-2.9
4831,-3.1
4832,-3.3
4833,-3.2
4834,-3.2
4835,-3.3
4836,-3.2
4837,-3.1
4838,-3.2
4839,-3.4
4840,-3.7
4841,-3.8
4842,-3.7
4843,-3.6
4844,-3.5
4845,-3.7
4846,-3.7
4847,-3.5
4848,-3.7
4849,-3.7
4850,-3.7
4851,-3.6
4852,-3.6
4853,-3.7
4854,-3.8
4855,-3.7
4856,-3.7
4857,-3.7
4858,-3.7
4859,-3.4
4860,-3.5
4861,-3.7
4862,-3.7
4863,-3.4
4864,-3.4
4865,-3.6
4866,-3.5
4867,-3.5
4868,-3.7
4869,-3.5
4870,-3.4
4871,-3.4
4872,-3.4
4873,-3
4874,-2.2
4875,-1.2
4876,0
4877,2
4878,3.9
4879,5.8
4880,9
4881,13.3
4882,17.6
4883,20.7
4884,22.7
4885,23.7
4886,23.8
4887,21.8
4888,19.7
4889,17.2
4890,13.4
4891,7.2
4892,1
4893,-2.6
4894,-4.4
4895,-5.9
4896,-7.7
4897,-8.8
4898,-9.3
4899,-9.3
4900,-9.2
4901,-8.7
4902,-7.3
4903,-6.4
4904,-5.8
4905,-5.2
4906,-4.6
4907,-4.1
4908,-4.1
4909,-3.6
4910,-3.1
4911,-2.9
4912,-2.7
4913,-2.9
4914,-3.1
4915,-3.2
4916,-3
4917,-2.9
4918,-2.8
4919,-2.8
4920,-2.7
4921,-2.6
4922,-2.7
4923,-2.9
4924,-2.9
4925,-2.9
4926,-3
4927,-2.8
4928,-2.9
4929,-3
4930,-2.7
4931,-2.7
4932,-2.4
4933,-2.3
4934,-2.6
4935,-2.7
4936,-2.7
4937,-2.7
4938,-2.6
4939,-2.4
4940,-2.1
4941,-2.1
4942,-2.2
4943,-2.2
4944,-2.2
4945,-2.3
4946,-2.3
4947,-2.3
4948,-2.1
4949,-2
4950,-2.1
4951,-2.3
4952,-2.4
4953,-2.5
4954,-2.2
4955,-2.1
4956,-2
4957,-1.9
4958,-1.9
4959,-1.9
4960,-1.6
4961,-1.5
4962,-1.5
4963,-1.4
4964,-1.5
4965,-1.6
4966,-1.6
4967,-1.4
4968,-1.3
4969,-1.3
4970,-1.2
4971,-1.2
4972,-1.4
4973,-1.4
4974,-1
4975,-0.9
4976,-0.8
4977,-0.9
4978,-1
4979,-0.9
4980,-0.7
4981,-0.7
4982,-0.5
4983,-0.3
4984,-0.3
4985,-0.2
4986,-0.2
4987,0.1
4988,0.3
4989,0.2
4990,0
4991,0
4992,0
4993,0.2
4994,0.4
4995,0.3
4996,0.3
4997,0.4
4998,0.7
4999,0.9
5000,1.1
