TS,I,If,II,IIf,III,IIIf,aVR,aVRf,aVL,aVLf,aVF,aVFf,V1,V1f,V2,V2f,V3,V3f,V4,V4f,V5,V5f,V6,V6f
1,-19,1,4,1,23,1,7,1,-21,1,13,1,-11,1,-13,1,-23,1,-28,1,-24,1,-18,1
2,-18,1,4,1,22,1,7,1,-20,1,13,1,-11,1,-14,1,-24,1,-27,1,-23,1,-18,1
3,-18,1,4,1,22,1,7,1,-20,1,13,1,-10,1,-14,1,-23,1,-27,1,-22,1,-17,1
4,-18,1,4,1,22,1,7,1,-20,1,13,1,-10,1,-13,1,-23,1,-28,1,-23,1,-16,1
5,-17,1,4,1,21,1,6,1,-19,1,12,1,-9,1,-14,1,-24,1,-28,1,-22,1,-16,1
6,-17,1,5,1,22,1,6,1,-19,1,13,1,-9,1,-13,1,-23,1,-27,1,-22,1,-16,1
7,-18,1,5,1,23,1,6,1,-20,1,14,1,-9,1,-13,1,-23,1,-28,1,-22,1,-15,1
8,-17,1,5,1,22,1,6,1,-19,1,13,1,-9,1,-12,1,-22,1,-27,1,-22,1,-16,1
9,-16,1,5,1,21,1,5,1,-18,1,13,1,-8,1,-12,1,-21,1,-28,1,-21,1,-15,1
10,-16,1,7,1,23,1,4,1,-19,1,15,1,-9,1,-11,1,-22,1,-29,1,-20,1,-15,1
11,-16,1,8,1,24,1,4,1,-20,1,16,1,-8,1,-11,1,-22,1,-29,1,-20,1,-15,1
12,-15,1,9,1,24,1,3,1,-19,1,16,1,-7,1,-10,1,-21,1,-28,1,-20,1,-14,1
13,-15,1,10,1,25,1,2,1,-20,1,17,1,-7,1,-9,1,-22,1,-28,1,-19,1,-14,1
14,-15,1,11,1,26,1,2,1,-20,1,18,1,-6,1,-8,1,-21,1,-28,1,-18,1,-13,1
15,-14,1,11,1,25,1,1,1,-19,1,18,1,-6,1,-8,1,-19,1,-27,1,-18,1,-13,1
16,-13,1,12,1,25,1,0,1,-19,1,18,1,-5,1,-7,1,-18,1,-27,1,-17,1,-13,1
17,-13,1,12,1,25,1,0,1,-19,1,18,1,-4,1,-7,1,-17,1,-28,1,-17,1,-13,1
18,-12,1,13,1,25,1,0,1,-18,1,19,1,-4,1,-7,1,-16,1,-27,1,-16,1,-13,1
19,-12,1,14,1,26,1,-1,1,-19,1,20,1,-4,1,-6,1,-16,1,-27,1,-16,1,-13,1
20,-12,1,15,1,27,1,-1,1,-19,1,21,1,-3,1,-5,1,-14,1,-27,1,-15,1,-12,1
21,-12,1,16,1,28,1,-2,1,-20,1,22,1,-2,1,-4,1,-13,1,-26,1,-14,1,-12,1
22,-12,1,15,1,27,1,-1,1,-19,1,21,1,-1,1,-3,1,-13,1,-26,1,-14,1,-10,1
23,-13,1,14,1,27,1,0,1,-20,1,20,1,-1,1,-3,1,-12,1,-25,1,-15,1,-10,1
24,-13,1,14,1,27,1,0,1,-20,1,20,1,-2,1,-3,1,-12,1,-24,1,-15,1,-10,1
25,-12,1,14,1,26,1,-1,1,-19,1,20,1,-1,1,-1,1,-12,1,-24,1,-14,1,-10,1
26,-11,1,14,1,25,1,-1,1,-18,1,19,1,-1,1,-1,1,-11,1,-24,1,-14,1,-11,1
27,-10,1,15,1,25,1,-2,1,-17,1,20,1,-1,1,-1,1,-10,1,-24,1,-14,1,-10,1
28,-9,1,15,1,24,1,-3,1,-16,1,19,1,-2,1,0,1,-10,1,-23,1,-13,1,-10,1
29,-8,1,16,1,24,1,-4,1,-16,1,20,1,-2,1,0,1,-9,1,-22,1,-12,1,-10,1
30,-8,1,17,1,25,1,-4,1,-16,1,21,1,-3,1,1,1,-8,1,-20,1,-12,1,-9,1
31,-8,1,18,1,26,1,-5,1,-17,1,22,1,-3,1,2,1,-8,1,-18,1,-11,1,-8,1
32,-6,1,18,1,24,1,-6,1,-15,1,21,1,-3,1,3,1,-7,1,-18,1,-10,1,-7,1
33,-6,1,18,1,24,1,-6,1,-15,1,21,1,-5,1,2,1,-7,1,-17,1,-10,1,-7,1
34,-5,1,18,1,23,1,-6,1,-14,1,20,1,-6,1,2,1,-7,1,-17,1,-9,1,-6,1
35,-4,1,18,1,22,1,-7,1,-13,1,20,1,-6,1,3,1,-6,1,-16,1,-8,1,-6,1
36,-4,1,18,1,22,1,-7,1,-13,1,20,1,-7,1,3,1,-6,1,-15,1,-7,1,-6,1
37,-4,1,17,1,21,1,-6,1,-12,1,19,1,-7,1,2,1,-6,1,-17,1,-7,1,-6,1
38,-4,1,16,1,20,1,-6,1,-12,1,18,1,-9,1,1,1,-7,1,-17,1,-8,1,-6,1
39,-4,1,14,1,18,1,-5,1,-11,1,16,1,-10,1,0,1,-8,1,-18,1,-9,1,-8,1
40,-5,1,13,1,18,1,-4,1,-11,1,15,1,-11,1,-1,1,-10,1,-19,1,-10,1,-8,1
41,-6,1,11,1,17,1,-2,1,-11,1,14,1,-12,1,-2,1,-11,1,-20,1,-11,1,-9,1
42,-6,1,10,1,16,1,-2,1,-11,1,13,1,-12,1,-2,1,-12,1,-21,1,-12,1,-10,1
43,-7,1,9,1,16,1,-1,1,-11,1,12,1,-12,1,-3,1,-13,1,-22,1,-12,1,-10,1
44,-7,1,8,1,15,1,0,1,-11,1,11,1,-13,1,-4,1,-13,1,-23,1,-12,1,-11,1
45,-6,1,8,1,14,1,-1,1,-10,1,11,1,-12,1,-5,1,-14,1,-24,1,-12,1,-11,1
46,-7,1,7,1,14,1,0,1,-10,1,10,1,-12,1,-6,1,-14,1,-25,1,-13,1,-12,1
47,-7,1,6,1,13,1,0,1,-10,1,9,1,-13,1,-7,1,-15,1,-25,1,-13,1,-12,1
48,-8,1,6,1,14,1,1,1,-11,1,10,1,-13,1,-8,1,-16,1,-26,1,-13,1,-12,1
49,-8,1,5,1,13,1,1,1,-10,1,9,1,-13,1,-9,1,-18,1,-28,1,-15,1,-13,1
50,-10,1,4,1,14,1,3,1,-12,1,9,1,-13,1,-10,1,-18,1,-29,1,-16,1,-13,1
51,-10,1,4,1,14,1,3,1,-12,1,9,1,-14,1,-11,1,-21,1,-30,1,-16,1,-13,1
52,-10,1,4,1,14,1,3,1,-12,1,9,1,-15,1,-12,1,-21,1,-30,1,-17,1,-14,1
53,-11,1,3,1,14,1,4,1,-12,1,8,1,-16,1,-12,1,-21,1,-32,1,-18,1,-14,1
54,-12,1,2,1,14,1,5,1,-13,1,8,1,-15,1,-12,1,-22,1,-32,1,-18,1,-16,1
55,-13,1,1,1,14,1,6,1,-13,1,7,1,-16,1,-12,1,-22,1,-33,1,-18,1,-16,1
56,-14,1,1,1,15,1,6,1,-14,1,8,1,-15,1,-12,1,-22,1,-33,1,-18,1,-16,1
57,-16,1,1,1,17,1,7,1,-16,1,9,1,-15,1,-12,1,-23,1,-33,1,-19,1,-18,1
58,-17,1,1,1,18,1,8,1,-17,1,9,1,-15,1,-13,1,-23,1,-35,1,-19,1,-17,1
59,-18,1,0,1,18,1,9,1,-18,1,9,1,-13,1,-13,1,-22,1,-35,1,-19,1,-17,1
60,-20,1,0,1,20,1,10,1,-20,1,10,1,-13,1,-13,1,-23,1,-35,1,-21,1,-17,1
61,-21,1,-1,1,20,1,11,1,-21,1,9,1,-13,1,-14,1,-23,1,-36,1,-20,1,-17,1
62,-20,1,-2,1,18,1,11,1,-19,1,8,1,-13,1,-14,1,-23,1,-36,1,-20,1,-17,1
63,-20,1,-2,1,18,1,11,1,-19,1,8,1,-14,1,-13,1,-24,1,-36,1,-20,1,-17,1
64,-21,1,-3,1,18,1,12,1,-20,1,7,1,-14,1,-13,1,-24,1,-35,1,-21,1,-18,1
65,-21,1,-3,1,18,1,12,1,-20,1,7,1,-14,1,-14,1,-24,1,-36,1,-20,1,-18,1
66,-20,1,-4,1,16,1,12,1,-18,1,6,1,-15,1,-14,1,-24,1,-35,1,-20,1,-18,1
67,-21,1,-4,1,17,1,12,1,-19,1,6,1,-15,1,-15,1,-24,1,-35,1,-20,1,-19,1
68,-22,1,-5,1,17,1,13,1,-20,1,6,1,-15,1,-15,1,-24,1,-35,1,-20,1,-18,1
69,-22,1,-5,1,17,1,13,1,-20,1,6,1,-15,1,-15,1,-25,1,-35,1,-19,1,-19,1
70,-22,1,-4,1,18,1,13,1,-20,1,7,1,-14,1,-15,1,-24,1,-35,1,-19,1,-18,1
71,-22,1,-4,1,18,1,13,1,-20,1,7,1,-14,1,-16,1,-24,1,-34,1,-18,1,-18,1
72,-22,1,-5,1,17,1,13,1,-20,1,6,1,-13,1,-15,1,-24,1,-33,1,-18,1,-18,1
73,-22,1,-5,1,17,1,13,1,-20,1,6,1,-13,1,-15,1,-24,1,-33,1,-17,1,-18,1
74,-22,1,-5,1,17,1,13,1,-20,1,6,1,-13,1,-15,1,-25,1,-32,1,-17,1,-19,1
75,-22,1,-6,1,16,1,14,1,-19,1,5,1,-13,1,-15,1,-25,1,-32,1,-18,1,-18,1
76,-22,1,-7,1,15,1,14,1,-19,1,4,1,-13,1,-15,1,-25,1,-32,1,-18,1,-18,1
77,-24,1,-7,1,17,1,15,1,-21,1,5,1,-14,1,-15,1,-26,1,-32,1,-18,1,-18,1
78,-24,1,-7,1,17,1,15,1,-21,1,5,1,-14,1,-16,1,-26,1,-32,1,-18,1,-18,1
79,-24,1,-7,1,17,1,15,1,-21,1,5,1,-13,1,-16,1,-25,1,-32,1,-17,1,-18,1
80,-24,1,-7,1,17,1,15,1,-21,1,5,1,-13,1,-16,1,-26,1,-33,1,-17,1,-18,1
81,-24,1,-6,1,18,1,15,1,-21,1,6,1,-11,1,-15,1,-25,1,-33,1,-16,1,-18,1
82,-24,1,-4,1,20,1,14,1,-22,1,8,1,-11,1,-13,1,-24,1,-32,1,-15,1,-17,1
83,-24,1,-1,1,23,1,12,1,-24,1,11,1,-9,1,-11,1,-22,1,-30,1,-13,1,-15,1
84,-24,1,4,1,28,1,10,1,-26,1,16,1,-7,1,-5,1,-16,1,-25,1,-11,1,-12,1
85,-24,1,8,1,32,1,8,1,-28,1,20,1,-4,1,1,1,-10,1,-18,1,-7,1,-9,1
86,-23,1,12,1,35,1,5,1,-29,1,23,1,-3,1,9,1,-2,1,-11,1,-2,1,-5,1
87,-20,1,13,1,33,1,3,1,-26,1,23,1,-2,1,17,1,6,1,-3,1,2,1,-2,1
88,-15,1,15,1,30,1,0,1,-22,1,22,1,-2,1,28,1,16,1,7,1,7,1,1,1
89,-6,1,16,1,22,1,-5,1,-14,1,19,1,-1,1,43,1,28,1,18,1,13,1,5,1
90,6,1,19,1,13,1,-12,1,-3,1,16,1,-1,1,61,1,46,1,34,1,23,1,12,1
91,22,1,27,1,5,1,-24,1,9,1,16,1,-2,1,81,1,67,1,55,1,37,1,23,1
92,40,1,36,1,-4,1,-38,1,22,1,16,1,-4,1,99,1,89,1,76,1,54,1,36,1
93,55,1,45,1,-10,1,-50,1,33,1,18,1,-7,1,110,1,107,1,95,1,71,1,50,1
94,68,1,53,1,-15,1,-60,1,42,1,19,1,-9,1,116,1,121,1,112,1,88,1,61,1
95,81,1,60,1,-21,1,-70,1,51,1,20,1,-11,1,122,1,135,1,129,1,102,1,72,1
96,91,1,65,1,-26,1,-78,1,59,1,20,1,-13,1,123,1,146,1,144,1,114,1,82,1
97,102,1,69,1,-33,1,-85,1,68,1,18,1,-16,1,117,1,152,1,155,1,124,1,89,1
98,115,1,68,1,-47,1,-91,1,81,1,11,1,-20,1,105,1,153,1,161,1,129,1,93,1
99,125,1,58,1,-67,1,-91,1,96,1,-4,1,-26,1,88,1,146,1,154,1,122,1,87,1
100,130,1,39,1,-91,1,-84,1,111,1,-26,1,-29,1,67,1,130,1,138,1,106,1,74,1
101,129,1,21,1,-108,1,-75,1,119,1,-43,1,-31,1,38,1,106,1,112,1,86,1,58,1
102,120,1,6,1,-114,1,-63,1,117,1,-54,1,-34,1,-2,1,71,1,78,1,64,1,41,1
103,102,1,-11,1,-113,1,-45,1,107,1,-62,1,-35,1,-46,1,27,1,35,1,34,1,19,1
104,76,1,-29,1,-105,1,-23,1,90,1,-67,1,-36,1,-92,1,-20,1,-14,1,0,1,-7,1
105,43,1,-44,1,-87,1,0,1,65,1,-65,1,-38,1,-138,1,-67,1,-59,1,-30,1,-29,1
106,8,1,-53,1,-61,1,22,1,34,1,-57,1,-38,1,-180,1,-110,1,-99,1,-55,1,-46,1
107,-24,1,-58,1,-34,1,41,1,5,1,-46,1,-41,1,-217,1,-146,1,-132,1,-77,1,-60,1
108,-50,1,-57,1,-7,1,53,1,-22,1,-32,1,-45,1,-245,1,-171,1,-152,1,-89,1,-65,1
109,-69,1,-54,1,15,1,61,1,-42,1,-20,1,-47,1,-261,1,-183,1,-162,1,-94,1,-66,1
110,-80,1,-50,1,30,1,65,1,-55,1,-10,1,-49,1,-268,1,-187,1,-165,1,-96,1,-66,1
111,-85,1,-51,1,34,1,68,1,-60,1,-9,1,-51,1,-269,1,-190,1,-167,1,-97,1,-65,1
112,-87,1,-52,1,35,1,69,1,-61,1,-9,1,-53,1,-264,1,-188,1,-167,1,-95,1,-66,1
113,-87,1,-51,1,36,1,69,1,-62,1,-8,1,-55,1,-252,1,-182,1,-163,1,-92,1,-64,1
114,-85,1,-49,1,36,1,67,1,-61,1,-7,1,-54,1,-234,1,-174,1,-156,1,-87,1,-62,1
115,-80,1,-47,1,33,1,63,1,-57,1,-7,1,-52,1,-211,1,-161,1,-146,1,-81,1,-59,1
116,-74,1,-44,1,30,1,59,1,-52,1,-7,1,-50,1,-183,1,-144,1,-132,1,-73,1,-54,1
117,-67,1,-39,1,28,1,53,1,-48,1,-6,1,-44,1,-153,1,-124,1,-115,1,-64,1,-49,1
118,-59,1,-33,1,26,1,46,1,-43,1,-4,1,-38,1,-126,1,-103,1,-98,1,-56,1,-42,1
119,-51,1,-28,1,23,1,39,1,-37,1,-3,1,-31,1,-101,1,-83,1,-82,1,-48,1,-36,1
120,-44,1,-23,1,21,1,33,1,-33,1,-1,1,-24,1,-80,1,-66,1,-68,1,-41,1,-29,1
121,-38,1,-19,1,19,1,28,1,-29,1,0,1,-19,1,-65,1,-52,1,-57,1,-35,1,-23,1
122,-33,1,-14,1,19,1,23,1,-26,1,2,1,-14,1,-53,1,-42,1,-49,1,-29,1,-19,1
123,-30,1,-10,1,20,1,20,1,-25,1,5,1,-10,1,-43,1,-34,1,-43,1,-24,1,-15,1
124,-27,1,-8,1,19,1,17,1,-23,1,5,1,-9,1,-36,1,-29,1,-38,1,-19,1,-12,1
125,-25,1,-6,1,19,1,15,1,-22,1,6,1,-8,1,-28,1,-26,1,-34,1,-17,1,-10,1
126,-24,1,-6,1,18,1,15,1,-21,1,6,1,-8,1,-21,1,-22,1,-32,1,-14,1,-9,1
127,-23,1,-6,1,17,1,14,1,-20,1,5,1,-7,1,-16,1,-19,1,-29,1,-14,1,-10,1
128,-22,1,-6,1,16,1,14,1,-19,1,5,1,-5,1,-11,1,-17,1,-27,1,-13,1,-9,1
129,-22,1,-7,1,15,1,14,1,-19,1,4,1,-2,1,-7,1,-14,1,-24,1,-13,1,-9,1
130,-22,1,-7,1,15,1,14,1,-19,1,4,1,0,1,-6,1,-12,1,-23,1,-13,1,-10,1
131,-22,1,-7,1,15,1,14,1,-19,1,4,1,3,1,-5,1,-10,1,-22,1,-13,1,-9,1
132,-21,1,-7,1,14,1,14,1,-18,1,3,1,3,1,-4,1,-9,1,-21,1,-13,1,-8,1
133,-21,1,-7,1,14,1,14,1,-18,1,3,1,4,1,-3,1,-10,1,-21,1,-12,1,-8,1
134,-20,1,-7,1,13,1,13,1,-17,1,3,1,5,1,-2,1,-10,1,-20,1,-12,1,-7,1
135,-19,1,-7,1,12,1,13,1,-16,1,2,1,4,1,-1,1,-10,1,-20,1,-12,1,-8,1
136,-19,1,-7,1,12,1,13,1,-16,1,2,1,4,1,0,1,-9,1,-19,1,-12,1,-7,1
137,-19,1,-7,1,12,1,13,1,-16,1,2,1,3,1,1,1,-9,1,-18,1,-11,1,-7,1
138,-18,1,-5,1,13,1,11,1,-16,1,4,1,4,1,2,1,-8,1,-17,1,-10,1,-6,1
139,-17,1,-6,1,11,1,11,1,-14,1,2,1,4,1,3,1,-7,1,-16,1,-10,1,-5,1
140,-17,1,-6,1,11,1,11,1,-14,1,2,1,5,1,3,1,-6,1,-16,1,-9,1,-5,1
141,-16,1,-6,1,10,1,11,1,-13,1,2,1,5,1,4,1,-5,1,-15,1,-9,1,-5,1
142,-15,1,-6,1,9,1,10,1,-12,1,1,1,6,1,4,1,-4,1,-14,1,-8,1,-5,1
143,-15,1,-6,1,9,1,10,1,-12,1,1,1,6,1,5,1,-4,1,-13,1,-8,1,-5,1
144,-14,1,-6,1,8,1,10,1,-11,1,1,1,6,1,5,1,-4,1,-12,1,-8,1,-5,1
145,-14,1,-5,1,9,1,9,1,-12,1,2,1,6,1,5,1,-3,1,-11,1,-6,1,-6,1
146,-14,1,-4,1,10,1,9,1,-12,1,3,1,4,1,6,1,-3,1,-11,1,-6,1,-5,1
147,-13,1,-3,1,10,1,8,1,-12,1,3,1,4,1,7,1,-3,1,-11,1,-5,1,-5,1
148,-13,1,-3,1,10,1,8,1,-12,1,3,1,4,1,7,1,-2,1,-9,1,-4,1,-4,1
149,-12,1,-3,1,9,1,7,1,-11,1,3,1,5,1,8,1,-3,1,-9,1,-3,1,-3,1
150,-11,1,-2,1,9,1,6,1,-10,1,3,1,5,1,8,1,-2,1,-9,1,-4,1,-3,1
151,-11,1,-2,1,9,1,6,1,-10,1,3,1,4,1,9,1,-1,1,-9,1,-3,1,-2,1
152,-10,1,-1,1,9,1,5,1,-10,1,4,1,5,1,9,1,-1,1,-8,1,-2,1,-1,1
153,-10,1,-1,1,9,1,5,1,-10,1,4,1,5,1,10,1,0,1,-8,1,-2,1,-1,1
154,-9,1,-1,1,8,1,5,1,-9,1,3,1,5,1,10,1,0,1,-8,1,-2,1,-1,1
155,-8,1,-1,1,7,1,4,1,-8,1,3,1,5,1,11,1,1,1,-6,1,-1,1,0,1
156,-8,1,-1,1,7,1,4,1,-8,1,3,1,5,1,11,1,2,1,-7,1,0,1,0,1
157,-8,1,-1,1,7,1,4,1,-8,1,3,1,4,1,11,1,2,1,-6,1,-1,1,1,1
158,-8,1,-1,1,7,1,4,1,-8,1,3,1,5,1,12,1,3,1,-6,1,0,1,1,1
159,-8,1,-1,1,7,1,4,1,-8,1,3,1,4,1,14,1,4,1,-5,1,0,1,2,1
160,-7,1,-1,1,6,1,4,1,-7,1,2,1,5,1,15,1,4,1,-5,1,0,1,2,1
161,-7,1,-1,1,6,1,4,1,-7,1,2,1,5,1,16,1,5,1,-4,1,1,1,2,1
162,-7,1,0,1,7,1,3,1,-7,1,3,1,4,1,18,1,7,1,-3,1,3,1,2,1
163,-6,1,0,1,6,1,3,1,-6,1,3,1,5,1,18,1,7,1,-3,1,3,1,2,1
164,-6,1,0,1,6,1,3,1,-6,1,3,1,5,1,18,1,8,1,-1,1,3,1,3,1
165,-4,1,1,1,5,1,1,1,-4,1,3,1,4,1,19,1,8,1,0,1,5,1,3,1
166,-4,1,1,1,5,1,1,1,-4,1,3,1,5,1,21,1,9,1,0,1,6,1,4,1
167,-4,1,2,1,6,1,1,1,-5,1,4,1,4,1,21,1,10,1,1,1,6,1,5,1
168,-3,1,2,1,5,1,0,1,-4,1,3,1,3,1,22,1,11,1,2,1,6,1,5,1
169,-3,1,2,1,5,1,0,1,-4,1,3,1,3,1,23,1,12,1,3,1,7,1,6,1
170,-2,1,2,1,4,1,0,1,-3,1,3,1,2,1,23,1,14,1,3,1,7,1,6,1
171,-2,1,1,1,3,1,0,1,-2,1,2,1,2,1,24,1,14,1,5,1,7,1,6,1
172,0,1,2,1,2,1,-1,1,-1,1,2,1,2,1,25,1,15,1,6,1,8,1,7,1
173,0,1,3,1,3,1,-1,1,-1,1,3,1,2,1,24,1,16,1,7,1,8,1,6,1
174,1,1,4,1,3,1,-2,1,-1,1,4,1,2,1,25,1,16,1,8,1,9,1,7,1
175,2,1,5,1,3,1,-3,1,0,1,4,1,2,1,27,1,18,1,9,1,10,1,8,1
176,3,1,5,1,2,1,-4,1,1,1,4,1,1,1,28,1,19,1,10,1,11,1,9,1
177,3,1,5,1,2,1,-4,1,1,1,4,1,1,1,28,1,20,1,11,1,12,1,10,1
178,4,1,5,1,1,1,-4,1,2,1,3,1,1,1,29,1,21,1,13,1,12,1,12,1
179,5,1,6,1,1,1,-5,1,2,1,4,1,0,1,30,1,22,1,15,1,13,1,12,1
180,6,1,6,1,0,1,-6,1,3,1,3,1,0,1,31,1,23,1,16,1,13,1,13,1
181,7,1,6,1,-1,1,-6,1,4,1,3,1,0,1,32,1,23,1,17,1,14,1,13,1
182,8,1,7,1,-1,1,-7,1,5,1,3,1,-1,1,33,1,24,1,18,1,14,1,13,1
183,9,1,7,1,-2,1,-8,1,6,1,3,1,-1,1,34,1,26,1,20,1,15,1,14,1
184,10,1,8,1,-2,1,-9,1,6,1,3,1,-1,1,35,1,28,1,21,1,17,1,14,1
185,12,1,9,1,-3,1,-10,1,8,1,3,1,-2,1,36,1,30,1,23,1,19,1,16,1
186,14,1,10,1,-4,1,-12,1,9,1,3,1,-2,1,37,1,32,1,25,1,20,1,17,1
187,15,1,11,1,-4,1,-13,1,10,1,4,1,-3,1,39,1,34,1,26,1,21,1,18,1
188,16,1,12,1,-4,1,-14,1,10,1,4,1,-3,1,40,1,35,1,27,1,22,1,20,1
189,17,1,12,1,-5,1,-14,1,11,1,4,1,-3,1,40,1,37,1,29,1,23,1,21,1
190,18,1,13,1,-5,1,-15,1,12,1,4,1,-5,1,42,1,38,1,31,1,24,1,22,1
191,20,1,13,1,-7,1,-16,1,14,1,3,1,-5,1,43,1,39,1,33,1,24,1,23,1
192,22,1,14,1,-8,1,-18,1,15,1,3,1,-6,1,44,1,40,1,34,1,26,1,24,1
193,24,1,15,1,-9,1,-19,1,17,1,3,1,-7,1,46,1,41,1,35,1,27,1,26,1
194,26,1,17,1,-9,1,-21,1,18,1,4,1,-7,1,47,1,42,1,36,1,28,1,27,1
195,29,1,18,1,-11,1,-23,1,20,1,4,1,-7,1,49,1,44,1,38,1,30,1,29,1
196,30,1,19,1,-11,1,-24,1,21,1,4,1,-8,1,50,1,45,1,39,1,32,1,31,1
197,31,1,20,1,-11,1,-25,1,21,1,5,1,-8,1,52,1,47,1,42,1,34,1,32,1
198,32,1,21,1,-11,1,-26,1,22,1,5,1,-9,1,53,1,48,1,44,1,35,1,33,1
199,33,1,22,1,-11,1,-27,1,22,1,6,1,-10,1,54,1,50,1,45,1,36,1,34,1
200,34,1,24,1,-10,1,-29,1,22,1,7,1,-10,1,56,1,52,1,47,1,37,1,35,1
201,36,1,25,1,-11,1,-30,1,24,1,7,1,-11,1,57,1,54,1,47,1,36,1,36,1
202,39,1,26,1,-13,1,-32,1,26,1,7,1,-11,1,57,1,55,1,49,1,38,1,37,1
203,41,1,27,1,-14,1,-34,1,28,1,7,1,-11,1,58,1,58,1,51,1,39,1,39,1
204,43,1,29,1,-14,1,-36,1,29,1,8,1,-12,1,59,1,59,1,52,1,40,1,41,1
205,45,1,29,1,-16,1,-37,1,31,1,7,1,-12,1,59,1,60,1,54,1,41,1,42,1
206,46,1,30,1,-16,1,-38,1,31,1,7,1,-12,1,60,1,61,1,54,1,43,1,43,1
207,46,1,31,1,-15,1,-38,1,31,1,8,1,-12,1,62,1,61,1,56,1,44,1,44,1
208,47,1,32,1,-15,1,-39,1,31,1,9,1,-12,1,63,1,61,1,56,1,46,1,45,1
209,48,1,32,1,-16,1,-40,1,32,1,8,1,-13,1,63,1,62,1,57,1,47,1,46,1
210,48,1,32,1,-16,1,-40,1,32,1,8,1,-13,1,65,1,63,1,56,1,47,1,46,1
211,49,1,32,1,-17,1,-40,1,33,1,8,1,-13,1,65,1,63,1,56,1,48,1,46,1
212,50,1,34,1,-16,1,-42,1,33,1,9,1,-13,1,65,1,64,1,57,1,47,1,47,1
213,50,1,34,1,-16,1,-42,1,33,1,9,1,-13,1,65,1,64,1,57,1,47,1,46,1
214,50,1,35,1,-15,1,-42,1,33,1,10,1,-13,1,65,1,64,1,58,1,47,1,46,1
215,50,1,35,1,-15,1,-42,1,33,1,10,1,-13,1,64,1,64,1,58,1,48,1,47,1
216,49,1,35,1,-14,1,-42,1,32,1,11,1,-12,1,64,1,63,1,59,1,48,1,48,1
217,49,1,34,1,-15,1,-41,1,32,1,10,1,-12,1,64,1,62,1,59,1,49,1,49,1
218,48,1,34,1,-14,1,-41,1,31,1,10,1,-12,1,63,1,62,1,59,1,49,1,48,1
219,47,1,33,1,-14,1,-40,1,31,1,10,1,-11,1,63,1,60,1,59,1,49,1,48,1
220,46,1,33,1,-13,1,-39,1,30,1,10,1,-11,1,63,1,59,1,57,1,47,1,47,1
221,45,1,33,1,-12,1,-39,1,29,1,11,1,-10,1,61,1,59,1,57,1,47,1,46,1
222,44,1,32,1,-12,1,-38,1,28,1,10,1,-9,1,60,1,57,1,57,1,46,1,45,1
223,42,1,31,1,-11,1,-36,1,27,1,10,1,-9,1,58,1,55,1,55,1,45,1,43,1
224,40,1,29,1,-11,1,-34,1,26,1,9,1,-8,1,56,1,54,1,54,1,43,1,42,1
225,38,1,27,1,-11,1,-32,1,25,1,8,1,-7,1,54,1,51,1,52,1,42,1,40,1
226,36,1,25,1,-11,1,-30,1,24,1,7,1,-7,1,52,1,48,1,51,1,41,1,39,1
227,33,1,23,1,-10,1,-28,1,22,1,7,1,-6,1,50,1,45,1,49,1,40,1,37,1
228,30,1,22,1,-8,1,-26,1,19,1,7,1,-5,1,47,1,41,1,46,1,38,1,36,1
229,28,1,21,1,-7,1,-24,1,18,1,7,1,-4,1,46,1,39,1,43,1,35,1,35,1
230,25,1,19,1,-6,1,-22,1,16,1,7,1,-3,1,43,1,36,1,40,1,32,1,32,1
231,21,1,18,1,-3,1,-19,1,12,1,8,1,-2,1,41,1,32,1,38,1,30,1,31,1
232,18,1,17,1,-1,1,-17,1,10,1,8,1,0,1,39,1,30,1,36,1,27,1,30,1
233,15,1,15,1,0,1,-15,1,8,1,8,1,1,1,37,1,27,1,34,1,24,1,27,1
234,10,1,13,1,3,1,-11,1,4,1,8,1,2,1,34,1,24,1,32,1,22,1,27,1
235,7,1,10,1,3,1,-8,1,2,1,7,1,4,1,31,1,21,1,30,1,21,1,25,1
236,5,1,8,1,3,1,-6,1,1,1,6,1,5,1,28,1,19,1,28,1,20,1,23,1
237,2,1,6,1,4,1,-4,1,-1,1,5,1,5,1,25,1,16,1,26,1,17,1,20,1
238,0,1,5,1,5,1,-2,1,-2,1,5,1,6,1,23,1,15,1,23,1,15,1,18,1
239,-1,1,3,1,4,1,-1,1,-2,1,3,1,6,1,20,1,13,1,21,1,13,1,16,1
240,-3,1,2,1,5,1,0,1,-4,1,3,1,7,1,19,1,10,1,18,1,11,1,14,1
241,-6,1,0,1,6,1,3,1,-6,1,3,1,7,1,17,1,8,1,17,1,8,1,13,1
242,-9,1,-1,1,8,1,5,1,-9,1,3,1,7,1,15,1,6,1,15,1,6,1,11,1
243,-11,1,-2,1,9,1,6,1,-10,1,3,1,8,1,13,1,3,1,13,1,4,1,10,1
244,-13,1,-3,1,10,1,8,1,-12,1,3,1,9,1,12,1,2,1,12,1,2,1,8,1
245,-14,1,-3,1,11,1,8,1,-13,1,4,1,10,1,10,1,1,1,10,1,1,1,7,1
246,-15,1,-5,1,10,1,10,1,-13,1,2,1,10,1,7,1,-1,1,8,1,0,1,6,1
247,-18,1,-6,1,12,1,12,1,-15,1,3,1,11,1,5,1,-2,1,6,1,-1,1,4,1
248,-19,1,-8,1,11,1,13,1,-15,1,1,1,10,1,4,1,-4,1,4,1,-2,1,3,1
249,-21,1,-9,1,12,1,15,1,-17,1,1,1,11,1,3,1,-5,1,3,1,-3,1,3,1
250,-22,1,-10,1,12,1,16,1,-17,1,1,1,12,1,1,1,-6,1,2,1,-5,1,2,1
251,-22,1,-12,1,10,1,17,1,-16,1,-1,1,11,1,0,1,-7,1,1,1,-6,1,1,1
252,-23,1,-12,1,11,1,17,1,-17,1,-1,1,12,1,-1,1,-7,1,2,1,-5,1,1,1
253,-23,1,-12,1,11,1,17,1,-17,1,-1,1,12,1,-2,1,-8,1,1,1,-6,1,0,1
254,-24,1,-13,1,11,1,18,1,-18,1,-1,1,11,1,-3,1,-8,1,0,1,-7,1,-1,1
255,-24,1,-14,1,10,1,19,1,-17,1,-2,1,12,1,-4,1,-9,1,-1,1,-7,1,0,1
256,-24,1,-15,1,9,1,19,1,-17,1,-3,1,12,1,-5,1,-10,1,-2,1,-7,1,0,1
257,-25,1,-16,1,9,1,20,1,-17,1,-4,1,12,1,-6,1,-9,1,-2,1,-7,1,-1,1
258,-25,1,-16,1,9,1,20,1,-17,1,-4,1,12,1,-7,1,-9,1,-3,1,-8,1,-1,1
259,-25,1,-16,1,9,1,20,1,-17,1,-4,1,10,1,-7,1,-10,1,-3,1,-8,1,-1,1
260,-25,1,-16,1,9,1,20,1,-17,1,-4,1,9,1,-8,1,-11,1,-4,1,-8,1,-2,1
261,-26,1,-16,1,10,1,21,1,-18,1,-3,1,9,1,-9,1,-12,1,-5,1,-8,1,-2,1
262,-26,1,-17,1,9,1,21,1,-18,1,-4,1,9,1,-9,1,-13,1,-5,1,-10,1,-2,1
263,-26,1,-17,1,9,1,21,1,-18,1,-4,1,9,1,-9,1,-13,1,-6,1,-10,1,-2,1
264,-26,1,-17,1,9,1,21,1,-18,1,-4,1,10,1,-10,1,-13,1,-7,1,-11,1,-2,1
265,-27,1,-18,1,9,1,22,1,-18,1,-5,1,9,1,-10,1,-13,1,-7,1,-11,1,-2,1
266,-27,1,-17,1,10,1,22,1,-19,1,-4,1,10,1,-10,1,-13,1,-8,1,-12,1,-3,1
267,-28,1,-17,1,11,1,22,1,-20,1,-3,1,10,1,-10,1,-13,1,-8,1,-13,1,-3,1
268,-28,1,-18,1,10,1,23,1,-19,1,-4,1,9,1,-11,1,-14,1,-7,1,-13,1,-3,1
269,-28,1,-18,1,10,1,23,1,-19,1,-4,1,9,1,-10,1,-14,1,-7,1,-12,1,-3,1
270,-28,1,-19,1,9,1,23,1,-19,1,-5,1,9,1,-10,1,-14,1,-7,1,-12,1,-3,1
271,-28,1,-20,1,8,1,24,1,-18,1,-6,1,8,1,-10,1,-14,1,-7,1,-13,1,-3,1
272,-28,1,-20,1,8,1,24,1,-18,1,-6,1,9,1,-10,1,-14,1,-7,1,-13,1,-4,1
273,-27,1,-19,1,8,1,23,1,-18,1,-6,1,8,1,-10,1,-14,1,-8,1,-13,1,-4,1
274,-27,1,-19,1,8,1,23,1,-18,1,-6,1,8,1,-10,1,-14,1,-8,1,-12,1,-4,1
275,-27,1,-19,1,8,1,23,1,-18,1,-6,1,9,1,-11,1,-14,1,-8,1,-12,1,-3,1
276,-27,1,-19,1,8,1,23,1,-18,1,-6,1,8,1,-11,1,-13,1,-7,1,-13,1,-2,1
277,-28,1,-19,1,9,1,23,1,-19,1,-5,1,9,1,-10,1,-13,1,-7,1,-13,1,-2,1
278,-27,1,-19,1,8,1,23,1,-18,1,-6,1,10,1,-10,1,-14,1,-6,1,-12,1,-2,1
279,-25,1,-19,1,6,1,22,1,-16,1,-7,1,9,1,-10,1,-14,1,-7,1,-12,1,-2,1
280,-25,1,-18,1,7,1,21,1,-16,1,-6,1,9,1,-10,1,-14,1,-6,1,-12,1,-2,1
281,-24,1,-18,1,6,1,21,1,-15,1,-6,1,9,1,-9,1,-15,1,-6,1,-12,1,-3,1
282,-24,1,-17,1,7,1,20,1,-16,1,-5,1,9,1,-9,1,-14,1,-6,1,-11,1,-2,1
283,-25,1,-17,1,8,1,21,1,-17,1,-5,1,9,1,-9,1,-14,1,-6,1,-10,1,-1,1
284,-25,1,-18,1,7,1,21,1,-16,1,-6,1,9,1,-9,1,-14,1,-7,1,-11,1,-1,1
285,-25,1,-18,1,7,1,21,1,-16,1,-6,1,9,1,-8,1,-13,1,-6,1,-10,1,0,1
286,-25,1,-18,1,7,1,21,1,-16,1,-6,1,9,1,-9,1,-13,1,-6,1,-10,1,0,1
287,-26,1,-16,1,10,1,21,1,-18,1,-3,1,9,1,-8,1,-14,1,-7,1,-10,1,0,1
288,-26,1,-16,1,10,1,21,1,-18,1,-3,1,9,1,-7,1,-14,1,-6,1,-10,1,0,1
289,-25,1,-16,1,9,1,20,1,-17,1,-4,1,9,1,-6,1,-13,1,-6,1,-11,1,0,1
290,-24,1,-16,1,8,1,20,1,-16,1,-4,1,9,1,-6,1,-14,1,-6,1,-11,1,-1,1
291,-23,1,-16,1,7,1,19,1,-15,1,-5,1,9,1,-5,1,-14,1,-6,1,-10,1,-1,1
292,-22,1,-16,1,6,1,19,1,-14,1,-5,1,9,1,-4,1,-13,1,-7,1,-9,1,-1,1
293,-22,1,-16,1,6,1,19,1,-14,1,-5,1,10,1,-4,1,-14,1,-5,1,-10,1,0,1
294,-22,1,-14,1,8,1,18,1,-15,1,-3,1,10,1,-4,1,-15,1,-1,1,-9,1,-1,1
295,-22,1,-14,1,8,1,18,1,-15,1,-3,1,10,1,-3,1,-15,1,1,1,-9,1,0,1
296,-23,1,-14,1,9,1,18,1,-16,1,-3,1,10,1,-3,1,-16,1,3,1,-8,1,0,1
297,-23,1,-14,1,9,1,18,1,-16,1,-3,1,9,1,-3,1,-16,1,3,1,-8,1,0,1
298,-22,1,-13,1,9,1,17,1,-16,1,-2,1,9,1,-3,1,-15,1,5,1,-7,1,0,1
299,-21,1,-12,1,9,1,16,1,-15,1,-2,1,7,1,-3,1,-15,1,7,1,-7,1,0,1
300,-21,1,-12,1,9,1,16,1,-15,1,-2,1,7,1,-3,1,-15,1,8,1,-6,1,1,1
301,-22,1,-12,1,10,1,17,1,-16,1,-1,1,7,1,-4,1,-14,1,9,1,-6,1,1,1
302,-22,1,-12,1,10,1,17,1,-16,1,-1,1,6,1,-3,1,-14,1,10,1,-7,1,2,1
303,-22,1,-12,1,10,1,17,1,-16,1,-1,1,6,1,-3,1,-14,1,10,1,-7,1,1,1
304,-22,1,-12,1,10,1,17,1,-16,1,-1,1,6,1,-3,1,-13,1,11,1,-6,1,1,1
305,-21,1,-12,1,9,1,16,1,-15,1,-2,1,5,1,-3,1,-12,1,11,1,-5,1,2,1
306,-20,1,-12,1,8,1,16,1,-14,1,-2,1,6,1,-3,1,-12,1,11,1,-5,1,2,1
307,-20,1,-12,1,8,1,16,1,-14,1,-2,1,6,1,-3,1,-11,1,11,1,-5,1,3,1
308,-20,1,-12,1,8,1,16,1,-14,1,-2,1,5,1,-3,1,-10,1,12,1,-4,1,3,1
309,-20,1,-12,1,8,1,16,1,-14,1,-2,1,5,1,-3,1,-11,1,13,1,-3,1,3,1
310,-20,1,-12,1,8,1,16,1,-14,1,-2,1,5,1,-3,1,-10,1,12,1,-3,1,3,1
311,-20,1,-12,1,8,1,16,1,-14,1,-2,1,5,1,-3,1,-11,1,13,1,-4,1,4,1
312,-20,1,-12,1,8,1,16,1,-14,1,-2,1,5,1,-3,1,-11,1,14,1,-3,1,3,1
313,-20,1,-11,1,9,1,15,1,-15,1,-1,1,5,1,-3,1,-11,1,14,1,-3,1,4,1
314,-20,1,-11,1,9,1,15,1,-15,1,-1,1,5,1,-2,1,-11,1,14,1,-2,1,3,1
315,-19,1,-10,1,9,1,14,1,-14,1,-1,1,5,1,-2,1,-12,1,13,1,-2,1,4,1
316,-19,1,-10,1,9,1,14,1,-14,1,-1,1,5,1,-2,1,-12,1,12,1,-3,1,3,1
317,-20,1,-10,1,10,1,15,1,-15,1,0,1,4,1,-3,1,-12,1,12,1,-3,1,3,1
318,-20,1,-9,1,11,1,14,1,-16,1,1,1,4,1,-3,1,-13,1,12,1,-3,1,3,1
319,-20,1,-9,1,11,1,14,1,-16,1,1,1,4,1,-2,1,-12,1,13,1,-2,1,4,1
320,-20,1,-9,1,11,1,14,1,-16,1,1,1,3,1,-4,1,-12,1,12,1,-2,1,4,1
321,-20,1,-9,1,11,1,14,1,-16,1,1,1,3,1,-4,1,-11,1,12,1,-3,1,5,1
322,-19,1,-9,1,10,1,14,1,-15,1,0,1,3,1,-4,1,-12,1,12,1,-2,1,5,1
323,-19,1,-9,1,10,1,14,1,-15,1,0,1,3,1,-4,1,-12,1,11,1,-2,1,5,1
324,-19,1,-8,1,11,1,13,1,-15,1,1,1,2,1,-4,1,-12,1,10,1,-2,1,5,1
325,-19,1,-8,1,11,1,13,1,-15,1,1,1,2,1,-4,1,-11,1,9,1,-3,1,5,1
326,-19,1,-8,1,11,1,13,1,-15,1,1,1,1,1,-4,1,-11,1,7,1,-3,1,4,1
327,-20,1,-8,1,12,1,14,1,-16,1,2,1,2,1,-4,1,-10,1,8,1,-2,1,4,1
328,-19,1,-8,1,11,1,13,1,-15,1,1,1,2,1,-5,1,-10,1,7,1,-2,1,5,1
329,-19,1,-7,1,12,1,13,1,-16,1,2,1,2,1,-5,1,-10,1,7,1,-2,1,5,1
330,-19,1,-7,1,12,1,13,1,-16,1,2,1,2,1,-6,1,-11,1,6,1,-3,1,5,1
331,-19,1,-8,1,11,1,13,1,-15,1,1,1,3,1,-6,1,-11,1,6,1,-2,1,6,1
332,-18,1,-7,1,11,1,12,1,-15,1,2,1,2,1,-6,1,-11,1,6,1,-2,1,5,1
333,-18,1,-8,1,10,1,13,1,-14,1,1,1,3,1,-5,1,-10,1,6,1,-2,1,5,1
334,-18,1,-8,1,10,1,13,1,-14,1,1,1,3,1,-5,1,-11,1,4,1,-2,1,4,1
335,-18,1,-8,1,10,1,13,1,-14,1,1,1,1,1,-4,1,-11,1,4,1,-2,1,4,1
336,-18,1,-7,1,11,1,12,1,-15,1,2,1,2,1,-5,1,-10,1,3,1,-2,1,3,1
337,-19,1,-8,1,11,1,13,1,-15,1,1,1,1,1,-5,1,-11,1,2,1,-1,1,4,1
338,-20,1,-9,1,11,1,14,1,-16,1,1,1,0,1,-5,1,-11,1,2,1,-1,1,4,1
339,-21,1,-9,1,12,1,15,1,-17,1,1,1,0,1,-5,1,-11,1,1,1,-2,1,4,1
340,-22,1,-9,1,13,1,15,1,-18,1,2,1,0,1,-7,1,-12,1,1,1,-1,1,4,1
341,-22,1,-9,1,13,1,15,1,-18,1,2,1,-1,1,-6,1,-12,1,1,1,-1,1,4,1
342,-22,1,-8,1,14,1,15,1,-18,1,3,1,0,1,-6,1,-12,1,0,1,-1,1,4,1
343,-22,1,-7,1,15,1,14,1,-19,1,4,1,0,1,-7,1,-12,1,0,1,-1,1,3,1
344,-22,1,-7,1,15,1,14,1,-19,1,4,1,0,1,-7,1,-13,1,0,1,-1,1,3,1
345,-22,1,-8,1,14,1,15,1,-18,1,3,1,0,1,-7,1,-13,1,-1,1,-1,1,4,1
346,-22,1,-8,1,14,1,15,1,-18,1,3,1,0,1,-7,1,-13,1,-1,1,-1,1,4,1
347,-22,1,-9,1,13,1,15,1,-18,1,2,1,0,1,-7,1,-14,1,-2,1,0,1,4,1
348,-21,1,-9,1,12,1,15,1,-17,1,1,1,0,1,-7,1,-12,1,-3,1,0,1,4,1
349,-21,1,-10,1,11,1,15,1,-16,1,0,1,0,1,-7,1,-12,1,-3,1,0,1,5,1
350,-21,1,-9,1,12,1,15,1,-17,1,1,1,-1,1,-7,1,-12,1,-4,1,0,1,5,1
351,-21,1,-9,1,12,1,15,1,-17,1,1,1,0,1,-8,1,-12,1,-4,1,0,1,5,1
352,-20,1,-10,1,10,1,15,1,-15,1,0,1,0,1,-8,1,-12,1,-4,1,0,1,5,1
353,-20,1,-10,1,10,1,15,1,-15,1,0,1,0,1,-8,1,-13,1,-5,1,-1,1,4,1
354,-20,1,-10,1,10,1,15,1,-15,1,0,1,0,1,-8,1,-13,1,-5,1,-2,1,4,1
355,-20,1,-10,1,10,1,15,1,-15,1,0,1,0,1,-8,1,-12,1,-5,1,-2,1,4,1
356,-20,1,-10,1,10,1,15,1,-15,1,0,1,-1,1,-8,1,-13,1,-6,1,-2,1,4,1
357,-21,1,-9,1,12,1,15,1,-17,1,1,1,-1,1,-8,1,-13,1,-6,1,-1,1,3,1
358,-22,1,-9,1,13,1,15,1,-18,1,2,1,-1,1,-8,1,-13,1,-8,1,-2,1,3,1
359,-23,1,-9,1,14,1,16,1,-19,1,2,1,-2,1,-9,1,-14,1,-8,1,-2,1,3,1
360,-23,1,-9,1,14,1,16,1,-19,1,2,1,-2,1,-8,1,-14,1,-8,1,-2,1,2,1
361,-22,1,-9,1,13,1,15,1,-18,1,2,1,-2,1,-8,1,-14,1,-9,1,-2,1,3,1
362,-22,1,-9,1,13,1,15,1,-18,1,2,1,-2,1,-8,1,-15,1,-9,1,-2,1,3,1
363,-22,1,-8,1,14,1,15,1,-18,1,3,1,-2,1,-8,1,-16,1,-9,1,-3,1,4,1
364,-23,1,-7,1,16,1,15,1,-20,1,4,1,-2,1,-7,1,-15,1,-9,1,-3,1,3,1
365,-22,1,-7,1,15,1,14,1,-19,1,4,1,-1,1,-7,1,-15,1,-9,1,-3,1,4,1
366,-23,1,-7,1,16,1,15,1,-20,1,4,1,-1,1,-7,1,-15,1,-10,1,-3,1,5,1
367,-23,1,-8,1,15,1,15,1,-19,1,3,1,-1,1,-8,1,-15,1,-10,1,-4,1,4,1
368,-23,1,-8,1,15,1,15,1,-19,1,3,1,-2,1,-8,1,-15,1,-10,1,-4,1,4,1
369,-23,1,-8,1,15,1,15,1,-19,1,3,1,-2,1,-8,1,-15,1,-10,1,-4,1,5,1
370,-24,1,-8,1,16,1,16,1,-20,1,4,1,-2,1,-8,1,-15,1,-9,1,-4,1,5,1
371,-23,1,-8,1,15,1,15,1,-19,1,3,1,-2,1,-8,1,-16,1,-10,1,-4,1,4,1
372,-22,1,-7,1,15,1,14,1,-19,1,4,1,-2,1,-7,1,-15,1,-10,1,-4,1,4,1
373,-22,1,-7,1,15,1,14,1,-19,1,4,1,-1,1,-7,1,-15,1,-10,1,-4,1,4,1
374,-22,1,-7,1,15,1,14,1,-19,1,4,1,-1,1,-7,1,-15,1,-10,1,-3,1,3,1
375,-21,1,-7,1,14,1,14,1,-18,1,3,1,-2,1,-7,1,-15,1,-10,1,-3,1,3,1
376,-21,1,-7,1,14,1,14,1,-18,1,3,1,-2,1,-7,1,-15,1,-11,1,-3,1,4,1
377,-21,1,-6,1,15,1,13,1,-18,1,4,1,-2,1,-7,1,-15,1,-10,1,-3,1,4,1
378,-21,1,-6,1,15,1,13,1,-18,1,4,1,-2,1,-6,1,-15,1,-10,1,-3,1,3,1
379,-21,1,-6,1,15,1,13,1,-18,1,4,1,-2,1,-7,1,-15,1,-10,1,-2,1,4,1
380,-21,1,-6,1,15,1,13,1,-18,1,4,1,-2,1,-7,1,-15,1,-10,1,-2,1,4,1
381,-21,1,-6,1,15,1,13,1,-18,1,4,1,-3,1,-6,1,-16,1,-10,1,-2,1,4,1
382,-21,1,-7,1,14,1,14,1,-18,1,3,1,-3,1,-5,1,-16,1,-9,1,-3,1,4,1
383,-21,1,-7,1,14,1,14,1,-18,1,3,1,-2,1,-6,1,-16,1,-9,1,-3,1,4,1
384,-21,1,-6,1,15,1,13,1,-18,1,4,1,-3,1,-6,1,-16,1,-9,1,-3,1,4,1
385,-22,1,-7,1,15,1,14,1,-19,1,4,1,-2,1,-5,1,-15,1,-9,1,-2,1,4,1
386,-22,1,-7,1,15,1,14,1,-19,1,4,1,-2,1,-5,1,-15,1,-8,1,-2,1,3,1
387,-23,1,-7,1,16,1,15,1,-20,1,4,1,-3,1,-6,1,-15,1,-9,1,-3,1,4,1
388,-23,1,-7,1,16,1,15,1,-20,1,4,1,-3,1,-5,1,-14,1,-8,1,-2,1,4,1
389,-22,1,-7,1,15,1,14,1,-19,1,4,1,-3,1,-5,1,-14,1,-8,1,-1,1,4,1
390,-22,1,-6,1,16,1,14,1,-19,1,5,1,-5,1,-6,1,-14,1,-9,1,-1,1,3,1
391,-22,1,-6,1,16,1,14,1,-19,1,5,1,-5,1,-7,1,-15,1,-9,1,-1,1,3,1
392,-21,1,-6,1,15,1,13,1,-18,1,4,1,-5,1,-7,1,-14,1,-9,1,-2,1,4,1
393,-21,1,-5,1,16,1,13,1,-19,1,5,1,-5,1,-6,1,-14,1,-10,1,-2,1,4,1
394,-21,1,-5,1,16,1,13,1,-19,1,5,1,-5,1,-6,1,-15,1,-10,1,-2,1,4,1
395,-20,1,-5,1,15,1,12,1,-18,1,5,1,-4,1,-5,1,-14,1,-11,1,-2,1,5,1
396,-20,1,-5,1,15,1,12,1,-18,1,5,1,-4,1,-5,1,-14,1,-10,1,-2,1,6,1
397,-20,1,-5,1,15,1,12,1,-18,1,5,1,-3,1,-4,1,-14,1,-10,1,-3,1,5,1
398,-19,1,-5,1,14,1,12,1,-17,1,4,1,-2,1,-3,1,-13,1,-11,1,-2,1,5,1
399,-19,1,-4,1,15,1,11,1,-17,1,5,1,-2,1,-1,1,-12,1,-10,1,-2,1,6,1
400,-19,1,-4,1,15,1,11,1,-17,1,5,1,-2,1,-1,1,-12,1,-10,1,-2,1,6,1
401,-18,1,-3,1,15,1,10,1,-17,1,6,1,-2,1,0,1,-11,1,-9,1,-1,1,6,1
402,-18,1,-2,1,16,1,10,1,-17,1,7,1,-1,1,0,1,-11,1,-8,1,-2,1,6,1
403,-18,1,-2,1,16,1,10,1,-17,1,7,1,-1,1,1,1,-10,1,-7,1,-1,1,7,1
404,-17,1,-1,1,16,1,9,1,-17,1,7,1,0,1,2,1,-9,1,-6,1,0,1,8,1
405,-16,1,-1,1,15,1,8,1,-16,1,7,1,0,1,2,1,-8,1,-5,1,0,1,7,1
406,-16,1,0,1,16,1,8,1,-16,1,8,1,0,1,3,1,-8,1,-5,1,1,1,8,1
407,-16,1,0,1,16,1,8,1,-16,1,8,1,1,1,4,1,-8,1,-4,1,1,1,8,1
408,-16,1,1,1,17,1,7,1,-16,1,9,1,2,1,4,1,-7,1,-3,1,2,1,8,1
409,-16,1,1,1,17,1,7,1,-16,1,9,1,2,1,5,1,-7,1,-3,1,3,1,8,1
410,-17,1,2,1,19,1,7,1,-18,1,10,1,3,1,5,1,-6,1,-2,1,3,1,8,1
411,-17,1,4,1,21,1,6,1,-19,1,12,1,3,1,6,1,-5,1,-1,1,4,1,9,1
412,-17,1,5,1,22,1,6,1,-19,1,13,1,3,1,7,1,-5,1,-1,1,3,1,9,1
413,-16,1,5,1,21,1,5,1,-18,1,13,1,3,1,7,1,-5,1,-1,1,4,1,8,1
414,-16,1,6,1,22,1,5,1,-19,1,14,1,3,1,8,1,-5,1,0,1,4,1,8,1
415,-15,1,6,1,21,1,4,1,-18,1,13,1,3,1,9,1,-4,1,0,1,5,1,8,1
416,-14,1,6,1,20,1,4,1,-17,1,13,1,3,1,11,1,-5,1,1,1,5,1,8,1
417,-12,1,7,1,19,1,2,1,-15,1,13,1,3,1,12,1,-4,1,1,1,5,1,8,1
418,-11,1,7,1,18,1,2,1,-14,1,12,1,4,1,12,1,-2,1,2,1,5,1,9,1
419,-10,1,7,1,17,1,1,1,-13,1,12,1,3,1,13,1,-1,1,3,1,6,1,10,1
420,-9,1,8,1,17,1,0,1,-13,1,12,1,4,1,14,1,-1,1,3,1,7,1,11,1
421,-8,1,9,1,17,1,0,1,-12,1,13,1,4,1,14,1,0,1,4,1,8,1,12,1
422,-8,1,10,1,18,1,-1,1,-13,1,14,1,3,1,14,1,0,1,4,1,10,1,13,1
423,-7,1,10,1,17,1,-1,1,-12,1,13,1,2,1,14,1,0,1,4,1,9,1,13,1
424,-6,1,10,1,16,1,-2,1,-11,1,13,1,1,1,13,1,0,1,5,1,9,1,14,1
425,-5,1,10,1,15,1,-2,1,-10,1,12,1,0,1,13,1,0,1,5,1,10,1,14,1
426,-5,1,10,1,15,1,-2,1,-10,1,12,1,0,1,14,1,-1,1,5,1,10,1,14,1
427,-6,1,9,1,15,1,-1,1,-10,1,12,1,-1,1,12,1,-1,1,5,1,9,1,15,1
428,-6,1,7,1,13,1,0,1,-9,1,10,1,-3,1,11,1,-1,1,4,1,8,1,15,1
429,-6,1,7,1,13,1,0,1,-9,1,10,1,-4,1,9,1,-2,1,3,1,7,1,14,1
430,-6,1,7,1,13,1,0,1,-9,1,10,1,-5,1,7,1,-3,1,3,1,6,1,13,1
431,-7,1,6,1,13,1,0,1,-10,1,9,1,-6,1,5,1,-4,1,1,1,5,1,12,1
432,-7,1,5,1,12,1,1,1,-9,1,8,1,-6,1,3,1,-4,1,0,1,5,1,11,1
433,-8,1,5,1,13,1,1,1,-10,1,9,1,-6,1,2,1,-6,1,-1,1,4,1,10,1
434,-7,1,4,1,11,1,1,1,-9,1,7,1,-6,1,1,1,-6,1,-2,1,3,1,8,1
435,-8,1,3,1,11,1,2,1,-9,1,7,1,-7,1,2,1,-7,1,-3,1,3,1,8,1
436,-9,1,3,1,12,1,3,1,-10,1,7,1,-7,1,1,1,-7,1,-3,1,3,1,7,1
437,-10,1,2,1,12,1,4,1,-11,1,7,1,-7,1,0,1,-8,1,-5,1,2,1,7,1
438,-10,1,1,1,11,1,4,1,-10,1,6,1,-7,1,0,1,-9,1,-5,1,2,1,6,1
439,-10,1,0,1,10,1,5,1,-10,1,5,1,-8,1,-2,1,-10,1,-6,1,0,1,6,1
440,-11,1,-2,1,9,1,6,1,-10,1,3,1,-9,1,-4,1,-12,1,-8,1,0,1,5,1
441,-11,1,-3,1,8,1,7,1,-10,1,2,1,-9,1,-6,1,-13,1,-8,1,-1,1,5,1
442,-11,1,-3,1,8,1,7,1,-10,1,2,1,-9,1,-7,1,-13,1,-9,1,-2,1,4,1
443,-13,1,-4,1,9,1,8,1,-11,1,2,1,-9,1,-8,1,-14,1,-10,1,-2,1,3,1
444,-15,1,-5,1,10,1,10,1,-13,1,2,1,-8,1,-8,1,-13,1,-10,1,-3,1,2,1
445,-17,1,-5,1,12,1,11,1,-15,1,3,1,-9,1,-8,1,-13,1,-10,1,-4,1,2,1
446,-18,1,-5,1,13,1,11,1,-16,1,4,1,-8,1,-9,1,-14,1,-10,1,-4,1,2,1
447,-20,1,-6,1,14,1,13,1,-17,1,4,1,-7,1,-9,1,-15,1,-11,1,-5,1,1,1
448,-21,1,-7,1,14,1,14,1,-18,1,3,1,-7,1,-9,1,-15,1,-12,1,-5,1,1,1
449,-21,1,-7,1,14,1,14,1,-18,1,3,1,-6,1,-8,1,-16,1,-13,1,-6,1,1,1
450,-21,1,-7,1,14,1,14,1,-18,1,3,1,-6,1,-8,1,-16,1,-14,1,-6,1,1,1
451,-21,1,-7,1,14,1,14,1,-18,1,3,1,-6,1,-9,1,-16,1,-15,1,-7,1,1,1
452,-21,1,-7,1,14,1,14,1,-18,1,3,1,-6,1,-9,1,-16,1,-15,1,-7,1,0,1
453,-21,1,-8,1,13,1,14,1,-17,1,2,1,-7,1,-9,1,-17,1,-15,1,-8,1,1,1
454,-22,1,-8,1,14,1,15,1,-18,1,3,1,-8,1,-9,1,-18,1,-15,1,-8,1,0,1
455,-22,1,-7,1,15,1,14,1,-19,1,4,1,-9,1,-10,1,-18,1,-15,1,-8,1,1,1
456,-22,1,-7,1,15,1,14,1,-19,1,4,1,-9,1,-9,1,-18,1,-14,1,-8,1,1,1
457,-22,1,-7,1,15,1,14,1,-19,1,4,1,-8,1,-9,1,-19,1,-15,1,-9,1,1,1
458,-22,1,-8,1,14,1,15,1,-18,1,3,1,-9,1,-9,1,-19,1,-15,1,-9,1,1,1
459,-21,1,-8,1,13,1,14,1,-17,1,2,1,-9,1,-9,1,-20,1,-16,1,-8,1,1,1
460,-21,1,-9,1,12,1,15,1,-17,1,1,1,-9,1,-9,1,-20,1,-16,1,-8,1,1,1
461,-22,1,-8,1,14,1,15,1,-18,1,3,1,-9,1,-9,1,-20,1,-15,1,-7,1,0,1
462,-22,1,-8,1,14,1,15,1,-18,1,3,1,-9,1,-8,1,-20,1,-15,1,-8,1,1,1
463,-22,1,-8,1,14,1,15,1,-18,1,3,1,-9,1,-8,1,-20,1,-15,1,-8,1,1,1
464,-22,1,-8,1,14,1,15,1,-18,1,3,1,-8,1,-7,1,-19,1,-15,1,-9,1,1,1
465,-22,1,-8,1,14,1,15,1,-18,1,3,1,-8,1,-7,1,-19,1,-15,1,-8,1,0,1
466,-22,1,-8,1,14,1,15,1,-18,1,3,1,-8,1,-7,1,-19,1,-15,1,-8,1,1,1
467,-22,1,-7,1,15,1,14,1,-19,1,4,1,-7,1,-7,1,-18,1,-14,1,-7,1,1,1
468,-23,1,-8,1,15,1,15,1,-19,1,3,1,-8,1,-6,1,-18,1,-15,1,-7,1,1,1
469,-23,1,-8,1,15,1,15,1,-19,1,3,1,-7,1,-5,1,-18,1,-14,1,-7,1,2,1
470,-24,1,-7,1,17,1,15,1,-21,1,5,1,-7,1,-6,1,-18,1,-14,1,-6,1,1,1
471,-25,1,-5,1,20,1,15,1,-23,1,7,1,-6,1,-5,1,-16,1,-13,1,-5,1,2,1
472,-25,1,-3,1,22,1,14,1,-24,1,9,1,-5,1,-2,1,-15,1,-10,1,-4,1,4,1
473,-25,1,0,1,25,1,12,1,-25,1,12,1,-3,1,1,1,-11,1,-7,1,-1,1,7,1
474,-24,1,6,1,30,1,9,1,-27,1,18,1,-1,1,7,1,-5,1,-1,1,1,1,11,1
475,-22,1,9,1,31,1,6,1,-26,1,20,1,0,1,13,1,0,1,5,1,5,1,13,1
476,-19,1,12,1,31,1,3,1,-25,1,21,1,2,1,21,1,8,1,11,1,9,1,16,1
477,-16,1,13,1,29,1,1,1,-22,1,21,1,3,1,31,1,18,1,19,1,14,1,19,1
478,-9,1,14,1,23,1,-2,1,-16,1,18,1,3,1,44,1,30,1,28,1,20,1,22,1
479,1,1,16,1,15,1,-8,1,-7,1,16,1,2,1,60,1,44,1,39,1,28,1,27,1
480,14,1,22,1,8,1,-18,1,3,1,15,1,1,1,80,1,62,1,56,1,39,1,34,1
481,30,1,29,1,-1,1,-29,1,16,1,14,1,0,1,100,1,83,1,77,1,54,1,46,1
482,48,1,38,1,-10,1,-43,1,29,1,14,1,-2,1,115,1,101,1,98,1,70,1,59,1
483,63,1,46,1,-17,1,-54,1,40,1,15,1,-3,1,122,1,115,1,116,1,85,1,72,1
484,77,1,52,1,-25,1,-64,1,51,1,14,1,-5,1,128,1,129,1,134,1,99,1,83,1
485,90,1,58,1,-32,1,-74,1,61,1,13,1,-8,1,131,1,141,1,150,1,112,1,93,1
486,101,1,64,1,-37,1,-82,1,69,1,14,1,-11,1,130,1,151,1,164,1,125,1,103,1
487,112,1,67,1,-45,1,-89,1,79,1,11,1,-15,1,121,1,156,1,171,1,133,1,108,1
488,122,1,61,1,-61,1,-91,1,92,1,0,1,-20,1,109,1,155,1,170,1,135,1,107,1
489,130,1,46,1,-84,1,-88,1,107,1,-19,1,-26,1,90,1,142,1,156,1,123,1,96,1
490,133,1,27,1,-106,1,-80,1,120,1,-39,1,-29,1,66,1,121,1,132,1,104,1,79,1
491,128,1,11,1,-117,1,-69,1,123,1,-53,1,-31,1,33,1,91,1,101,1,82,1,63,1
492,114,1,-4,1,-118,1,-55,1,116,1,-61,1,-33,1,-9,1,50,1,63,1,54,1,44,1
493,92,1,-22,1,-114,1,-35,1,103,1,-68,1,-34,1,-54,1,3,1,17,1,20,1,19,1
494,62,1,-40,1,-102,1,-11,1,82,1,-71,1,-33,1,-99,1,-42,1,-27,1,-11,1,-4,1
495,27,1,-52,1,-79,1,12,1,53,1,-65,1,-32,1,-144,1,-86,1,-68,1,-39,1,-24,1
496,-8,1,-60,1,-52,1,34,1,22,1,-56,1,-33,1,-185,1,-126,1,-104,1,-60,1,-39,1
497,-40,1,-62,1,-22,1,51,1,-9,1,-42,1,-35,1,-216,1,-153,1,-130,1,-75,1,-48,1
498,-63,1,-59,1,4,1,61,1,-34,1,-28,1,-37,1,-236,1,-168,1,-144,1,-82,1,-51,1
499,-78,1,-54,1,24,1,66,1,-51,1,-15,1,-39,1,-248,1,-175,1,-151,1,-84,1,-51,1
500,-86,1,-52,1,34,1,69,1,-60,1,-9,1,-41,1,-252,1,-178,1,-155,1,-85,1,-52,1
501,-90,1,-52,1,38,1,71,1,-64,1,-7,1,-43,1,-249,1,-180,1,-156,1,-86,1,-52,1
502,-90,1,-54,1,36,1,72,1,-63,1,-9,1,-44,1,-240,1,-179,1,-155,1,-85,1,-50,1
503,-89,1,-53,1,36,1,71,1,-63,1,-9,1,-46,1,-225,1,-174,1,-149,1,-82,1,-48,1
504,-87,1,-52,1,35,1,69,1,-61,1,-9,1,-45,1,-205,1,-164,1,-140,1,-78,1,-45,1
505,-82,1,-49,1,33,1,65,1,-58,1,-8,1,-43,1,-182,1,-150,1,-129,1,-72,1,-43,1
506,-74,1,-43,1,31,1,58,1,-53,1,-6,1,-40,1,-156,1,-131,1,-114,1,-63,1,-37,1
507,-66,1,-37,1,29,1,51,1,-48,1,-4,1,-35,1,-128,1,-109,1,-97,1,-53,1,-31,1
508,-58,1,-30,1,28,1,44,1,-43,1,-1,1,-28,1,-101,1,-88,1,-82,1,-44,1,-25,1
509,-50,1,-25,1,25,1,37,1,-38,1,0,1,-21,1,-77,1,-69,1,-66,1,-36,1,-19,1
510,-43,1,-20,1,23,1,31,1,-33,1,1,1,-16,1,-57,1,-53,1,-53,1,-29,1,-14,1
511,-36,1,-16,1,20,1,26,1,-28,1,2,1,-12,1,-43,1,-42,1,-43,1,-23,1,-9,1
512,-31,1,-11,1,20,1,21,1,-26,1,4,1,-8,1,-31,1,-34,1,-35,1,-18,1,-4,1
513,-27,1,-9,1,18,1,18,1,-23,1,4,1,-7,1,-21,1,-29,1,-29,1,-14,1,0,1
514,-24,1,-9,1,15,1,16,1,-20,1,3,1,-7,1,-13,1,-25,1,-26,1,-11,1,2,1
515,-21,1,-8,1,13,1,14,1,-17,1,2,1,-6,1,-6,1,-21,1,-23,1,-8,1,4,1
516,-21,1,-8,1,13,1,14,1,-17,1,2,1,-6,1,-2,1,-18,1,-20,1,-7,1,4,1
517,-21,1,-8,1,13,1,14,1,-17,1,2,1,-6,1,2,1,-14,1,-18,1,-6,1,5,1
518,-21,1,-7,1,14,1,14,1,-18,1,3,1,-4,1,7,1,-10,1,-14,1,-5,1,5,1
519,-22,1,-7,1,15,1,14,1,-19,1,4,1,-2,1,10,1,-8,1,-12,1,-5,1,5,1
520,-21,1,-7,1,14,1,14,1,-18,1,3,1,-2,1,12,1,-7,1,-11,1,-5,1,4,1
521,-20,1,-7,1,13,1,13,1,-17,1,3,1,0,1,13,1,-6,1,-9,1,-4,1,4,1
522,-18,1,-7,1,11,1,12,1,-15,1,2,1,0,1,14,1,-5,1,-8,1,-3,1,4,1
523,-18,1,-7,1,11,1,12,1,-15,1,2,1,1,1,15,1,-5,1,-8,1,-2,1,5,1
524,-17,1,-7,1,10,1,12,1,-14,1,1,1,0,1,17,1,-4,1,-7,1,-2,1,5,1
525,-17,1,-6,1,11,1,11,1,-14,1,2,1,0,1,18,1,-2,1,-6,1,-1,1,6,1
526,-17,1,-6,1,11,1,11,1,-14,1,2,1,0,1,19,1,-1,1,-5,1,-1,1,6,1
527,-17,1,-6,1,11,1,11,1,-14,1,2,1,0,1,21,1,0,1,-4,1,0,1,5,1
528,-16,1,-5,1,11,1,10,1,-14,1,3,1,-1,1,22,1,0,1,-3,1,0,1,5,1
529,-15,1,-5,1,10,1,10,1,-13,1,2,1,0,1,23,1,0,1,-3,1,1,1,5,1
530,-15,1,-4,1,11,1,9,1,-13,1,3,1,0,1,24,1,0,1,-2,1,0,1,6,1
531,-14,1,-4,1,10,1,9,1,-12,1,3,1,0,1,24,1,1,1,-1,1,0,1,6,1
532,-13,1,-4,1,9,1,8,1,-11,1,2,1,0,1,25,1,2,1,-1,1,0,1,6,1
533,-12,1,-5,1,7,1,8,1,-10,1,1,1,0,1,26,1,2,1,0,1,0,1,7,1
534,-12,1,-5,1,7,1,8,1,-10,1,1,1,1,1,27,1,3,1,2,1,0,1,8,1
535,-12,1,-5,1,7,1,8,1,-10,1,1,1,0,1,28,1,4,1,3,1,1,1,8,1
536,-12,1,-6,1,6,1,9,1,-9,1,0,1,0,1,29,1,4,1,5,1,2,1,9,1
537,-13,1,-6,1,7,1,9,1,-10,1,0,1,1,1,30,1,4,1,7,1,2,1,9,1
538,-12,1,-6,1,6,1,9,1,-9,1,0,1,0,1,31,1,5,1,8,1,3,1,10,1
539,-11,1,-6,1,5,1,8,1,-8,1,-1,1,0,1,31,1,6,1,9,1,4,1,11,1
540,-11,1,-6,1,5,1,8,1,-8,1,-1,1,0,1,32,1,6,1,9,1,4,1,11,1
541,-10,1,-7,1,3,1,8,1,-7,1,-2,1,0,1,33,1,7,1,10,1,5,1,12,1
542,-9,1,-6,1,3,1,7,1,-6,1,-2,1,-1,1,32,1,8,1,10,1,5,1,12,1
543,-8,1,-6,1,2,1,7,1,-5,1,-2,1,0,1,33,1,9,1,11,1,6,1,13,1
544,-7,1,-5,1,2,1,6,1,-5,1,-2,1,0,1,35,1,9,1,11,1,7,1,13,1
545,-6,1,-6,1,0,1,6,1,-3,1,-3,1,1,1,36,1,11,1,13,1,8,1,14,1
546,-6,1,-6,1,0,1,6,1,-3,1,-3,1,0,1,38,1,12,1,14,1,9,1,14,1
547,-6,1,-7,1,-1,1,6,1,-3,1,-4,1,0,1,39,1,11,1,14,1,9,1,14,1
548,-4,1,-6,1,-2,1,5,1,-1,1,-4,1,0,1,39,1,12,1,15,1,9,1,15,1
549,-4,1,-6,1,-2,1,5,1,-1,1,-4,1,0,1,41,1,13,1,15,1,9,1,15,1
550,-3,1,-5,1,-2,1,4,1,-1,1,-4,1,0,1,41,1,12,1,16,1,10,1,15,1
551,-1,1,-3,1,-2,1,2,1,0,1,-3,1,0,1,42,1,13,1,16,1,9,1,15,1
552,0,1,-3,1,-3,1,1,1,1,1,-3,1,0,1,43,1,14,1,16,1,10,1,16,1
553,1,1,-3,1,-4,1,1,1,2,1,-3,1,0,1,44,1,14,1,16,1,10,1,16,1
554,2,1,-3,1,-5,1,0,1,3,1,-4,1,0,1,44,1,14,1,17,1,10,1,17,1
555,3,1,-2,1,-5,1,0,1,4,1,-3,1,1,1,46,1,15,1,18,1,11,1,18,1
556,4,1,-2,1,-6,1,-1,1,5,1,-4,1,2,1,47,1,17,1,18,1,12,1,18,1
557,5,1,-1,1,-6,1,-2,1,5,1,-3,1,2,1,48,1,17,1,19,1,12,1,18,1
558,5,1,-1,1,-6,1,-2,1,5,1,-3,1,2,1,49,1,18,1,20,1,13,1,19,1
559,5,1,-1,1,-6,1,-2,1,5,1,-3,1,2,1,50,1,19,1,21,1,14,1,19,1
560,5,1,-1,1,-6,1,-2,1,5,1,-3,1,1,1,50,1,20,1,22,1,15,1,20,1
561,5,1,0,1,-5,1,-2,1,5,1,-2,1,1,1,51,1,20,1,22,1,16,1,21,1
562,6,1,0,1,-6,1,-3,1,6,1,-3,1,0,1,52,1,21,1,23,1,17,1,22,1
563,7,1,1,1,-6,1,-4,1,7,1,-2,1,0,1,53,1,22,1,24,1,17,1,21,1
564,7,1,2,1,-5,1,-4,1,6,1,-1,1,0,1,55,1,24,1,25,1,18,1,21,1
565,9,1,3,1,-6,1,-6,1,8,1,-1,1,1,1,56,1,24,1,26,1,19,1,23,1
566,10,1,4,1,-6,1,-7,1,8,1,-1,1,1,1,56,1,25,1,28,1,18,1,24,1
567,11,1,4,1,-7,1,-7,1,9,1,-1,1,1,1,57,1,26,1,29,1,18,1,25,1
568,12,1,4,1,-8,1,-8,1,10,1,-2,1,1,1,59,1,28,1,30,1,19,1,27,1
569,14,1,4,1,-10,1,-9,1,12,1,-3,1,1,1,61,1,29,1,30,1,19,1,29,1
570,14,1,4,1,-10,1,-9,1,12,1,-3,1,0,1,62,1,30,1,31,1,21,1,29,1
571,14,1,5,1,-9,1,-9,1,12,1,-2,1,0,1,64,1,31,1,32,1,22,1,30,1
572,15,1,5,1,-10,1,-10,1,13,1,-2,1,-1,1,65,1,32,1,33,1,24,1,31,1
573,16,1,5,1,-11,1,-10,1,14,1,-3,1,-1,1,66,1,34,1,34,1,25,1,31,1
574,18,1,5,1,-13,1,-11,1,16,1,-4,1,0,1,67,1,35,1,35,1,25,1,32,1
575,19,1,6,1,-13,1,-12,1,16,1,-3,1,-1,1,68,1,37,1,37,1,26,1,33,1
576,21,1,6,1,-15,1,-13,1,18,1,-4,1,-2,1,70,1,37,1,39,1,28,1,33,1
577,23,1,8,1,-15,1,-15,1,19,1,-3,1,-2,1,71,1,39,1,42,1,29,1,33,1
578,25,1,8,1,-17,1,-16,1,21,1,-4,1,-2,1,73,1,40,1,44,1,30,1,34,1
579,26,1,9,1,-17,1,-17,1,22,1,-4,1,-3,1,72,1,42,1,46,1,31,1,35,1
580,28,1,9,1,-19,1,-18,1,24,1,-5,1,-4,1,73,1,42,1,48,1,32,1,36,1
581,29,1,10,1,-19,1,-19,1,24,1,-4,1,-4,1,74,1,44,1,49,1,33,1,37,1
582,31,1,11,1,-20,1,-21,1,26,1,-4,1,-5,1,75,1,46,1,51,1,33,1,38,1
583,33,1,14,1,-19,1,-23,1,26,1,-2,1,-6,1,76,1,48,1,53,1,35,1,39,1
584,34,1,15,1,-19,1,-24,1,27,1,-2,1,-7,1,77,1,49,1,55,1,36,1,40,1
585,35,1,16,1,-19,1,-25,1,27,1,-1,1,-7,1,79,1,51,1,56,1,38,1,41,1
586,37,1,16,1,-21,1,-26,1,29,1,-2,1,-7,1,80,1,52,1,58,1,39,1,43,1
587,39,1,17,1,-22,1,-28,1,31,1,-2,1,-9,1,81,1,52,1,61,1,40,1,44,1
588,41,1,18,1,-23,1,-29,1,32,1,-2,1,-10,1,82,1,54,1,62,1,42,1,45,1
589,43,1,20,1,-23,1,-31,1,33,1,-1,1,-12,1,84,1,55,1,64,1,43,1,45,1
590,45,1,22,1,-23,1,-33,1,34,1,0,1,-12,1,85,1,57,1,66,1,44,1,46,1
591,46,1,23,1,-23,1,-34,1,35,1,0,1,-12,1,86,1,58,1,67,1,44,1,47,1
592,47,1,24,1,-23,1,-35,1,35,1,1,1,-13,1,87,1,60,1,69,1,46,1,48,1
593,49,1,25,1,-24,1,-37,1,37,1,1,1,-13,1,88,1,62,1,71,1,47,1,49,1
594,50,1,26,1,-24,1,-38,1,37,1,1,1,-13,1,88,1,63,1,72,1,48,1,50,1
595,51,1,27,1,-24,1,-39,1,38,1,2,1,-13,1,89,1,63,1,73,1,50,1,52,1
596,53,1,29,1,-24,1,-41,1,39,1,3,1,-14,1,90,1,64,1,74,1,51,1,53,1
597,54,1,29,1,-25,1,-41,1,40,1,2,1,-14,1,91,1,65,1,75,1,52,1,54,1
598,55,1,29,1,-26,1,-42,1,41,1,2,1,-14,1,92,1,67,1,75,1,53,1,54,1
599,56,1,29,1,-27,1,-42,1,42,1,1,1,-15,1,92,1,67,1,76,1,53,1,54,1
600,57,1,30,1,-27,1,-43,1,42,1,2,1,-16,1,93,1,67,1,77,1,54,1,54,1
601,58,1,31,1,-27,1,-44,1,43,1,2,1,-16,1,93,1,68,1,77,1,54,1,54,1
602,59,1,32,1,-27,1,-45,1,43,1,3,1,-16,1,93,1,69,1,77,1,54,1,55,1
603,59,1,33,1,-26,1,-46,1,43,1,4,1,-16,1,91,1,68,1,78,1,54,1,55,1
604,60,1,34,1,-26,1,-47,1,43,1,4,1,-17,1,91,1,69,1,78,1,54,1,56,1
605,60,1,34,1,-26,1,-47,1,43,1,4,1,-16,1,91,1,69,1,78,1,55,1,57,1
606,60,1,34,1,-26,1,-47,1,43,1,4,1,-15,1,91,1,70,1,78,1,55,1,58,1
607,60,1,33,1,-27,1,-46,1,44,1,3,1,-14,1,91,1,70,1,79,1,55,1,58,1
608,60,1,33,1,-27,1,-46,1,44,1,3,1,-14,1,91,1,69,1,78,1,55,1,57,1
609,59,1,32,1,-27,1,-45,1,43,1,3,1,-13,1,89,1,67,1,77,1,53,1,57,1
610,57,1,32,1,-25,1,-44,1,41,1,4,1,-13,1,87,1,65,1,76,1,52,1,56,1
611,55,1,31,1,-24,1,-43,1,40,1,4,1,-12,1,86,1,63,1,75,1,52,1,55,1
612,53,1,30,1,-23,1,-41,1,38,1,4,1,-13,1,84,1,62,1,73,1,51,1,55,1
613,51,1,29,1,-22,1,-40,1,37,1,4,1,-12,1,83,1,60,1,71,1,50,1,53,1
614,48,1,28,1,-20,1,-38,1,34,1,4,1,-10,1,83,1,60,1,70,1,49,1,52,1
615,46,1,27,1,-19,1,-36,1,33,1,4,1,-10,1,82,1,58,1,69,1,47,1,51,1
616,44,1,25,1,-19,1,-34,1,32,1,3,1,-8,1,81,1,56,1,65,1,45,1,49,1
617,41,1,23,1,-18,1,-32,1,30,1,3,1,-7,1,79,1,53,1,62,1,43,1,46,1
618,39,1,22,1,-17,1,-30,1,28,1,3,1,-5,1,76,1,50,1,58,1,41,1,44,1
619,37,1,21,1,-16,1,-29,1,27,1,3,1,-4,1,74,1,48,1,56,1,38,1,42,1
620,35,1,20,1,-15,1,-27,1,25,1,3,1,-2,1,71,1,45,1,53,1,36,1,40,1
621,32,1,18,1,-14,1,-25,1,23,1,2,1,-1,1,69,1,43,1,51,1,33,1,39,1
622,30,1,16,1,-14,1,-23,1,22,1,1,1,0,1,68,1,41,1,49,1,31,1,37,1
623,27,1,13,1,-14,1,-20,1,21,1,0,1,1,1,65,1,39,1,47,1,29,1,35,1
624,23,1,10,1,-13,1,-16,1,18,1,-1,1,1,1,63,1,36,1,44,1,27,1,33,1
625,20,1,7,1,-13,1,-13,1,17,1,-3,1,3,1,61,1,34,1,42,1,26,1,32,1
626,17,1,5,1,-12,1,-11,1,15,1,-3,1,4,1,59,1,31,1,39,1,24,1,30,1
627,13,1,3,1,-10,1,-8,1,12,1,-3,1,6,1,56,1,29,1,36,1,22,1,27,1
628,11,1,1,1,-10,1,-6,1,11,1,-4,1,7,1,54,1,27,1,32,1,19,1,25,1
629,8,1,0,1,-8,1,-4,1,8,1,-4,1,8,1,52,1,24,1,30,1,17,1,23,1
630,5,1,-2,1,-7,1,-1,1,6,1,-4,1,9,1,50,1,22,1,27,1,15,1,21,1
631,2,1,-3,1,-5,1,0,1,3,1,-4,1,10,1,48,1,20,1,26,1,12,1,20,1
632,0,1,-4,1,-4,1,2,1,2,1,-4,1,10,1,45,1,19,1,23,1,9,1,19,1
633,-2,1,-5,1,-3,1,3,1,0,1,-4,1,10,1,43,1,16,1,20,1,7,1,17,1
634,-4,1,-6,1,-2,1,5,1,-1,1,-4,1,11,1,42,1,14,1,19,1,6,1,15,1
635,-6,1,-8,1,-2,1,7,1,-2,1,-5,1,12,1,40,1,13,1,17,1,5,1,14,1
636,-7,1,-10,1,-3,1,8,1,-2,1,-7,1,12,1,37,1,11,1,13,1,4,1,12,1
637,-9,1,-11,1,-2,1,10,1,-4,1,-7,1,12,1,35,1,9,1,11,1,2,1,10,1
638,-10,1,-13,1,-3,1,11,1,-4,1,-8,1,12,1,33,1,6,1,9,1,1,1,9,1
639,-11,1,-13,1,-2,1,12,1,-5,1,-8,1,13,1,32,1,5,1,8,1,0,1,8,1
640,-12,1,-14,1,-2,1,13,1,-5,1,-8,1,13,1,32,1,4,1,6,1,-1,1,6,1
641,-13,1,-14,1,-1,1,13,1,-6,1,-8,1,12,1,30,1,3,1,6,1,-3,1,5,1
642,-14,1,-15,1,-1,1,14,1,-7,1,-8,1,12,1,28,1,2,1,5,1,-4,1,5,1
643,-15,1,-15,1,0,1,15,1,-8,1,-8,1,13,1,26,1,1,1,4,1,-6,1,4,1
644,-16,1,-16,1,0,1,16,1,-8,1,-8,1,13,1,25,1,0,1,2,1,-7,1,4,1
645,-16,1,-15,1,1,1,15,1,-9,1,-7,1,12,1,24,1,0,1,2,1,-6,1,3,1
646,-17,1,-16,1,1,1,16,1,-9,1,-8,1,13,1,24,1,-1,1,1,1,-6,1,3,1
647,-19,1,-17,1,2,1,18,1,-11,1,-8,1,13,1,23,1,-2,1,1,1,-7,1,3,1
648,-18,1,-17,1,1,1,17,1,-10,1,-8,1,13,1,22,1,-3,1,0,1,-7,1,2,1
649,-18,1,-18,1,0,1,18,1,-9,1,-9,1,12,1,21,1,-3,1,-1,1,-7,1,1,1
650,-18,1,-18,1,0,1,18,1,-9,1,-9,1,12,1,21,1,-4,1,-1,1,-7,1,0,1
651,-18,1,-19,1,-1,1,18,1,-9,1,-10,1,12,1,21,1,-4,1,-1,1,-7,1,0,1
652,-18,1,-19,1,-1,1,18,1,-9,1,-10,1,12,1,21,1,-5,1,-1,1,-8,1,0,1
653,-18,1,-20,1,-2,1,19,1,-8,1,-11,1,12,1,19,1,-5,1,-2,1,-8,1,0,1
654,-19,1,-21,1,-2,1,20,1,-9,1,-12,1,12,1,18,1,-5,1,-2,1,-8,1,0,1
655,-18,1,-22,1,-4,1,20,1,-7,1,-13,1,13,1,18,1,-5,1,-1,1,-8,1,0,1
656,-18,1,-23,1,-5,1,20,1,-7,1,-14,1,14,1,18,1,-5,1,-1,1,-9,1,0,1
657,-19,1,-23,1,-4,1,21,1,-8,1,-14,1,14,1,18,1,-6,1,-1,1,-8,1,-1,1
658,-18,1,-23,1,-5,1,20,1,-7,1,-14,1,13,1,18,1,-6,1,-1,1,-8,1,-1,1
659,-18,1,-24,1,-6,1,21,1,-6,1,-15,1,12,1,19,1,-6,1,-1,1,-8,1,-1,1
660,-18,1,-24,1,-6,1,21,1,-6,1,-15,1,12,1,20,1,-6,1,-1,1,-8,1,-1,1
661,-18,1,-24,1,-6,1,21,1,-6,1,-15,1,13,1,20,1,-6,1,-1,1,-8,1,-1,1
662,-18,1,-24,1,-6,1,21,1,-6,1,-15,1,13,1,20,1,-6,1,-1,1,-8,1,-2,1
663,-18,1,-24,1,-6,1,21,1,-6,1,-15,1,13,1,20,1,-5,1,-1,1,-8,1,-2,1
664,-19,1,-24,1,-5,1,21,1,-7,1,-15,1,13,1,21,1,-4,1,-1,1,-9,1,-2,1
665,-18,1,-24,1,-6,1,21,1,-6,1,-15,1,14,1,21,1,-4,1,-1,1,-8,1,-2,1
666,-18,1,-25,1,-7,1,21,1,-6,1,-16,1,15,1,21,1,-5,1,-1,1,-8,1,-2,1
667,-18,1,-25,1,-7,1,21,1,-6,1,-16,1,15,1,22,1,-6,1,-2,1,-8,1,-2,1
668,-17,1,-25,1,-8,1,21,1,-5,1,-17,1,14,1,22,1,-6,1,-1,1,-7,1,-2,1
669,-17,1,-25,1,-8,1,21,1,-5,1,-17,1,13,1,22,1,-5,1,-1,1,-7,1,-2,1
670,-17,1,-23,1,-6,1,20,1,-6,1,-15,1,13,1,21,1,-5,1,0,1,-9,1,-3,1
671,-17,1,-23,1,-6,1,20,1,-6,1,-15,1,13,1,21,1,-5,1,-1,1,-9,1,-3,1
672,-17,1,-23,1,-6,1,20,1,-6,1,-15,1,14,1,20,1,-5,1,-1,1,-10,1,-2,1
673,-18,1,-23,1,-5,1,20,1,-7,1,-14,1,13,1,20,1,-5,1,-1,1,-10,1,-2,1
674,-18,1,-24,1,-6,1,21,1,-6,1,-15,1,13,1,20,1,-5,1,-1,1,-9,1,-3,1
675,-18,1,-25,1,-7,1,21,1,-6,1,-16,1,13,1,20,1,-6,1,0,1,-8,1,-3,1
676,-18,1,-24,1,-6,1,21,1,-6,1,-15,1,14,1,20,1,-6,1,-1,1,-8,1,-4,1
677,-19,1,-25,1,-6,1,22,1,-7,1,-16,1,14,1,21,1,-7,1,-1,1,-7,1,-5,1
678,-19,1,-25,1,-6,1,22,1,-7,1,-16,1,14,1,21,1,-6,1,-1,1,-7,1,-4,1
679,-17,1,-26,1,-9,1,21,1,-4,1,-18,1,15,1,22,1,-6,1,-1,1,-7,1,-4,1
680,-17,1,-26,1,-9,1,21,1,-4,1,-18,1,14,1,21,1,-5,1,-2,1,-7,1,-3,1
681,-16,1,-25,1,-9,1,20,1,-4,1,-17,1,14,1,21,1,-4,1,-3,1,-7,1,-3,1
682,-16,1,-24,1,-8,1,20,1,-4,1,-16,1,13,1,21,1,-5,1,-2,1,-8,1,-3,1
683,-16,1,-24,1,-8,1,20,1,-4,1,-16,1,14,1,21,1,-6,1,-2,1,-8,1,-3,1
684,-16,1,-24,1,-8,1,20,1,-4,1,-16,1,15,1,21,1,-6,1,-1,1,-9,1,-4,1
685,-16,1,-24,1,-8,1,20,1,-4,1,-16,1,14,1,22,1,-6,1,-1,1,-9,1,-4,1
686,-16,1,-23,1,-7,1,19,1,-5,1,-15,1,14,1,22,1,-5,1,-1,1,-9,1,-4,1
687,-16,1,-23,1,-7,1,19,1,-5,1,-15,1,13,1,22,1,-7,1,-1,1,-9,1,-4,1
688,-16,1,-23,1,-7,1,19,1,-5,1,-15,1,13,1,22,1,-7,1,-1,1,-9,1,-4,1
689,-16,1,-22,1,-6,1,19,1,-5,1,-14,1,14,1,23,1,-7,1,0,1,-9,1,-4,1
690,-16,1,-22,1,-6,1,19,1,-5,1,-14,1,14,1,22,1,-8,1,0,1,-9,1,-4,1
691,-15,1,-22,1,-7,1,18,1,-4,1,-15,1,15,1,22,1,-8,1,-1,1,-9,1,-5,1
692,-14,1,-22,1,-8,1,18,1,-3,1,-15,1,15,1,23,1,-8,1,-1,1,-9,1,-4,1
693,-14,1,-22,1,-8,1,18,1,-3,1,-15,1,15,1,23,1,-7,1,-1,1,-8,1,-4,1
694,-14,1,-22,1,-8,1,18,1,-3,1,-15,1,15,1,23,1,-7,1,-1,1,-8,1,-3,1
695,-13,1,-21,1,-8,1,17,1,-3,1,-15,1,15,1,23,1,-7,1,-1,1,-8,1,-3,1
696,-13,1,-20,1,-7,1,16,1,-3,1,-14,1,15,1,23,1,-7,1,-1,1,-8,1,-3,1
697,-13,1,-20,1,-7,1,16,1,-3,1,-14,1,15,1,23,1,-6,1,0,1,-7,1,-3,1
698,-14,1,-21,1,-7,1,17,1,-4,1,-14,1,15,1,23,1,-7,1,1,1,-6,1,-2,1
699,-15,1,-21,1,-6,1,18,1,-5,1,-14,1,15,1,23,1,-7,1,1,1,-5,1,-1,1
700,-15,1,-22,1,-7,1,18,1,-4,1,-15,1,15,1,22,1,-7,1,0,1,-6,1,-1,1
701,-14,1,-23,1,-9,1,18,1,-3,1,-16,1,15,1,22,1,-7,1,0,1,-7,1,-1,1
702,-14,1,-22,1,-8,1,18,1,-3,1,-15,1,14,1,22,1,-6,1,1,1,-8,1,0,1
703,-13,1,-23,1,-10,1,18,1,-2,1,-17,1,14,1,23,1,-6,1,1,1,-8,1,-1,1
704,-13,1,-23,1,-10,1,18,1,-2,1,-17,1,13,1,23,1,-7,1,0,1,-8,1,-1,1
705,-13,1,-23,1,-10,1,18,1,-2,1,-17,1,13,1,23,1,-6,1,-1,1,-8,1,-2,1
706,-14,1,-22,1,-8,1,18,1,-3,1,-15,1,13,1,22,1,-5,1,-2,1,-8,1,-2,1
707,-15,1,-22,1,-7,1,18,1,-4,1,-15,1,14,1,22,1,-5,1,-2,1,-8,1,-2,1
708,-15,1,-22,1,-7,1,18,1,-4,1,-15,1,13,1,22,1,-6,1,-3,1,-8,1,-3,1
709,-16,1,-21,1,-5,1,18,1,-6,1,-13,1,13,1,21,1,-6,1,-2,1,-8,1,-4,1
710,-15,1,-21,1,-6,1,18,1,-5,1,-14,1,13,1,21,1,-7,1,-2,1,-9,1,-4,1
711,-15,1,-21,1,-6,1,18,1,-5,1,-14,1,13,1,20,1,-8,1,-4,1,-9,1,-4,1
712,-14,1,-20,1,-6,1,17,1,-4,1,-13,1,13,1,20,1,-8,1,-4,1,-9,1,-4,1
713,-14,1,-20,1,-6,1,17,1,-4,1,-13,1,14,1,21,1,-7,1,-4,1,-9,1,-4,1
714,-14,1,-21,1,-7,1,17,1,-4,1,-14,1,14,1,21,1,-8,1,-5,1,-9,1,-6,1
715,-14,1,-21,1,-7,1,17,1,-4,1,-14,1,14,1,21,1,-7,1,-5,1,-9,1,-6,1
716,-15,1,-21,1,-6,1,18,1,-5,1,-14,1,15,1,22,1,-7,1,-5,1,-9,1,-6,1
717,-16,1,-21,1,-5,1,18,1,-6,1,-13,1,14,1,22,1,-7,1,-6,1,-10,1,-6,1
718,-16,1,-21,1,-5,1,18,1,-6,1,-13,1,14,1,21,1,-7,1,-6,1,-11,1,-6,1
719,-16,1,-21,1,-5,1,18,1,-6,1,-13,1,13,1,20,1,-8,1,-6,1,-10,1,-6,1
720,-17,1,-22,1,-5,1,19,1,-6,1,-14,1,14,1,20,1,-8,1,-6,1,-10,1,-7,1
721,-16,1,-22,1,-6,1,19,1,-5,1,-14,1,14,1,20,1,-7,1,-6,1,-10,1,-6,1
722,-15,1,-21,1,-6,1,18,1,-5,1,-14,1,16,1,21,1,-6,1,-6,1,-9,1,-6,1
723,-15,1,-21,1,-6,1,18,1,-5,1,-14,1,16,1,22,1,-6,1,-6,1,-10,1,-6,1
724,-15,1,-22,1,-7,1,18,1,-4,1,-15,1,15,1,22,1,-5,1,-6,1,-10,1,-7,1
725,-15,1,-22,1,-7,1,18,1,-4,1,-15,1,15,1,22,1,-6,1,-5,1,-10,1,-7,1
726,-15,1,-23,1,-8,1,19,1,-4,1,-16,1,15,1,21,1,-6,1,-6,1,-10,1,-8,1
727,-16,1,-23,1,-7,1,19,1,-5,1,-15,1,15,1,21,1,-6,1,-7,1,-10,1,-8,1
728,-16,1,-23,1,-7,1,19,1,-5,1,-15,1,15,1,20,1,-6,1,-6,1,-10,1,-8,1
729,-16,1,-23,1,-7,1,19,1,-5,1,-15,1,15,1,19,1,-6,1,-6,1,-10,1,-8,1
730,-16,1,-22,1,-6,1,19,1,-5,1,-14,1,15,1,17,1,-7,1,-6,1,-11,1,-8,1
731,-16,1,-22,1,-6,1,19,1,-5,1,-14,1,14,1,17,1,-7,1,-5,1,-11,1,-8,1
732,-17,1,-21,1,-4,1,19,1,-7,1,-13,1,15,1,17,1,-8,1,-5,1,-11,1,-8,1
733,-17,1,-22,1,-5,1,19,1,-6,1,-14,1,15,1,18,1,-8,1,-6,1,-12,1,-7,1
734,-18,1,-23,1,-5,1,20,1,-7,1,-14,1,16,1,19,1,-7,1,-6,1,-13,1,-7,1
735,-17,1,-24,1,-7,1,20,1,-5,1,-16,1,16,1,19,1,-7,1,-6,1,-13,1,-7,1
736,-17,1,-23,1,-6,1,20,1,-6,1,-15,1,15,1,18,1,-8,1,-5,1,-12,1,-8,1
737,-17,1,-23,1,-6,1,20,1,-6,1,-15,1,15,1,18,1,-8,1,-5,1,-12,1,-8,1
738,-17,1,-24,1,-7,1,20,1,-5,1,-16,1,16,1,17,1,-7,1,-4,1,-11,1,-8,1
739,-17,1,-23,1,-6,1,20,1,-6,1,-15,1,17,1,15,1,-8,1,-5,1,-11,1,-7,1
740,-17,1,-23,1,-6,1,20,1,-6,1,-15,1,17,1,15,1,-8,1,-5,1,-11,1,-8,1
741,-17,1,-24,1,-7,1,20,1,-5,1,-16,1,17,1,15,1,-9,1,-4,1,-11,1,-8,1
742,-17,1,-23,1,-6,1,20,1,-6,1,-15,1,17,1,15,1,-8,1,-3,1,-11,1,-8,1
743,-17,1,-23,1,-6,1,20,1,-6,1,-15,1,16,1,14,1,-8,1,-3,1,-11,1,-9,1
744,-17,1,-23,1,-6,1,20,1,-6,1,-15,1,15,1,14,1,-8,1,-4,1,-12,1,-9,1
745,-18,1,-24,1,-6,1,21,1,-6,1,-15,1,15,1,13,1,-8,1,-4,1,-12,1,-9,1
746,-18,1,-24,1,-6,1,21,1,-6,1,-15,1,16,1,12,1,-8,1,-4,1,-12,1,-10,1
747,-19,1,-24,1,-5,1,21,1,-7,1,-15,1,17,1,12,1,-7,1,-4,1,-12,1,-10,1
748,-19,1,-24,1,-5,1,21,1,-7,1,-15,1,17,1,11,1,-7,1,-4,1,-12,1,-10,1
749,-19,1,-24,1,-5,1,21,1,-7,1,-15,1,17,1,11,1,-7,1,-3,1,-12,1,-11,1
750,-19,1,-24,1,-5,1,21,1,-7,1,-15,1,17,1,10,1,-7,1,-3,1,-12,1,-10,1
751,-19,1,-24,1,-5,1,21,1,-7,1,-15,1,17,1,11,1,-7,1,-2,1,-12,1,-10,1
752,-20,1,-24,1,-4,1,22,1,-8,1,-14,1,17,1,11,1,-8,1,-1,1,-12,1,-10,1
753,-20,1,-25,1,-5,1,22,1,-8,1,-15,1,16,1,12,1,-8,1,-1,1,-12,1,-10,1
754,-19,1,-25,1,-6,1,22,1,-7,1,-16,1,16,1,12,1,-8,1,-1,1,-13,1,-11,1
755,-18,1,-25,1,-7,1,21,1,-6,1,-16,1,17,1,11,1,-7,1,-1,1,-12,1,-10,1
756,-18,1,-25,1,-7,1,21,1,-6,1,-16,1,16,1,11,1,-7,1,-2,1,-12,1,-10,1
757,-19,1,-27,1,-8,1,23,1,-6,1,-18,1,16,1,11,1,-7,1,-3,1,-12,1,-10,1
758,-20,1,-27,1,-7,1,23,1,-7,1,-17,1,17,1,11,1,-7,1,-3,1,-11,1,-10,1
759,-20,1,-27,1,-7,1,23,1,-7,1,-17,1,17,1,11,1,-6,1,-3,1,-11,1,-10,1
760,-20,1,-27,1,-7,1,23,1,-7,1,-17,1,17,1,10,1,-6,1,-4,1,-11,1,-11,1
761,-19,1,-28,1,-9,1,23,1,-5,1,-19,1,18,1,10,1,-7,1,-4,1,-11,1,-11,1
762,-19,1,-28,1,-9,1,23,1,-5,1,-19,1,19,1,10,1,-7,1,-4,1,-11,1,-12,1
763,-19,1,-28,1,-9,1,23,1,-5,1,-19,1,18,1,10,1,-8,1,-4,1,-11,1,-12,1
764,-19,1,-29,1,-10,1,24,1,-5,1,-20,1,18,1,9,1,-9,1,-4,1,-11,1,-13,1
765,-19,1,-29,1,-10,1,24,1,-5,1,-20,1,18,1,9,1,-9,1,-3,1,-11,1,-12,1
766,-19,1,-27,1,-8,1,23,1,-6,1,-18,1,18,1,9,1,-9,1,-3,1,-10,1,-12,1
767,-19,1,-27,1,-8,1,23,1,-6,1,-18,1,17,1,9,1,-9,1,-3,1,-10,1,-12,1
768,-19,1,-26,1,-7,1,22,1,-6,1,-17,1,17,1,8,1,-8,1,-4,1,-11,1,-12,1
769,-19,1,-26,1,-7,1,22,1,-6,1,-17,1,18,1,6,1,-8,1,-4,1,-11,1,-12,1
770,-19,1,-25,1,-6,1,22,1,-7,1,-16,1,17,1,5,1,-9,1,-3,1,-11,1,-13,1
771,-18,1,-25,1,-7,1,21,1,-6,1,-16,1,17,1,5,1,-9,1,-3,1,-12,1,-13,1
772,-18,1,-24,1,-6,1,21,1,-6,1,-15,1,17,1,4,1,-9,1,-3,1,-12,1,-13,1
773,-20,1,-23,1,-3,1,21,1,-9,1,-13,1,18,1,3,1,-9,1,-3,1,-12,1,-13,1
774,-20,1,-21,1,-1,1,20,1,-10,1,-11,1,18,1,2,1,-9,1,-3,1,-12,1,-13,1
775,-19,1,-20,1,-1,1,19,1,-9,1,-11,1,19,1,1,1,-9,1,-4,1,-12,1,-14,1
776,-20,1,-19,1,1,1,19,1,-11,1,-9,1,19,1,0,1,-10,1,-4,1,-12,1,-14,1
777,-20,1,-18,1,2,1,19,1,-11,1,-8,1,19,1,0,1,-9,1,-3,1,-13,1,-14,1
778,-19,1,-16,1,3,1,17,1,-11,1,-7,1,18,1,0,1,-8,1,-3,1,-12,1,-13,1
779,-18,1,-15,1,3,1,16,1,-11,1,-6,1,18,1,1,1,-8,1,-3,1,-12,1,-13,1
780,-18,1,-14,1,4,1,16,1,-11,1,-5,1,19,1,1,1,-7,1,-2,1,-12,1,-13,1
781,-18,1,-12,1,6,1,15,1,-12,1,-3,1,19,1,1,1,-6,1,-3,1,-11,1,-12,1
782,-17,1,-12,1,5,1,14,1,-11,1,-4,1,19,1,1,1,-6,1,-2,1,-10,1,-12,1
783,-18,1,-12,1,6,1,15,1,-12,1,-3,1,20,1,1,1,-6,1,-2,1,-10,1,-12,1
784,-18,1,-12,1,6,1,15,1,-12,1,-3,1,21,1,2,1,-4,1,-1,1,-9,1,-12,1
785,-17,1,-12,1,5,1,14,1,-11,1,-4,1,23,1,3,1,-2,1,0,1,-9,1,-11,1
786,-17,1,-12,1,5,1,14,1,-11,1,-4,1,23,1,5,1,-1,1,1,1,-8,1,-11,1
787,-17,1,-12,1,5,1,14,1,-11,1,-4,1,23,1,5,1,0,1,1,1,-8,1,-10,1
788,-16,1,-11,1,5,1,13,1,-11,1,-3,1,23,1,6,1,1,1,1,1,-8,1,-9,1
789,-15,1,-9,1,6,1,12,1,-11,1,-2,1,24,1,8,1,2,1,1,1,-7,1,-9,1
790,-15,1,-9,1,6,1,12,1,-11,1,-2,1,24,1,9,1,2,1,1,1,-7,1,-9,1
791,-14,1,-9,1,5,1,11,1,-10,1,-2,1,24,1,9,1,3,1,1,1,-7,1,-10,1
792,-13,1,-9,1,4,1,11,1,-9,1,-3,1,25,1,10,1,3,1,1,1,-7,1,-10,1
793,-13,1,-9,1,4,1,11,1,-9,1,-3,1,26,1,11,1,4,1,1,1,-8,1,-9,1
794,-13,1,-9,1,4,1,11,1,-9,1,-3,1,26,1,11,1,4,1,1,1,-7,1,-9,1
795,-11,1,-8,1,3,1,9,1,-7,1,-3,1,27,1,13,1,4,1,1,1,-6,1,-8,1
796,-11,1,-7,1,4,1,9,1,-8,1,-2,1,27,1,13,1,5,1,2,1,-6,1,-7,1
797,-11,1,-7,1,4,1,9,1,-8,1,-2,1,26,1,13,1,6,1,2,1,-5,1,-6,1
798,-10,1,-7,1,3,1,8,1,-7,1,-2,1,25,1,13,1,6,1,3,1,-5,1,-6,1
799,-9,1,-6,1,3,1,7,1,-6,1,-2,1,25,1,13,1,7,1,4,1,-3,1,-6,1
800,-7,1,-4,1,3,1,5,1,-5,1,-1,1,24,1,14,1,8,1,4,1,-2,1,-6,1
801,-6,1,-4,1,2,1,5,1,-4,1,-1,1,23,1,14,1,8,1,5,1,0,1,-6,1
802,-5,1,-4,1,1,1,4,1,-3,1,-2,1,22,1,14,1,8,1,4,1,0,1,-6,1
803,-5,1,-4,1,1,1,4,1,-3,1,-2,1,21,1,13,1,8,1,4,1,1,1,-5,1
804,-6,1,-3,1,3,1,4,1,-5,1,0,1,19,1,13,1,8,1,3,1,1,1,-6,1
805,-6,1,-4,1,2,1,5,1,-4,1,-1,1,17,1,12,1,8,1,3,1,0,1,-6,1
806,-6,1,-5,1,1,1,5,1,-4,1,-2,1,16,1,12,1,8,1,3,1,0,1,-6,1
807,-7,1,-6,1,1,1,6,1,-4,1,-3,1,16,1,11,1,8,1,2,1,-2,1,-7,1
808,-7,1,-7,1,0,1,7,1,-4,1,-4,1,16,1,10,1,6,1,2,1,-3,1,-7,1
809,-7,1,-9,1,-2,1,8,1,-3,1,-6,1,16,1,9,1,5,1,1,1,-4,1,-8,1
810,-8,1,-11,1,-3,1,9,1,-3,1,-7,1,16,1,7,1,4,1,-1,1,-6,1,-9,1
811,-8,1,-13,1,-5,1,10,1,-2,1,-9,1,16,1,5,1,3,1,-2,1,-7,1,-10,1
812,-7,1,-13,1,-6,1,10,1,-1,1,-10,1,16,1,4,1,2,1,-3,1,-7,1,-10,1
813,-7,1,-14,1,-7,1,10,1,0,1,-11,1,15,1,3,1,2,1,-4,1,-8,1,-11,1
814,-8,1,-15,1,-7,1,11,1,-1,1,-11,1,15,1,1,1,1,1,-4,1,-8,1,-12,1
815,-9,1,-16,1,-7,1,12,1,-1,1,-12,1,15,1,0,1,0,1,-5,1,-9,1,-12,1
816,-11,1,-17,1,-6,1,14,1,-3,1,-12,1,15,1,-2,1,-2,1,-5,1,-9,1,-12,1
817,-12,1,-18,1,-6,1,15,1,-3,1,-12,1,15,1,-3,1,-3,1,-6,1,-10,1,-13,1
818,-12,1,-18,1,-6,1,15,1,-3,1,-12,1,14,1,-5,1,-5,1,-7,1,-11,1,-14,1
819,-13,1,-18,1,-5,1,15,1,-4,1,-12,1,14,1,-7,1,-6,1,-9,1,-12,1,-15,1
820,-14,1,-19,1,-5,1,16,1,-5,1,-12,1,14,1,-7,1,-7,1,-9,1,-13,1,-16,1
821,-15,1,-19,1,-4,1,17,1,-6,1,-12,1,14,1,-7,1,-8,1,-10,1,-13,1,-17,1
822,-16,1,-19,1,-3,1,17,1,-7,1,-11,1,14,1,-8,1,-8,1,-9,1,-14,1,-17,1
823,-18,1,-20,1,-2,1,19,1,-8,1,-11,1,15,1,-9,1,-9,1,-10,1,-14,1,-17,1
824,-19,1,-21,1,-2,1,20,1,-9,1,-12,1,14,1,-10,1,-10,1,-11,1,-15,1,-18,1
825,-21,1,-22,1,-1,1,21,1,-10,1,-12,1,14,1,-10,1,-11,1,-12,1,-14,1,-18,1
826,-22,1,-24,1,-2,1,23,1,-10,1,-13,1,14,1,-11,1,-11,1,-12,1,-14,1,-18,1
827,-23,1,-24,1,-1,1,23,1,-11,1,-13,1,13,1,-12,1,-12,1,-13,1,-15,1,-18,1
828,-23,1,-25,1,-2,1,24,1,-11,1,-14,1,13,1,-12,1,-12,1,-11,1,-14,1,-18,1
829,-24,1,-26,1,-2,1,25,1,-11,1,-14,1,14,1,-12,1,-12,1,-10,1,-13,1,-18,1
830,-24,1,-27,1,-3,1,25,1,-11,1,-15,1,14,1,-12,1,-13,1,-10,1,-14,1,-18,1
831,-24,1,-28,1,-4,1,26,1,-10,1,-16,1,14,1,-13,1,-14,1,-10,1,-15,1,-19,1
832,-24,1,-29,1,-5,1,26,1,-10,1,-17,1,15,1,-14,1,-14,1,-10,1,-15,1,-19,1
833,-25,1,-29,1,-4,1,27,1,-11,1,-17,1,15,1,-15,1,-14,1,-10,1,-16,1,-19,1
834,-25,1,-28,1,-3,1,26,1,-11,1,-16,1,15,1,-16,1,-14,1,-11,1,-17,1,-20,1
835,-25,1,-27,1,-2,1,26,1,-12,1,-15,1,15,1,-16,1,-13,1,-10,1,-17,1,-20,1
836,-25,1,-26,1,-1,1,25,1,-12,1,-14,1,14,1,-16,1,-12,1,-11,1,-17,1,-20,1
837,-26,1,-26,1,0,1,26,1,-13,1,-13,1,15,1,-15,1,-12,1,-11,1,-18,1,-20,1
838,-26,1,-26,1,0,1,26,1,-13,1,-13,1,14,1,-15,1,-14,1,-11,1,-17,1,-19,1
839,-26,1,-26,1,0,1,26,1,-13,1,-13,1,14,1,-16,1,-14,1,-10,1,-17,1,-19,1
840,-26,1,-26,1,0,1,26,1,-13,1,-13,1,14,1,-17,1,-14,1,-10,1,-17,1,-19,1
841,-25,1,-27,1,-2,1,26,1,-12,1,-15,1,14,1,-17,1,-15,1,-9,1,-16,1,-18,1
842,-25,1,-27,1,-2,1,26,1,-12,1,-15,1,14,1,-17,1,-15,1,-8,1,-16,1,-18,1
843,-26,1,-26,1,0,1,26,1,-13,1,-13,1,14,1,-16,1,-14,1,-7,1,-15,1,-18,1
844,-26,1,-26,1,0,1,26,1,-13,1,-13,1,14,1,-16,1,-14,1,-6,1,-15,1,-17,1
845,-25,1,-27,1,-2,1,26,1,-12,1,-15,1,14,1,-17,1,-14,1,-6,1,-14,1,-17,1
846,-26,1,-27,1,-1,1,26,1,-13,1,-14,1,15,1,-17,1,-14,1,-4,1,-14,1,-17,1
847,-27,1,-28,1,-1,1,27,1,-13,1,-15,1,16,1,-17,1,-13,1,-3,1,-14,1,-17,1
848,-27,1,-27,1,0,1,27,1,-14,1,-14,1,16,1,-17,1,-11,1,-2,1,-13,1,-16,1
849,-27,1,-25,1,2,1,26,1,-15,1,-12,1,17,1,-16,1,-10,1,0,1,-12,1,-15,1
850,-27,1,-23,1,4,1,25,1,-16,1,-10,1,17,1,-14,1,-8,1,2,1,-10,1,-14,1
851,-26,1,-19,1,7,1,22,1,-17,1,-6,1,18,1,-10,1,-3,1,6,1,-8,1,-11,1
852,-25,1,-15,1,10,1,20,1,-18,1,-3,1,20,1,-3,1,4,1,12,1,-4,1,-8,1
853,-24,1,-12,1,12,1,18,1,-18,1,0,1,21,1,2,1,11,1,18,1,-1,1,-7,1
854,-21,1,-8,1,13,1,14,1,-17,1,2,1,22,1,9,1,17,1,24,1,2,1,-5,1
855,-17,1,-8,1,9,1,12,1,-13,1,0,1,23,1,18,1,26,1,32,1,6,1,-2,1
856,-12,1,-6,1,6,1,9,1,-9,1,0,1,23,1,30,1,37,1,43,1,13,1,2,1
857,-2,1,-4,1,-2,1,3,1,0,1,-3,1,21,1,47,1,52,1,57,1,22,1,7,1
858,11,1,2,1,-9,1,-6,1,10,1,-3,1,20,1,67,1,72,1,77,1,36,1,16,1
859,27,1,10,1,-17,1,-18,1,22,1,-3,1,18,1,89,1,94,1,101,1,53,1,28,1
860,44,1,19,1,-25,1,-31,1,35,1,-3,1,15,1,106,1,115,1,123,1,71,1,42,1
861,58,1,26,1,-32,1,-42,1,45,1,-3,1,11,1,113,1,130,1,142,1,87,1,55,1
862,72,1,32,1,-40,1,-52,1,56,1,-4,1,7,1,115,1,142,1,159,1,102,1,67,1
863,84,1,37,1,-47,1,-60,1,66,1,-5,1,4,1,118,1,155,1,174,1,115,1,77,1
864,95,1,42,1,-53,1,-68,1,74,1,-5,1,1,1,115,1,165,1,188,1,127,1,87,1
865,105,1,43,1,-62,1,-74,1,84,1,-9,1,-2,1,106,1,169,1,195,1,135,1,93,1
866,113,1,36,1,-77,1,-74,1,95,1,-20,1,-4,1,91,1,165,1,193,1,136,1,92,1
867,116,1,20,1,-96,1,-68,1,106,1,-38,1,-6,1,71,1,151,1,180,1,125,1,80,1
868,116,1,0,1,-116,1,-58,1,116,1,-58,1,-5,1,48,1,130,1,157,1,106,1,64,1
869,108,1,-18,1,-126,1,-45,1,117,1,-72,1,-4,1,14,1,101,1,127,1,82,1,46,1
870,91,1,-34,1,-125,1,-28,1,108,1,-79,1,-4,1,-27,1,60,1,86,1,52,1,24,1
871,69,1,-53,1,-122,1,-8,1,95,1,-87,1,-3,1,-70,1,14,1,38,1,15,1,-3,1
872,38,1,-69,1,-107,1,15,1,72,1,-88,1,-1,1,-114,1,-33,1,-10,1,-20,1,-30,1
873,3,1,-81,1,-84,1,39,1,43,1,-82,1,0,1,-159,1,-80,1,-56,1,-53,1,-52,1
874,-32,1,-86,1,-54,1,59,1,11,1,-70,1,1,1,-199,1,-121,1,-95,1,-79,1,-68,1
875,-62,1,-87,1,-25,1,74,1,-19,1,-56,1,0,1,-231,1,-152,1,-122,1,-95,1,-77,1
876,-83,1,-83,1,0,1,83,1,-42,1,-42,1,-1,1,-251,1,-170,1,-136,1,-102,1,-81,1
877,-97,1,-77,1,20,1,87,1,-59,1,-29,1,-5,1,-264,1,-178,1,-143,1,-103,1,-80,1
878,-104,1,-73,1,31,1,88,1,-68,1,-21,1,-9,1,-270,1,-182,1,-144,1,-100,1,-77,1
879,-106,1,-73,1,33,1,89,1,-70,1,-20,1,-13,1,-268,1,-181,1,-142,1,-97,1,-76,1
880,-104,1,-73,1,31,1,88,1,-68,1,-21,1,-17,1,-259,1,-179,1,-140,1,-95,1,-75,1
881,-102,1,-72,1,30,1,87,1,-66,1,-21,1,-20,1,-245,1,-172,1,-134,1,-92,1,-73,1
882,-97,1,-71,1,26,1,84,1,-62,1,-23,1,-22,1,-227,1,-163,1,-127,1,-89,1,-71,1
883,-91,1,-69,1,22,1,80,1,-57,1,-24,1,-22,1,-205,1,-150,1,-117,1,-84,1,-68,1
884,-84,1,-62,1,22,1,73,1,-53,1,-20,1,-20,1,-179,1,-132,1,-103,1,-77,1,-62,1
885,-76,1,-55,1,21,1,65,1,-49,1,-17,1,-14,1,-151,1,-112,1,-85,1,-68,1,-56,1
886,-68,1,-48,1,20,1,58,1,-44,1,-14,1,-7,1,-122,1,-91,1,-68,1,-59,1,-50,1
887,-61,1,-42,1,19,1,51,1,-40,1,-12,1,-1,1,-98,1,-72,1,-52,1,-49,1,-43,1
888,-52,1,-37,1,15,1,44,1,-34,1,-11,1,4,1,-77,1,-54,1,-36,1,-39,1,-36,1
889,-44,1,-33,1,11,1,38,1,-28,1,-11,1,6,1,-60,1,-42,1,-24,1,-31,1,-29,1
890,-36,1,-29,1,7,1,32,1,-22,1,-11,1,8,1,-48,1,-32,1,-15,1,-25,1,-25,1
891,-31,1,-26,1,5,1,28,1,-18,1,-11,1,10,1,-39,1,-25,1,-10,1,-21,1,-21,1
892,-27,1,-25,1,2,1,26,1,-15,1,-12,1,11,1,-31,1,-21,1,-5,1,-17,1,-19,1
893,-25,1,-23,1,2,1,24,1,-14,1,-11,1,10,1,-25,1,-17,1,-1,1,-17,1,-17,1
894,-25,1,-23,1,2,1,24,1,-14,1,-11,1,10,1,-20,1,-14,1,2,1,-16,1,-17,1
895,-24,1,-23,1,1,1,23,1,-13,1,-11,1,11,1,-14,1,-10,1,5,1,-15,1,-16,1
896,-24,1,-23,1,1,1,23,1,-13,1,-11,1,13,1,-9,1,-6,1,8,1,-14,1,-16,1
897,-24,1,-23,1,1,1,23,1,-13,1,-11,1,14,1,-4,1,-3,1,11,1,-13,1,-15,1
898,-25,1,-23,1,2,1,24,1,-14,1,-11,1,15,1,-1,1,-1,1,13,1,-12,1,-15,1
899,-24,1,-23,1,1,1,23,1,-13,1,-11,1,16,1,1,1,-1,1,14,1,-12,1,-14,1
900,-24,1,-23,1,1,1,23,1,-13,1,-11,1,16,1,1,1,-1,1,14,1,-12,1,-14,1
901,-23,1,-21,1,2,1,22,1,-13,1,-10,1,17,1,2,1,-1,1,14,1,-11,1,-14,1
902,-22,1,-21,1,1,1,21,1,-12,1,-10,1,17,1,2,1,-1,1,14,1,-11,1,-13,1
903,-22,1,-21,1,1,1,21,1,-12,1,-10,1,16,1,3,1,0,1,15,1,-11,1,-13,1
904,-21,1,-20,1,1,1,20,1,-11,1,-10,1,17,1,5,1,1,1,15,1,-10,1,-12,1
905,-19,1,-19,1,0,1,19,1,-10,1,-10,1,17,1,7,1,2,1,16,1,-9,1,-11,1
906,-19,1,-19,1,0,1,19,1,-10,1,-10,1,17,1,9,1,3,1,16,1,-8,1,-11,1
907,-19,1,-19,1,0,1,19,1,-10,1,-10,1,18,1,9,1,3,1,17,1,-8,1,-11,1
908,-18,1,-19,1,-1,1,18,1,-9,1,-10,1,18,1,9,1,4,1,18,1,-7,1,-11,1
909,-18,1,-20,1,-2,1,19,1,-8,1,-11,1,17,1,10,1,5,1,19,1,-6,1,-11,1
910,-19,1,-19,1,0,1,19,1,-10,1,-10,1,17,1,11,1,6,1,19,1,-6,1,-10,1
911,-18,1,-19,1,-1,1,18,1,-9,1,-10,1,17,1,10,1,7,1,19,1,-5,1,-9,1
912,-17,1,-19,1,-2,1,18,1,-8,1,-11,1,17,1,10,1,8,1,19,1,-5,1,-9,1
913,-17,1,-19,1,-2,1,18,1,-8,1,-11,1,17,1,10,1,9,1,20,1,-4,1,-8,1
914,-16,1,-18,1,-2,1,17,1,-7,1,-10,1,17,1,10,1,9,1,21,1,-4,1,-8,1
915,-15,1,-18,1,-3,1,16,1,-6,1,-11,1,16,1,10,1,10,1,22,1,-3,1,-8,1
916,-15,1,-18,1,-3,1,16,1,-6,1,-11,1,17,1,10,1,11,1,23,1,-2,1,-7,1
917,-15,1,-17,1,-2,1,16,1,-7,1,-10,1,17,1,11,1,12,1,24,1,-2,1,-7,1
918,-15,1,-17,1,-2,1,16,1,-7,1,-10,1,18,1,11,1,12,1,25,1,-1,1,-7,1
919,-14,1,-16,1,-2,1,15,1,-6,1,-9,1,17,1,11,1,13,1,26,1,0,1,-7,1
920,-14,1,-16,1,-2,1,15,1,-6,1,-9,1,17,1,12,1,14,1,27,1,0,1,-7,1
921,-13,1,-16,1,-3,1,14,1,-5,1,-10,1,17,1,12,1,15,1,28,1,0,1,-7,1
922,-12,1,-15,1,-3,1,13,1,-5,1,-9,1,17,1,13,1,15,1,29,1,1,1,-7,1
923,-12,1,-15,1,-3,1,13,1,-5,1,-9,1,17,1,13,1,15,1,30,1,1,1,-7,1
924,-13,1,-15,1,-2,1,14,1,-6,1,-9,1,17,1,14,1,16,1,31,1,1,1,-7,1
925,-11,1,-14,1,-3,1,12,1,-4,1,-9,1,17,1,15,1,17,1,32,1,2,1,-6,1
926,-10,1,-14,1,-4,1,12,1,-3,1,-9,1,16,1,16,1,18,1,34,1,3,1,-5,1
927,-10,1,-13,1,-3,1,11,1,-4,1,-8,1,16,1,16,1,18,1,35,1,4,1,-5,1
928,-8,1,-13,1,-5,1,10,1,-2,1,-9,1,16,1,17,1,19,1,37,1,5,1,-4,1
929,-8,1,-13,1,-5,1,10,1,-2,1,-9,1,15,1,17,1,19,1,38,1,5,1,-3,1
930,-8,1,-13,1,-5,1,10,1,-2,1,-9,1,15,1,18,1,20,1,38,1,6,1,-3,1
931,-8,1,-13,1,-5,1,10,1,-2,1,-9,1,15,1,19,1,21,1,39,1,6,1,-3,1
932,-8,1,-12,1,-4,1,10,1,-2,1,-8,1,16,1,20,1,22,1,40,1,7,1,-2,1
933,-7,1,-12,1,-5,1,9,1,-1,1,-9,1,16,1,21,1,22,1,41,1,7,1,-1,1
934,-7,1,-11,1,-4,1,9,1,-2,1,-8,1,16,1,21,1,23,1,42,1,8,1,-1,1
935,-6,1,-10,1,-4,1,8,1,-1,1,-7,1,16,1,22,1,25,1,44,1,9,1,0,1
936,-5,1,-9,1,-4,1,7,1,-1,1,-7,1,15,1,23,1,26,1,46,1,11,1,0,1
937,-3,1,-8,1,-5,1,5,1,1,1,-7,1,15,1,23,1,27,1,47,1,11,1,0,1
938,-2,1,-7,1,-5,1,4,1,1,1,-6,1,16,1,24,1,28,1,49,1,13,1,1,1
939,0,1,-7,1,-7,1,3,1,3,1,-7,1,16,1,26,1,29,1,50,1,13,1,2,1
940,0,1,-6,1,-6,1,3,1,3,1,-6,1,16,1,27,1,29,1,51,1,13,1,3,1
941,1,1,-6,1,-7,1,2,1,4,1,-6,1,16,1,28,1,29,1,51,1,13,1,3,1
942,3,1,-5,1,-8,1,1,1,5,1,-6,1,15,1,30,1,31,1,52,1,14,1,4,1
943,3,1,-5,1,-8,1,1,1,5,1,-6,1,15,1,31,1,32,1,53,1,14,1,5,1
944,4,1,-4,1,-8,1,0,1,6,1,-6,1,15,1,32,1,32,1,54,1,15,1,6,1
945,6,1,-3,1,-9,1,-1,1,7,1,-6,1,15,1,33,1,33,1,56,1,16,1,6,1
946,6,1,-2,1,-8,1,-2,1,7,1,-5,1,15,1,34,1,35,1,57,1,17,1,7,1
947,6,1,-2,1,-8,1,-2,1,7,1,-5,1,15,1,34,1,36,1,58,1,18,1,7,1
948,6,1,-1,1,-7,1,-2,1,6,1,-4,1,15,1,35,1,37,1,59,1,19,1,9,1
949,8,1,0,1,-8,1,-4,1,8,1,-4,1,14,1,35,1,38,1,59,1,20,1,9,1
950,9,1,0,1,-9,1,-4,1,9,1,-4,1,13,1,37,1,40,1,60,1,20,1,10,1
951,10,1,1,1,-9,1,-5,1,10,1,-4,1,12,1,38,1,42,1,61,1,22,1,12,1
952,12,1,3,1,-9,1,-7,1,11,1,-3,1,11,1,40,1,44,1,63,1,23,1,13,1
953,14,1,5,1,-9,1,-9,1,12,1,-2,1,10,1,41,1,44,1,64,1,24,1,15,1
954,14,1,6,1,-8,1,-10,1,11,1,-1,1,10,1,41,1,45,1,65,1,25,1,15,1
955,15,1,7,1,-8,1,-11,1,12,1,0,1,9,1,42,1,46,1,66,1,27,1,17,1
956,16,1,8,1,-8,1,-12,1,12,1,0,1,9,1,45,1,47,1,68,1,29,1,18,1
957,17,1,9,1,-8,1,-13,1,13,1,1,1,9,1,48,1,49,1,69,1,30,1,20,1
958,18,1,9,1,-9,1,-13,1,14,1,0,1,9,1,49,1,51,1,71,1,31,1,21,1
959,20,1,10,1,-10,1,-15,1,15,1,0,1,8,1,51,1,53,1,72,1,33,1,22,1
960,22,1,11,1,-11,1,-16,1,17,1,0,1,7,1,52,1,55,1,74,1,34,1,23,1
961,24,1,12,1,-12,1,-18,1,18,1,0,1,6,1,53,1,56,1,75,1,35,1,24,1
962,27,1,14,1,-13,1,-20,1,20,1,1,1,5,1,55,1,58,1,78,1,37,1,25,1
963,29,1,14,1,-15,1,-21,1,22,1,0,1,3,1,56,1,60,1,79,1,39,1,27,1
964,32,1,16,1,-16,1,-24,1,24,1,0,1,2,1,57,1,61,1,81,1,41,1,29,1
965,34,1,17,1,-17,1,-25,1,26,1,0,1,2,1,58,1,62,1,83,1,44,1,30,1
966,35,1,18,1,-17,1,-26,1,26,1,1,1,1,1,61,1,64,1,85,1,46,1,32,1
967,36,1,19,1,-17,1,-27,1,27,1,1,1,1,1,62,1,65,1,87,1,48,1,34,1
968,38,1,21,1,-17,1,-29,1,28,1,2,1,1,1,64,1,67,1,89,1,49,1,35,1
969,39,1,23,1,-16,1,-31,1,28,1,4,1,0,1,65,1,68,1,90,1,50,1,36,1
970,40,1,24,1,-16,1,-32,1,28,1,4,1,0,1,66,1,70,1,91,1,51,1,37,1
971,41,1,25,1,-16,1,-33,1,29,1,5,1,0,1,67,1,71,1,91,1,52,1,38,1
972,43,1,26,1,-17,1,-34,1,30,1,5,1,-1,1,68,1,72,1,91,1,54,1,39,1
973,44,1,27,1,-17,1,-35,1,31,1,5,1,-1,1,69,1,73,1,92,1,55,1,40,1
974,45,1,27,1,-18,1,-36,1,32,1,5,1,-2,1,70,1,73,1,93,1,56,1,41,1
975,46,1,27,1,-19,1,-36,1,33,1,4,1,-2,1,72,1,74,1,95,1,57,1,42,1
976,48,1,29,1,-19,1,-38,1,34,1,5,1,-2,1,72,1,75,1,97,1,58,1,43,1
977,48,1,30,1,-18,1,-39,1,33,1,6,1,-3,1,72,1,75,1,99,1,59,1,44,1
978,50,1,31,1,-19,1,-40,1,35,1,6,1,-4,1,72,1,74,1,99,1,59,1,44,1
979,50,1,32,1,-18,1,-41,1,34,1,7,1,-4,1,72,1,75,1,100,1,60,1,45,1
980,50,1,32,1,-18,1,-41,1,34,1,7,1,-4,1,73,1,76,1,101,1,60,1,45,1
981,50,1,32,1,-18,1,-41,1,34,1,7,1,-3,1,73,1,76,1,102,1,61,1,45,1
982,51,1,32,1,-19,1,-41,1,35,1,7,1,-3,1,73,1,76,1,102,1,61,1,45,1
983,51,1,32,1,-19,1,-41,1,35,1,7,1,-4,1,73,1,76,1,102,1,61,1,45,1
984,51,1,32,1,-19,1,-41,1,35,1,7,1,-2,1,73,1,77,1,102,1,61,1,45,1
985,50,1,32,1,-18,1,-41,1,34,1,7,1,-2,1,72,1,78,1,102,1,61,1,46,1
986,49,1,32,1,-17,1,-40,1,33,1,8,1,-2,1,71,1,77,1,101,1,61,1,45,1
987,48,1,31,1,-17,1,-39,1,33,1,7,1,-2,1,70,1,77,1,100,1,60,1,45,1
988,48,1,31,1,-17,1,-39,1,33,1,7,1,-1,1,69,1,77,1,99,1,59,1,44,1
989,47,1,31,1,-16,1,-39,1,32,1,8,1,0,1,67,1,76,1,97,1,58,1,43,1
990,46,1,30,1,-16,1,-38,1,31,1,7,1,0,1,66,1,74,1,96,1,57,1,43,1
991,44,1,30,1,-14,1,-37,1,29,1,8,1,1,1,64,1,73,1,94,1,55,1,42,1
992,42,1,29,1,-13,1,-35,1,28,1,8,1,2,1,62,1,71,1,92,1,54,1,40,1
993,39,1,27,1,-12,1,-33,1,26,1,8,1,4,1,60,1,69,1,90,1,52,1,39,1
994,36,1,26,1,-10,1,-31,1,23,1,8,1,5,1,57,1,67,1,88,1,49,1,37,1
995,34,1,24,1,-10,1,-29,1,22,1,7,1,7,1,55,1,65,1,85,1,47,1,36,1
996,31,1,23,1,-8,1,-27,1,20,1,8,1,8,1,53,1,63,1,82,1,44,1,34,1
997,28,1,22,1,-6,1,-25,1,17,1,8,1,10,1,51,1,61,1,79,1,42,1,33,1
998,24,1,20,1,-4,1,-22,1,14,1,8,1,12,1,49,1,59,1,76,1,40,1,31,1
999,21,1,18,1,-3,1,-19,1,12,1,8,1,14,1,47,1,56,1,73,1,37,1,29,1
1000,17,1,16,1,-1,1,-16,1,9,1,8,1,15,1,44,1,52,1,70,1,35,1,26,1
1001,14,1,14,1,0,1,-14,1,7,1,7,1,16,1,40,1,49,1,67,1,32,1,24,1
1002,12,1,12,1,0,1,-12,1,6,1,6,1,18,1,37,1,46,1,64,1,31,1,22,1
1003,10,1,11,1,1,1,-10,1,5,1,6,1,19,1,35,1,43,1,61,1,29,1,20,1
1004,7,1,10,1,3,1,-8,1,2,1,7,1,20,1,32,1,41,1,59,1,27,1,17,1
1005,5,1,8,1,3,1,-6,1,1,1,6,1,21,1,30,1,39,1,56,1,25,1,15,1
1006,3,1,6,1,3,1,-4,1,0,1,5,1,22,1,28,1,37,1,53,1,23,1,14,1
1007,0,1,4,1,4,1,-2,1,-2,1,4,1,23,1,26,1,35,1,50,1,21,1,12,1
1008,-1,1,2,1,3,1,0,1,-2,1,2,1,24,1,24,1,33,1,47,1,20,1,11,1
1009,-2,1,0,1,2,1,1,1,-2,1,1,1,26,1,21,1,31,1,45,1,18,1,10,1
1010,-4,1,0,1,4,1,2,1,-4,1,2,1,26,1,19,1,29,1,43,1,16,1,8,1
1011,-6,1,-1,1,5,1,3,1,-6,1,2,1,27,1,17,1,26,1,41,1,14,1,7,1
1012,-8,1,-2,1,6,1,5,1,-7,1,2,1,28,1,16,1,24,1,40,1,12,1,5,1
1013,-10,1,-3,1,7,1,6,1,-9,1,2,1,27,1,14,1,22,1,38,1,10,1,3,1
1014,-11,1,-4,1,7,1,7,1,-9,1,1,1,27,1,12,1,20,1,35,1,8,1,1,1
1015,-13,1,-5,1,8,1,9,1,-11,1,1,1,27,1,10,1,18,1,33,1,6,1,0,1
1016,-14,1,-6,1,8,1,10,1,-11,1,1,1,27,1,7,1,17,1,31,1,5,1,-1,1
1017,-16,1,-7,1,9,1,11,1,-13,1,1,1,27,1,6,1,16,1,30,1,4,1,-2,1
1018,-16,1,-6,1,10,1,11,1,-13,1,2,1,28,1,6,1,15,1,30,1,4,1,-2,1
1019,-16,1,-6,1,10,1,11,1,-13,1,2,1,28,1,4,1,14,1,29,1,3,1,-3,1
1020,-17,1,-7,1,10,1,12,1,-14,1,1,1,28,1,3,1,13,1,28,1,1,1,-5,1
1021,-17,1,-8,1,9,1,12,1,-13,1,0,1,27,1,3,1,12,1,28,1,0,1,-6,1
1022,-18,1,-9,1,9,1,13,1,-14,1,0,1,28,1,2,1,11,1,27,1,0,1,-6,1
1023,-18,1,-9,1,9,1,13,1,-14,1,0,1,27,1,1,1,11,1,26,1,-1,1,-7,1
1024,-19,1,-9,1,10,1,14,1,-15,1,0,1,28,1,1,1,10,1,26,1,-1,1,-6,1
1025,-19,1,-10,1,9,1,14,1,-14,1,-1,1,28,1,0,1,10,1,25,1,-2,1,-5,1
1026,-19,1,-10,1,9,1,14,1,-14,1,-1,1,27,1,0,1,9,1,24,1,-2,1,-5,1
1027,-20,1,-11,1,9,1,15,1,-15,1,-1,1,28,1,-2,1,8,1,24,1,-2,1,-4,1
1028,-21,1,-11,1,10,1,16,1,-16,1,-1,1,28,1,-2,1,8,1,24,1,-1,1,-4,1
1029,-21,1,-12,1,9,1,16,1,-15,1,-2,1,28,1,-3,1,8,1,25,1,-1,1,-4,1
1030,-21,1,-11,1,10,1,16,1,-16,1,-1,1,29,1,-3,1,7,1,24,1,-2,1,-4,1
1031,-21,1,-12,1,9,1,16,1,-15,1,-2,1,29,1,-3,1,7,1,24,1,-3,1,-5,1
1032,-21,1,-12,1,9,1,16,1,-15,1,-2,1,29,1,-3,1,7,1,24,1,-3,1,-5,1
1033,-21,1,-13,1,8,1,17,1,-15,1,-3,1,29,1,-3,1,7,1,24,1,-4,1,-5,1
1034,-21,1,-13,1,8,1,17,1,-15,1,-3,1,29,1,-3,1,6,1,24,1,-4,1,-5,1
1035,-22,1,-13,1,9,1,17,1,-16,1,-2,1,29,1,-2,1,7,1,24,1,-4,1,-4,1
1036,-22,1,-11,1,11,1,16,1,-17,1,0,1,29,1,-2,1,7,1,24,1,-4,1,-4,1
1037,-23,1,-11,1,12,1,17,1,-18,1,0,1,29,1,-3,1,7,1,23,1,-4,1,-4,1
1038,-23,1,-11,1,12,1,17,1,-18,1,0,1,29,1,-3,1,7,1,23,1,-4,1,-4,1
1039,-23,1,-12,1,11,1,17,1,-17,1,-1,1,29,1,-3,1,7,1,23,1,-5,1,-4,1
1040,-23,1,-12,1,11,1,17,1,-17,1,-1,1,29,1,-3,1,7,1,22,1,-5,1,-3,1
1041,-22,1,-12,1,10,1,17,1,-16,1,-1,1,30,1,-1,1,7,1,22,1,-6,1,-3,1
1042,-22,1,-11,1,11,1,16,1,-17,1,0,1,31,1,-1,1,7,1,21,1,-6,1,-3,1
1043,-22,1,-11,1,11,1,16,1,-17,1,0,1,32,1,-1,1,7,1,21,1,-6,1,-4,1
1044,-22,1,-11,1,11,1,16,1,-17,1,0,1,32,1,0,1,7,1,21,1,-6,1,-4,1
1045,-23,1,-11,1,12,1,17,1,-18,1,0,1,32,1,0,1,8,1,21,1,-6,1,-4,1
1046,-23,1,-11,1,12,1,17,1,-18,1,0,1,32,1,0,1,8,1,22,1,-5,1,-4,1
1047,-23,1,-11,1,12,1,17,1,-18,1,0,1,32,1,0,1,8,1,22,1,-5,1,-4,1
1048,-24,1,-11,1,13,1,17,1,-19,1,1,1,32,1,0,1,9,1,22,1,-5,1,-4,1
1049,-24,1,-10,1,14,1,17,1,-19,1,2,1,33,1,0,1,9,1,23,1,-5,1,-4,1
1050,-25,1,-10,1,15,1,17,1,-20,1,2,1,32,1,0,1,9,1,23,1,-5,1,-4,1
1051,-24,1,-10,1,14,1,17,1,-19,1,2,1,32,1,0,1,9,1,23,1,-5,1,-3,1
1052,-24,1,-10,1,14,1,17,1,-19,1,2,1,32,1,2,1,9,1,24,1,-5,1,-3,1
1053,-23,1,-10,1,13,1,16,1,-18,1,1,1,32,1,2,1,10,1,24,1,-5,1,-3,1
1054,-23,1,-9,1,14,1,16,1,-19,1,2,1,32,1,2,1,11,1,24,1,-5,1,-2,1
1055,-22,1,-9,1,13,1,15,1,-18,1,2,1,33,1,2,1,11,1,24,1,-5,1,-1,1
1056,-22,1,-9,1,13,1,15,1,-18,1,2,1,33,1,1,1,11,1,23,1,-6,1,-1,1
1057,-23,1,-9,1,14,1,16,1,-19,1,2,1,33,1,1,1,11,1,24,1,-7,1,-1,1
1058,-23,1,-9,1,14,1,16,1,-19,1,2,1,33,1,2,1,12,1,24,1,-8,1,-1,1
1059,-23,1,-10,1,13,1,16,1,-18,1,1,1,32,1,2,1,13,1,23,1,-9,1,-1,1
1060,-22,1,-9,1,13,1,15,1,-18,1,2,1,32,1,1,1,13,1,22,1,-10,1,0,1
1061,-21,1,-8,1,13,1,14,1,-17,1,2,1,33,1,1,1,13,1,22,1,-11,1,0,1
1062,-21,1,-8,1,13,1,14,1,-17,1,2,1,33,1,1,1,13,1,21,1,-11,1,0,1
1063,-21,1,-7,1,14,1,14,1,-18,1,3,1,33,1,2,1,12,1,21,1,-11,1,1,1
1064,-20,1,-7,1,13,1,13,1,-17,1,3,1,32,1,2,1,11,1,20,1,-11,1,1,1
1065,-20,1,-7,1,13,1,13,1,-17,1,3,1,32,1,2,1,11,1,20,1,-12,1,1,1
1066,-20,1,-6,1,14,1,13,1,-17,1,4,1,32,1,2,1,11,1,21,1,-12,1,1,1
1067,-20,1,-6,1,14,1,13,1,-17,1,4,1,32,1,0,1,10,1,21,1,-12,1,2,1
1068,-21,1,-6,1,15,1,13,1,-18,1,4,1,32,1,1,1,10,1,21,1,-12,1,3,1
1069,-21,1,-5,1,16,1,13,1,-19,1,5,1,32,1,0,1,10,1,21,1,-13,1,3,1
1070,-21,1,-5,1,16,1,13,1,-19,1,5,1,31,1,0,1,11,1,21,1,-12,1,3,1
1071,-20,1,-6,1,14,1,13,1,-17,1,4,1,30,1,0,1,11,1,21,1,-12,1,3,1
1072,-20,1,-4,1,16,1,12,1,-18,1,6,1,31,1,0,1,10,1,21,1,-12,1,4,1
1073,-20,1,-4,1,16,1,12,1,-18,1,6,1,31,1,0,1,10,1,21,1,-12,1,3,1
1074,-20,1,-4,1,16,1,12,1,-18,1,6,1,31,1,1,1,9,1,21,1,-13,1,3,1
1075,-19,1,-4,1,15,1,11,1,-17,1,5,1,31,1,0,1,9,1,20,1,-13,1,3,1
1076,-19,1,-4,1,15,1,11,1,-17,1,5,1,31,1,-1,1,8,1,20,1,-14,1,3,1
1077,-19,1,-3,1,16,1,11,1,-18,1,6,1,31,1,-1,1,8,1,20,1,-14,1,3,1
1078,-18,1,-3,1,15,1,10,1,-17,1,6,1,31,1,0,1,9,1,20,1,-13,1,3,1
1079,-18,1,-4,1,14,1,11,1,-16,1,5,1,30,1,0,1,10,1,20,1,-12,1,3,1
1080,-19,1,-4,1,15,1,11,1,-17,1,5,1,30,1,-1,1,9,1,19,1,-12,1,3,1
1081,-19,1,-3,1,16,1,11,1,-18,1,6,1,30,1,-1,1,9,1,19,1,-12,1,4,1
1082,-19,1,-3,1,16,1,11,1,-18,1,6,1,29,1,0,1,9,1,19,1,-12,1,4,1
1083,-19,1,-1,1,18,1,10,1,-19,1,8,1,30,1,0,1,8,1,18,1,-12,1,5,1
1084,-19,1,-1,1,18,1,10,1,-19,1,8,1,30,1,0,1,7,1,18,1,-11,1,4,1
1085,-19,1,-1,1,18,1,10,1,-19,1,8,1,30,1,0,1,7,1,18,1,-11,1,4,1
1086,-19,1,-1,1,18,1,10,1,-19,1,8,1,29,1,0,1,6,1,18,1,-11,1,4,1
1087,-19,1,-1,1,18,1,10,1,-19,1,8,1,29,1,-1,1,5,1,17,1,-12,1,3,1
1088,-19,1,-1,1,18,1,10,1,-19,1,8,1,29,1,-1,1,5,1,17,1,-12,1,3,1
1089,-18,1,0,1,18,1,9,1,-18,1,9,1,29,1,0,1,5,1,17,1,-13,1,4,1
1090,-19,1,0,1,19,1,9,1,-19,1,9,1,29,1,-1,1,4,1,15,1,-14,1,3,1
1091,-19,1,-1,1,18,1,10,1,-19,1,8,1,28,1,-1,1,4,1,14,1,-14,1,3,1
1092,-19,1,-1,1,18,1,10,1,-19,1,8,1,27,1,-2,1,3,1,13,1,-13,1,3,1
1093,-19,1,-1,1,18,1,10,1,-19,1,8,1,28,1,-3,1,3,1,13,1,-12,1,2,1
1094,-19,1,0,1,19,1,9,1,-19,1,9,1,29,1,-2,1,4,1,13,1,-12,1,3,1
1095,-19,1,0,1,19,1,9,1,-19,1,9,1,29,1,-3,1,4,1,13,1,-11,1,3,1
1096,-19,1,1,1,20,1,9,1,-19,1,10,1,28,1,-4,1,4,1,14,1,-11,1,4,1
1097,-19,1,0,1,19,1,9,1,-19,1,9,1,29,1,-4,1,3,1,13,1,-11,1,4,1
1098,-19,1,0,1,19,1,9,1,-19,1,9,1,28,1,-5,1,3,1,13,1,-11,1,4,1
1099,-19,1,0,1,19,1,9,1,-19,1,9,1,28,1,-4,1,3,1,12,1,-11,1,3,1
1100,-19,1,0,1,19,1,9,1,-19,1,9,1,28,1,-4,1,2,1,11,1,-11,1,3,1
1101,-20,1,0,1,20,1,10,1,-20,1,10,1,28,1,-5,1,2,1,11,1,-10,1,3,1
1102,-20,1,-1,1,19,1,10,1,-20,1,9,1,29,1,-5,1,2,1,11,1,-10,1,3,1
1103,-20,1,-1,1,19,1,10,1,-20,1,9,1,29,1,-6,1,2,1,11,1,-10,1,3,1
1104,-19,1,0,1,19,1,9,1,-19,1,9,1,28,1,-6,1,2,1,10,1,-10,1,4,1
1105,-20,1,-1,1,19,1,10,1,-20,1,9,1,29,1,-6,1,2,1,9,1,-10,1,4,1
1106,-19,1,0,1,19,1,9,1,-19,1,9,1,30,1,-6,1,2,1,9,1,-9,1,5,1
1107,-19,1,0,1,19,1,9,1,-19,1,9,1,30,1,-6,1,2,1,8,1,-9,1,4,1
1108,-18,1,0,1,18,1,9,1,-18,1,9,1,29,1,-7,1,2,1,8,1,-9,1,4,1
1109,-18,1,0,1,18,1,9,1,-18,1,9,1,29,1,-6,1,2,1,8,1,-9,1,4,1
1110,-17,1,2,1,19,1,7,1,-18,1,10,1,29,1,-7,1,1,1,7,1,-9,1,4,1
1111,-16,1,2,1,18,1,7,1,-17,1,10,1,30,1,-7,1,1,1,7,1,-10,1,3,1
1112,-16,1,2,1,18,1,7,1,-17,1,10,1,30,1,-7,1,1,1,6,1,-9,1,3,1
1113,-17,1,2,1,19,1,7,1,-18,1,10,1,30,1,-8,1,1,1,5,1,-9,1,3,1
1114,-17,1,2,1,19,1,7,1,-18,1,10,1,30,1,-8,1,1,1,4,1,-10,1,3,1
1115,-17,1,3,1,20,1,7,1,-18,1,11,1,32,1,-8,1,1,1,3,1,-9,1,3,1
1116,-17,1,3,1,20,1,7,1,-18,1,11,1,31,1,-8,1,1,1,3,1,-9,1,4,1
1117,-17,1,3,1,20,1,7,1,-18,1,11,1,31,1,-9,1,0,1,3,1,-9,1,5,1
1118,-17,1,2,1,19,1,7,1,-18,1,10,1,31,1,-9,1,0,1,2,1,-9,1,6,1
1119,-17,1,2,1,19,1,7,1,-18,1,10,1,31,1,-8,1,0,1,2,1,-8,1,6,1
1120,-17,1,3,1,20,1,7,1,-18,1,11,1,30,1,-9,1,0,1,1,1,-8,1,6,1
1121,-16,1,2,1,18,1,7,1,-17,1,10,1,30,1,-10,1,1,1,0,1,-7,1,5,1
1122,-16,1,2,1,18,1,7,1,-17,1,10,1,30,1,-10,1,1,1,0,1,-7,1,5,1
1123,-15,1,1,1,16,1,7,1,-15,1,8,1,30,1,-10,1,1,1,0,1,-7,1,4,1
1124,-15,1,1,1,16,1,7,1,-15,1,8,1,30,1,-9,1,1,1,0,1,-8,1,3,1
1125,-15,1,3,1,18,1,6,1,-16,1,10,1,30,1,-8,1,1,1,0,1,-8,1,2,1
1126,-15,1,3,1,18,1,6,1,-16,1,10,1,31,1,-8,1,1,1,0,1,-8,1,2,1
1127,-16,1,3,1,19,1,6,1,-17,1,11,1,32,1,-9,1,0,1,0,1,-9,1,3,1
1128,-16,1,3,1,19,1,6,1,-17,1,11,1,32,1,-9,1,0,1,-1,1,-9,1,3,1
1129,-16,1,3,1,19,1,6,1,-17,1,11,1,32,1,-8,1,0,1,-2,1,-10,1,4,1
1130,-16,1,4,1,20,1,6,1,-18,1,12,1,31,1,-9,1,-1,1,-2,1,-10,1,3,1
1131,-16,1,3,1,19,1,6,1,-17,1,11,1,32,1,-8,1,0,1,-3,1,-10,1,3,1
1132,-16,1,3,1,19,1,6,1,-17,1,11,1,32,1,-9,1,0,1,-4,1,-9,1,3,1
1133,-16,1,3,1,19,1,6,1,-17,1,11,1,32,1,-9,1,0,1,-5,1,-9,1,2,1
1134,-17,1,3,1,20,1,7,1,-18,1,11,1,31,1,-8,1,0,1,-5,1,-8,1,2,1
1135,-17,1,3,1,20,1,7,1,-18,1,11,1,32,1,-8,1,-1,1,-6,1,-8,1,2,1
1136,-17,1,4,1,21,1,6,1,-19,1,12,1,32,1,-9,1,-1,1,-5,1,-8,1,2,1
1137,-18,1,4,1,22,1,7,1,-20,1,13,1,32,1,-9,1,-2,1,-5,1,-8,1,2,1
1138,-18,1,4,1,22,1,7,1,-20,1,13,1,32,1,-9,1,-2,1,-5,1,-7,1,3,1
1139,-18,1,4,1,22,1,7,1,-20,1,13,1,32,1,-8,1,-2,1,-5,1,-7,1,2,1
1140,-18,1,5,1,23,1,6,1,-20,1,14,1,32,1,-8,1,-2,1,-5,1,-7,1,2,1
1141,-17,1,5,1,22,1,6,1,-19,1,13,1,32,1,-8,1,-2,1,-5,1,-7,1,2,1
1142,-17,1,5,1,22,1,6,1,-19,1,13,1,33,1,-9,1,-2,1,-6,1,-7,1,2,1
1143,-17,1,6,1,23,1,5,1,-20,1,14,1,33,1,-9,1,-2,1,-6,1,-7,1,1,1
1144,-17,1,6,1,23,1,5,1,-20,1,14,1,33,1,-9,1,-3,1,-6,1,-6,1,1,1
1145,-16,1,7,1,23,1,4,1,-19,1,15,1,33,1,-8,1,-3,1,-6,1,-6,1,2,1
1146,-15,1,7,1,22,1,4,1,-18,1,14,1,33,1,-8,1,-4,1,-6,1,-6,1,3,1
1147,-15,1,7,1,22,1,4,1,-18,1,14,1,33,1,-8,1,-4,1,-7,1,-7,1,3,1
1148,-15,1,7,1,22,1,4,1,-18,1,14,1,32,1,-8,1,-4,1,-8,1,-6,1,4,1
1149,-15,1,8,1,23,1,3,1,-19,1,15,1,33,1,-8,1,-4,1,-8,1,-7,1,3,1
1150,-15,1,8,1,23,1,3,1,-19,1,15,1,33,1,-8,1,-4,1,-8,1,-7,1,2,1
1151,-14,1,8,1,22,1,3,1,-18,1,15,1,33,1,-8,1,-5,1,-9,1,-7,1,2,1
1152,-14,1,9,1,23,1,2,1,-18,1,16,1,32,1,-8,1,-4,1,-9,1,-7,1,1,1
1153,-14,1,9,1,23,1,2,1,-18,1,16,1,33,1,-7,1,-4,1,-10,1,-7,1,1,1
1154,-14,1,10,1,24,1,2,1,-19,1,17,1,34,1,-7,1,-4,1,-10,1,-8,1,1,1
1155,-14,1,11,1,25,1,1,1,-19,1,18,1,35,1,-7,1,-4,1,-9,1,-7,1,1,1
1156,-13,1,10,1,23,1,1,1,-18,1,16,1,36,1,-7,1,-4,1,-9,1,-6,1,1,1
1157,-13,1,10,1,23,1,1,1,-18,1,16,1,37,1,-7,1,-4,1,-9,1,-6,1,2,1
1158,-13,1,12,1,25,1,0,1,-19,1,18,1,37,1,-6,1,-3,1,-9,1,-5,1,3,1
1159,-12,1,12,1,24,1,0,1,-18,1,18,1,37,1,-6,1,-3,1,-9,1,-5,1,3,1
1160,-12,1,12,1,24,1,0,1,-18,1,18,1,38,1,-6,1,-3,1,-9,1,-4,1,3,1
1161,-11,1,13,1,24,1,-1,1,-17,1,18,1,38,1,-5,1,-2,1,-8,1,-3,1,4,1
1162,-11,1,13,1,24,1,-1,1,-17,1,18,1,38,1,-3,1,-1,1,-8,1,-3,1,5,1
1163,-11,1,14,1,25,1,-1,1,-18,1,19,1,39,1,-3,1,-1,1,-8,1,-3,1,5,1
1164,-11,1,15,1,26,1,-2,1,-18,1,20,1,39,1,-2,1,0,1,-7,1,-2,1,6,1
1165,-11,1,15,1,26,1,-2,1,-18,1,20,1,40,1,-2,1,0,1,-7,1,-2,1,6,1
1166,-11,1,16,1,27,1,-2,1,-19,1,21,1,41,1,-2,1,1,1,-7,1,-1,1,6,1
1167,-11,1,18,1,29,1,-3,1,-20,1,23,1,41,1,-1,1,1,1,-6,1,-1,1,7,1
1168,-10,1,19,1,29,1,-4,1,-19,1,24,1,41,1,0,1,2,1,-6,1,0,1,7,1
1169,-9,1,20,1,29,1,-5,1,-19,1,24,1,40,1,0,1,1,1,-6,1,0,1,7,1
1170,-8,1,21,1,29,1,-6,1,-18,1,25,1,41,1,-1,1,2,1,-6,1,0,1,7,1
1171,-7,1,22,1,29,1,-7,1,-18,1,25,1,41,1,0,1,2,1,-6,1,1,1,7,1
1172,-6,1,22,1,28,1,-8,1,-17,1,25,1,41,1,1,1,3,1,-7,1,1,1,7,1
1173,-6,1,22,1,28,1,-8,1,-17,1,25,1,41,1,1,1,3,1,-6,1,2,1,8,1
1174,-5,1,22,1,27,1,-8,1,-16,1,24,1,40,1,1,1,3,1,-7,1,2,1,7,1
1175,-3,1,22,1,25,1,-9,1,-14,1,23,1,40,1,1,1,4,1,-7,1,3,1,7,1
1176,-3,1,23,1,26,1,-10,1,-14,1,24,1,41,1,3,1,5,1,-7,1,4,1,7,1
1177,-3,1,24,1,27,1,-10,1,-15,1,25,1,40,1,4,1,7,1,-6,1,5,1,8,1
1178,-2,1,24,1,26,1,-11,1,-14,1,25,1,39,1,5,1,8,1,-6,1,5,1,9,1
1179,-1,1,25,1,26,1,-12,1,-13,1,25,1,40,1,5,1,9,1,-5,1,6,1,9,1
1180,0,1,26,1,26,1,-13,1,-13,1,26,1,39,1,6,1,10,1,-5,1,6,1,10,1
1181,0,1,27,1,27,1,-13,1,-13,1,27,1,37,1,6,1,10,1,-6,1,6,1,10,1
1182,2,1,27,1,25,1,-14,1,-11,1,26,1,37,1,6,1,10,1,-6,1,7,1,11,1
1183,2,1,27,1,25,1,-14,1,-11,1,26,1,36,1,5,1,10,1,-6,1,7,1,11,1
1184,3,1,28,1,25,1,-15,1,-11,1,27,1,35,1,4,1,10,1,-6,1,8,1,11,1
1185,3,1,28,1,25,1,-15,1,-11,1,27,1,35,1,4,1,10,1,-5,1,8,1,12,1
1186,3,1,27,1,24,1,-15,1,-10,1,26,1,34,1,3,1,9,1,-6,1,8,1,12,1
1187,3,1,27,1,24,1,-15,1,-10,1,26,1,32,1,1,1,9,1,-7,1,8,1,11,1
1188,3,1,27,1,24,1,-15,1,-10,1,26,1,31,1,0,1,9,1,-8,1,7,1,10,1
1189,3,1,25,1,22,1,-14,1,-9,1,24,1,30,1,0,1,8,1,-8,1,7,1,9,1
1190,2,1,23,1,21,1,-12,1,-9,1,22,1,30,1,-2,1,7,1,-9,1,6,1,8,1
1191,2,1,21,1,19,1,-11,1,-8,1,20,1,30,1,-3,1,6,1,-9,1,6,1,6,1
1192,1,1,20,1,19,1,-10,1,-9,1,20,1,30,1,-4,1,5,1,-10,1,5,1,5,1
1193,1,1,20,1,19,1,-10,1,-9,1,20,1,29,1,-5,1,4,1,-12,1,4,1,4,1
1194,1,1,19,1,18,1,-10,1,-8,1,19,1,31,1,-6,1,5,1,-13,1,4,1,5,1
1195,1,1,19,1,18,1,-10,1,-8,1,19,1,31,1,-6,1,4,1,-14,1,4,1,5,1
1196,0,1,19,1,19,1,-9,1,-9,1,19,1,30,1,-8,1,3,1,-14,1,4,1,4,1
1197,0,1,18,1,18,1,-9,1,-9,1,18,1,31,1,-9,1,2,1,-15,1,3,1,4,1
1198,0,1,16,1,16,1,-8,1,-8,1,16,1,29,1,-11,1,0,1,-16,1,2,1,3,1
1199,0,1,16,1,16,1,-8,1,-8,1,16,1,28,1,-13,1,-1,1,-18,1,2,1,3,1
1200,-1,1,16,1,17,1,-7,1,-9,1,16,1,28,1,-14,1,-2,1,-19,1,1,1,2,1
1201,-2,1,15,1,17,1,-6,1,-9,1,16,1,27,1,-15,1,-2,1,-20,1,1,1,2,1
1202,-3,1,15,1,18,1,-6,1,-10,1,16,1,26,1,-16,1,-3,1,-19,1,1,1,2,1
1203,-4,1,15,1,19,1,-5,1,-11,1,17,1,26,1,-17,1,-3,1,-19,1,1,1,1,1
1204,-6,1,15,1,21,1,-4,1,-13,1,18,1,25,1,-18,1,-4,1,-20,1,0,1,0,1
1205,-6,1,14,1,20,1,-4,1,-13,1,17,1,25,1,-20,1,-5,1,-21,1,0,1,0,1
1206,-7,1,13,1,20,1,-3,1,-13,1,16,1,25,1,-20,1,-5,1,-22,1,0,1,-1,1
1207,-9,1,13,1,22,1,-2,1,-15,1,17,1,25,1,-20,1,-5,1,-22,1,-1,1,-1,1
1208,-9,1,12,1,21,1,-1,1,-15,1,16,1,24,1,-20,1,-5,1,-22,1,-1,1,-2,1
1209,-9,1,11,1,20,1,-1,1,-14,1,15,1,24,1,-20,1,-5,1,-22,1,-2,1,-2,1
1210,-10,1,10,1,20,1,0,1,-15,1,15,1,23,1,-21,1,-6,1,-23,1,-3,1,-2,1
1211,-10,1,11,1,21,1,0,1,-15,1,16,1,23,1,-21,1,-7,1,-23,1,-3,1,-3,1
1212,-10,1,10,1,20,1,0,1,-15,1,15,1,24,1,-22,1,-7,1,-24,1,-3,1,-4,1
1213,-10,1,10,1,20,1,0,1,-15,1,15,1,23,1,-22,1,-8,1,-24,1,-3,1,-5,1
1214,-11,1,10,1,21,1,0,1,-16,1,15,1,23,1,-23,1,-9,1,-25,1,-3,1,-6,1
1215,-11,1,10,1,21,1,0,1,-16,1,15,1,23,1,-23,1,-8,1,-25,1,-4,1,-6,1
1216,-12,1,9,1,21,1,1,1,-16,1,15,1,23,1,-23,1,-8,1,-26,1,-4,1,-7,1
1217,-12,1,8,1,20,1,2,1,-16,1,14,1,23,1,-22,1,-8,1,-26,1,-4,1,-7,1
1218,-12,1,8,1,20,1,2,1,-16,1,14,1,22,1,-21,1,-8,1,-25,1,-3,1,-6,1
1219,-12,1,8,1,20,1,2,1,-16,1,14,1,22,1,-21,1,-8,1,-25,1,-3,1,-5,1
1220,-12,1,8,1,20,1,2,1,-16,1,14,1,22,1,-21,1,-8,1,-25,1,-3,1,-5,1
1221,-11,1,8,1,19,1,1,1,-15,1,13,1,22,1,-21,1,-7,1,-25,1,-2,1,-5,1
1222,-11,1,9,1,20,1,1,1,-15,1,14,1,22,1,-21,1,-7,1,-25,1,-3,1,-6,1
1223,-11,1,9,1,20,1,1,1,-15,1,14,1,23,1,-21,1,-7,1,-26,1,-3,1,-6,1
1224,-11,1,9,1,20,1,1,1,-15,1,14,1,22,1,-22,1,-7,1,-26,1,-3,1,-6,1
1225,-11,1,10,1,21,1,0,1,-16,1,15,1,21,1,-20,1,-8,1,-27,1,-3,1,-6,1
1226,-11,1,11,1,22,1,0,1,-16,1,16,1,22,1,-16,1,-8,1,-27,1,-3,1,-5,1
1227,-11,1,12,1,23,1,0,1,-17,1,17,1,21,1,-12,1,-8,1,-28,1,-4,1,-5,1
1228,-11,1,12,1,23,1,0,1,-17,1,17,1,20,1,-9,1,-7,1,-28,1,-4,1,-5,1
1229,-11,1,13,1,24,1,-1,1,-17,1,18,1,21,1,-7,1,-7,1,-27,1,-3,1,-4,1
1230,-11,1,15,1,26,1,-2,1,-18,1,20,1,20,1,-5,1,-6,1,-27,1,-2,1,-4,1
1231,-11,1,17,1,28,1,-3,1,-19,1,22,1,22,1,-1,1,-4,1,-25,1,-1,1,-3,1
1232,-10,1,20,1,30,1,-5,1,-20,1,25,1,23,1,4,1,-2,1,-23,1,1,1,-1,1
1233,-9,1,26,1,35,1,-8,1,-22,1,30,1,26,1,12,1,2,1,-18,1,5,1,1,1
1234,-8,1,29,1,37,1,-10,1,-22,1,33,1,28,1,21,1,9,1,-12,1,9,1,4,1
1235,-6,1,32,1,38,1,-13,1,-22,1,35,1,29,1,29,1,18,1,-5,1,13,1,8,1
1236,-4,1,34,1,38,1,-15,1,-21,1,36,1,30,1,39,1,26,1,2,1,18,1,10,1
1237,1,1,35,1,34,1,-18,1,-16,1,35,1,30,1,51,1,36,1,11,1,23,1,13,1
1238,10,1,37,1,27,1,-23,1,-8,1,32,1,30,1,66,1,49,1,23,1,30,1,17,1
1239,22,1,41,1,19,1,-31,1,2,1,30,1,30,1,85,1,67,1,40,1,40,1,25,1
1240,37,1,51,1,14,1,-44,1,12,1,33,1,28,1,107,1,90,1,63,1,56,1,36,1
1241,54,1,59,1,5,1,-56,1,25,1,32,1,27,1,125,1,113,1,87,1,74,1,49,1
1242,68,1,68,1,0,1,-68,1,34,1,34,1,25,1,135,1,129,1,107,1,92,1,63,1
1243,81,1,76,1,-5,1,-78,1,43,1,36,1,22,1,140,1,143,1,125,1,109,1,74,1
1244,93,1,82,1,-11,1,-87,1,52,1,36,1,21,1,145,1,157,1,143,1,124,1,84,1
1245,105,1,86,1,-19,1,-95,1,62,1,34,1,18,1,147,1,168,1,158,1,138,1,94,1
1246,115,1,89,1,-26,1,-102,1,71,1,32,1,14,1,139,1,175,1,171,1,150,1,103,1
1247,126,1,88,1,-38,1,-107,1,82,1,25,1,11,1,127,1,177,1,175,1,155,1,106,1
1248,134,1,76,1,-58,1,-105,1,96,1,9,1,7,1,109,1,169,1,169,1,149,1,101,1
1249,138,1,58,1,-80,1,-98,1,109,1,-11,1,3,1,87,1,151,1,150,1,133,1,88,1
1250,135,1,40,1,-95,1,-87,1,115,1,-27,1,1,1,58,1,126,1,123,1,111,1,71,1
1251,125,1,26,1,-99,1,-75,1,112,1,-36,1,-1,1,17,1,90,1,90,1,88,1,54,1
1252,107,1,8,1,-99,1,-57,1,103,1,-45,1,-2,1,-28,1,45,1,47,1,57,1,30,1
1253,81,1,-11,1,-92,1,-35,1,86,1,-51,1,-3,1,-75,1,-4,1,0,1,20,1,3,1
1254,48,1,-24,1,-72,1,-12,1,60,1,-48,1,-3,1,-119,1,-53,1,-46,1,-11,1,-19,1
1255,16,1,-33,1,-49,1,8,1,32,1,-41,1,-3,1,-162,1,-97,1,-86,1,-39,1,-38,1
1256,-15,1,-37,1,-22,1,26,1,3,1,-30,1,-7,1,-198,1,-135,1,-119,1,-59,1,-51,1
1257,-39,1,-35,1,4,1,37,1,-22,1,-16,1,-11,1,-226,1,-159,1,-142,1,-72,1,-59,1
1258,-57,1,-31,1,26,1,44,1,-42,1,-3,1,-15,1,-242,1,-171,1,-153,1,-76,1,-60,1
1259,-67,1,-28,1,39,1,47,1,-53,1,5,1,-20,1,-251,1,-178,1,-157,1,-77,1,-60,1
1260,-72,1,-29,1,43,1,50,1,-58,1,7,1,-24,1,-253,1,-180,1,-159,1,-78,1,-60,1
1261,-74,1,-29,1,45,1,51,1,-60,1,8,1,-26,1,-249,1,-180,1,-157,1,-77,1,-59,1
1262,-73,1,-29,1,44,1,51,1,-59,1,7,1,-27,1,-236,1,-174,1,-151,1,-74,1,-57,1
1263,-71,1,-28,1,43,1,49,1,-57,1,7,1,-27,1,-217,1,-164,1,-144,1,-70,1,-54,1
1264,-66,1,-25,1,41,1,45,1,-54,1,8,1,-25,1,-194,1,-151,1,-133,1,-64,1,-52,1
1265,-58,1,-21,1,37,1,39,1,-48,1,8,1,-21,1,-165,1,-133,1,-120,1,-56,1,-48,1
1266,-49,1,-15,1,34,1,32,1,-42,1,9,1,-16,1,-136,1,-112,1,-103,1,-47,1,-42,1
1267,-41,1,-9,1,32,1,25,1,-37,1,11,1,-10,1,-109,1,-91,1,-88,1,-38,1,-37,1
1268,-33,1,-4,1,29,1,18,1,-31,1,12,1,-4,1,-83,1,-72,1,-73,1,-29,1,-32,1
1269,-26,1,1,1,27,1,12,1,-26,1,14,1,1,1,-63,1,-55,1,-60,1,-22,1,-26,1
1270,-20,1,7,1,27,1,6,1,-23,1,17,1,7,1,-49,1,-43,1,-49,1,-15,1,-21,1
1271,-15,1,12,1,27,1,1,1,-21,1,19,1,10,1,-37,1,-33,1,-39,1,-10,1,-16,1
1272,-11,1,15,1,26,1,-2,1,-18,1,20,1,13,1,-28,1,-26,1,-30,1,-5,1,-12,1
1273,-8,1,18,1,26,1,-5,1,-17,1,22,1,15,1,-18,1,-20,1,-24,1,-1,1,-9,1
1274,-5,1,20,1,25,1,-7,1,-15,1,22,1,15,1,-10,1,-16,1,-21,1,0,1,-9,1
1275,-3,1,20,1,23,1,-8,1,-13,1,21,1,17,1,-3,1,-12,1,-18,1,2,1,-8,1
1276,-3,1,20,1,23,1,-8,1,-13,1,21,1,17,1,2,1,-8,1,-16,1,4,1,-7,1
1277,-2,1,20,1,22,1,-9,1,-12,1,21,1,18,1,7,1,-6,1,-14,1,5,1,-7,1
1278,-2,1,19,1,21,1,-8,1,-11,1,20,1,19,1,11,1,-4,1,-12,1,5,1,-7,1
1279,-2,1,18,1,20,1,-8,1,-11,1,19,1,19,1,13,1,-2,1,-11,1,7,1,-7,1
1280,-2,1,19,1,21,1,-8,1,-11,1,20,1,21,1,13,1,0,1,-10,1,7,1,-8,1
1281,-1,1,19,1,20,1,-9,1,-10,1,19,1,21,1,14,1,0,1,-9,1,8,1,-7,1
1282,0,1,19,1,19,1,-9,1,-9,1,19,1,21,1,14,1,1,1,-8,1,8,1,-7,1
1283,0,1,20,1,20,1,-10,1,-10,1,20,1,21,1,16,1,1,1,-7,1,8,1,-6,1
1284,1,1,20,1,19,1,-10,1,-9,1,20,1,20,1,18,1,1,1,-6,1,8,1,-6,1
1285,1,1,19,1,18,1,-10,1,-8,1,19,1,19,1,19,1,3,1,-6,1,9,1,-5,1
1286,2,1,19,1,17,1,-10,1,-7,1,18,1,18,1,21,1,3,1,-5,1,10,1,-5,1
1287,2,1,20,1,18,1,-11,1,-8,1,19,1,18,1,23,1,4,1,-4,1,10,1,-5,1
1288,3,1,20,1,17,1,-11,1,-7,1,19,1,18,1,25,1,5,1,-4,1,11,1,-6,1
1289,3,1,20,1,17,1,-11,1,-7,1,19,1,17,1,25,1,5,1,-4,1,11,1,-5,1
1290,3,1,20,1,17,1,-11,1,-7,1,19,1,18,1,26,1,6,1,-4,1,10,1,-5,1
1291,4,1,21,1,17,1,-12,1,-6,1,19,1,18,1,26,1,7,1,-4,1,11,1,-5,1
1292,4,1,22,1,18,1,-13,1,-7,1,20,1,18,1,27,1,8,1,-3,1,12,1,-4,1
1293,4,1,23,1,19,1,-13,1,-7,1,21,1,17,1,29,1,9,1,-3,1,12,1,-4,1
1294,4,1,23,1,19,1,-13,1,-7,1,21,1,17,1,29,1,9,1,-3,1,13,1,-4,1
1295,4,1,23,1,19,1,-13,1,-7,1,21,1,17,1,30,1,10,1,-2,1,13,1,-4,1
1296,5,1,24,1,19,1,-14,1,-7,1,22,1,16,1,31,1,12,1,-2,1,13,1,-3,1
1297,5,1,24,1,19,1,-14,1,-7,1,22,1,17,1,33,1,13,1,-1,1,14,1,-3,1
1298,6,1,24,1,18,1,-15,1,-6,1,21,1,16,1,33,1,13,1,-1,1,15,1,-3,1
1299,8,1,25,1,17,1,-16,1,-4,1,21,1,16,1,34,1,14,1,-1,1,15,1,-3,1
1300,8,1,25,1,17,1,-16,1,-4,1,21,1,16,1,35,1,15,1,0,1,15,1,-3,1
1301,9,1,25,1,16,1,-17,1,-3,1,21,1,16,1,35,1,17,1,0,1,16,1,-2,1
1302,10,1,26,1,16,1,-18,1,-3,1,21,1,16,1,37,1,17,1,0,1,16,1,-1,1
1303,10,1,25,1,15,1,-17,1,-2,1,20,1,16,1,38,1,17,1,1,1,16,1,-1,1
1304,10,1,25,1,15,1,-17,1,-2,1,20,1,17,1,39,1,18,1,1,1,17,1,-1,1
1305,10,1,26,1,16,1,-18,1,-3,1,21,1,17,1,40,1,19,1,1,1,17,1,-1,1
1306,10,1,25,1,15,1,-17,1,-2,1,20,1,16,1,41,1,21,1,1,1,17,1,-2,1
1307,10,1,25,1,15,1,-17,1,-2,1,20,1,16,1,42,1,21,1,2,1,18,1,-1,1
1308,11,1,26,1,15,1,-18,1,-2,1,21,1,16,1,43,1,21,1,2,1,18,1,0,1
1309,12,1,26,1,14,1,-19,1,-1,1,20,1,18,1,43,1,22,1,3,1,19,1,0,1
1310,13,1,26,1,13,1,-19,1,0,1,20,1,17,1,44,1,23,1,3,1,20,1,0,1
1311,14,1,27,1,13,1,-20,1,1,1,20,1,18,1,46,1,24,1,3,1,20,1,0,1
1312,14,1,28,1,14,1,-21,1,0,1,21,1,17,1,47,1,24,1,5,1,20,1,1,1
1313,15,1,29,1,14,1,-22,1,1,1,22,1,17,1,48,1,25,1,6,1,19,1,1,1
1314,16,1,29,1,13,1,-22,1,2,1,21,1,17,1,48,1,26,1,7,1,19,1,1,1
1315,17,1,29,1,12,1,-23,1,3,1,21,1,18,1,49,1,29,1,7,1,21,1,3,1
1316,18,1,29,1,11,1,-23,1,4,1,20,1,18,1,51,1,30,1,8,1,22,1,3,1
1317,18,1,30,1,12,1,-24,1,3,1,21,1,17,1,52,1,30,1,9,1,22,1,4,1
1318,20,1,30,1,10,1,-25,1,5,1,20,1,18,1,53,1,30,1,10,1,22,1,4,1
1319,21,1,31,1,10,1,-26,1,6,1,21,1,17,1,54,1,30,1,10,1,23,1,5,1
1320,21,1,32,1,11,1,-26,1,5,1,22,1,17,1,55,1,31,1,10,1,22,1,5,1
1321,22,1,32,1,10,1,-27,1,6,1,21,1,16,1,57,1,31,1,12,1,24,1,6,1
1322,23,1,33,1,10,1,-28,1,7,1,22,1,15,1,57,1,32,1,13,1,24,1,6,1
1323,24,1,34,1,10,1,-29,1,7,1,22,1,16,1,57,1,33,1,13,1,24,1,7,1
1324,24,1,34,1,10,1,-29,1,7,1,22,1,16,1,57,1,34,1,13,1,25,1,7,1
1325,25,1,35,1,10,1,-30,1,8,1,23,1,17,1,59,1,36,1,13,1,25,1,8,1
1326,26,1,35,1,9,1,-30,1,9,1,22,1,17,1,60,1,37,1,15,1,26,1,9,1
1327,27,1,35,1,8,1,-31,1,10,1,22,1,17,1,61,1,37,1,16,1,27,1,10,1
1328,29,1,37,1,8,1,-33,1,11,1,23,1,17,1,62,1,38,1,16,1,27,1,10,1
1329,30,1,37,1,7,1,-33,1,12,1,22,1,16,1,63,1,39,1,16,1,28,1,11,1
1330,31,1,37,1,6,1,-34,1,13,1,22,1,16,1,64,1,40,1,17,1,28,1,11,1
1331,32,1,39,1,7,1,-35,1,13,1,23,1,15,1,64,1,41,1,19,1,30,1,12,1
1332,33,1,39,1,6,1,-36,1,14,1,23,1,15,1,64,1,42,1,19,1,31,1,13,1
1333,34,1,39,1,5,1,-36,1,15,1,22,1,14,1,65,1,44,1,20,1,31,1,14,1
1334,34,1,40,1,6,1,-37,1,14,1,23,1,14,1,68,1,46,1,21,1,32,1,16,1
1335,36,1,41,1,5,1,-38,1,16,1,23,1,13,1,69,1,47,1,22,1,33,1,17,1
1336,36,1,41,1,5,1,-38,1,16,1,23,1,13,1,71,1,48,1,24,1,35,1,19,1
1337,37,1,42,1,5,1,-39,1,16,1,24,1,12,1,72,1,50,1,23,1,36,1,19,1
1338,39,1,43,1,4,1,-41,1,18,1,24,1,12,1,74,1,52,1,24,1,37,1,20,1
1339,40,1,45,1,5,1,-42,1,18,1,25,1,12,1,75,1,53,1,25,1,38,1,21,1
1340,43,1,46,1,3,1,-44,1,20,1,25,1,10,1,75,1,54,1,27,1,39,1,22,1
1341,44,1,46,1,2,1,-45,1,21,1,24,1,10,1,76,1,56,1,28,1,40,1,23,1
1342,46,1,48,1,2,1,-47,1,22,1,25,1,10,1,78,1,58,1,30,1,42,1,24,1
1343,46,1,48,1,2,1,-47,1,22,1,25,1,9,1,80,1,59,1,31,1,43,1,24,1
1344,47,1,49,1,2,1,-48,1,23,1,26,1,9,1,81,1,61,1,33,1,44,1,26,1
1345,48,1,51,1,3,1,-49,1,23,1,27,1,8,1,83,1,63,1,34,1,45,1,28,1
1346,50,1,51,1,1,1,-50,1,25,1,26,1,7,1,85,1,64,1,35,1,47,1,29,1
1347,52,1,53,1,1,1,-52,1,26,1,27,1,6,1,86,1,66,1,36,1,48,1,30,1
1348,53,1,54,1,1,1,-53,1,26,1,28,1,7,1,87,1,67,1,37,1,49,1,31,1
1349,55,1,54,1,-1,1,-54,1,28,1,27,1,6,1,88,1,68,1,38,1,50,1,33,1
1350,57,1,55,1,-2,1,-56,1,30,1,27,1,5,1,89,1,70,1,39,1,52,1,34,1
1351,59,1,56,1,-3,1,-57,1,31,1,27,1,5,1,92,1,71,1,40,1,53,1,36,1
1352,61,1,57,1,-4,1,-59,1,33,1,27,1,5,1,93,1,73,1,41,1,55,1,37,1
1353,62,1,58,1,-4,1,-60,1,33,1,27,1,5,1,94,1,74,1,43,1,56,1,37,1
1354,63,1,58,1,-5,1,-60,1,34,1,27,1,4,1,94,1,76,1,44,1,57,1,38,1
1355,64,1,59,1,-5,1,-61,1,35,1,27,1,4,1,95,1,76,1,44,1,59,1,39,1
1356,64,1,60,1,-4,1,-62,1,34,1,28,1,3,1,96,1,78,1,45,1,61,1,41,1
1357,65,1,60,1,-5,1,-62,1,35,1,28,1,3,1,96,1,78,1,45,1,61,1,42,1
1358,66,1,61,1,-5,1,-63,1,36,1,28,1,2,1,96,1,79,1,46,1,62,1,43,1
1359,67,1,61,1,-6,1,-64,1,37,1,28,1,1,1,97,1,79,1,46,1,62,1,44,1
1360,68,1,61,1,-7,1,-64,1,38,1,27,1,0,1,97,1,78,1,45,1,64,1,45,1
1361,68,1,62,1,-6,1,-65,1,37,1,28,1,0,1,97,1,79,1,45,1,64,1,45,1
1362,69,1,61,1,-8,1,-65,1,39,1,27,1,-1,1,96,1,79,1,46,1,63,1,45,1
1363,69,1,62,1,-7,1,-65,1,38,1,28,1,-2,1,95,1,78,1,45,1,63,1,44,1
1364,69,1,62,1,-7,1,-65,1,38,1,28,1,-2,1,94,1,77,1,44,1,62,1,44,1
1365,68,1,61,1,-7,1,-64,1,38,1,27,1,-1,1,94,1,78,1,45,1,63,1,44,1
1366,69,1,62,1,-7,1,-65,1,38,1,28,1,0,1,92,1,77,1,45,1,62,1,44,1
1367,68,1,61,1,-7,1,-64,1,38,1,27,1,0,1,92,1,76,1,44,1,61,1,44,1
1368,67,1,61,1,-6,1,-64,1,37,1,28,1,1,1,91,1,75,1,43,1,60,1,44,1
1369,66,1,60,1,-6,1,-63,1,36,1,27,1,1,1,89,1,74,1,43,1,60,1,42,1
1370,64,1,59,1,-5,1,-61,1,35,1,27,1,1,1,88,1,71,1,42,1,58,1,42,1
1371,63,1,58,1,-5,1,-60,1,34,1,27,1,0,1,87,1,69,1,41,1,57,1,40,1
1372,61,1,57,1,-4,1,-59,1,33,1,27,1,-1,1,86,1,69,1,39,1,56,1,39,1
1373,59,1,56,1,-3,1,-57,1,31,1,27,1,-1,1,83,1,67,1,37,1,56,1,37,1
1374,57,1,54,1,-3,1,-55,1,30,1,26,1,0,1,81,1,65,1,35,1,53,1,36,1
1375,55,1,52,1,-3,1,-53,1,29,1,25,1,2,1,79,1,63,1,33,1,51,1,36,1
1376,52,1,51,1,-1,1,-51,1,27,1,25,1,3,1,77,1,62,1,30,1,49,1,34,1
1377,49,1,48,1,-1,1,-48,1,25,1,24,1,5,1,74,1,59,1,28,1,47,1,32,1
1378,46,1,46,1,0,1,-46,1,23,1,23,1,5,1,72,1,56,1,25,1,45,1,30,1
1379,43,1,44,1,1,1,-43,1,21,1,23,1,7,1,69,1,55,1,22,1,43,1,29,1
1380,40,1,42,1,2,1,-41,1,19,1,22,1,8,1,66,1,52,1,18,1,40,1,28,1
1381,38,1,41,1,3,1,-39,1,18,1,22,1,9,1,62,1,49,1,15,1,38,1,26,1
1382,35,1,39,1,4,1,-37,1,16,1,22,1,10,1,60,1,47,1,12,1,35,1,24,1
1383,32,1,37,1,5,1,-34,1,14,1,21,1,11,1,57,1,45,1,9,1,32,1,21,1
1384,28,1,35,1,7,1,-31,1,11,1,21,1,12,1,53,1,43,1,5,1,29,1,20,1
1385,25,1,32,1,7,1,-28,1,9,1,20,1,13,1,50,1,40,1,3,1,29,1,19,1
1386,22,1,31,1,9,1,-26,1,7,1,20,1,15,1,47,1,38,1,1,1,26,1,17,1
1387,18,1,28,1,10,1,-23,1,4,1,19,1,16,1,45,1,36,1,-1,1,24,1,15,1
1388,16,1,26,1,10,1,-21,1,3,1,18,1,18,1,42,1,32,1,-4,1,22,1,12,1
1389,15,1,24,1,9,1,-19,1,3,1,17,1,19,1,39,1,29,1,-6,1,21,1,11,1
1390,13,1,23,1,10,1,-18,1,2,1,17,1,21,1,37,1,27,1,-8,1,20,1,10,1
1391,11,1,21,1,10,1,-16,1,1,1,16,1,21,1,34,1,25,1,-10,1,18,1,8,1
1392,9,1,20,1,11,1,-14,1,-1,1,16,1,21,1,30,1,23,1,-12,1,16,1,6,1
1393,6,1,19,1,13,1,-12,1,-3,1,16,1,23,1,27,1,21,1,-14,1,15,1,3,1
1394,5,1,17,1,12,1,-11,1,-3,1,15,1,22,1,24,1,19,1,-16,1,13,1,2,1
1395,3,1,14,1,11,1,-8,1,-4,1,13,1,23,1,21,1,17,1,-18,1,10,1,1,1
1396,0,1,13,1,13,1,-6,1,-6,1,13,1,23,1,18,1,16,1,-20,1,8,1,0,1
1397,-1,1,11,1,12,1,-5,1,-6,1,11,1,23,1,17,1,13,1,-21,1,8,1,-1,1
1398,-2,1,10,1,12,1,-4,1,-7,1,11,1,23,1,15,1,12,1,-22,1,7,1,-2,1
1399,-3,1,9,1,12,1,-3,1,-7,1,10,1,24,1,13,1,11,1,-23,1,5,1,-1,1
1400,-4,1,8,1,12,1,-2,1,-8,1,10,1,24,1,10,1,9,1,-25,1,3,1,-2,1
1401,-4,1,8,1,12,1,-2,1,-8,1,10,1,25,1,9,1,7,1,-26,1,2,1,-4,1
1402,-4,1,7,1,11,1,-1,1,-7,1,9,1,25,1,8,1,6,1,-27,1,1,1,-5,1
1403,-5,1,6,1,11,1,0,1,-8,1,8,1,26,1,6,1,6,1,-28,1,0,1,-6,1
1404,-6,1,5,1,11,1,0,1,-8,1,8,1,25,1,5,1,5,1,-30,1,0,1,-7,1
1405,-7,1,4,1,11,1,1,1,-9,1,7,1,25,1,4,1,4,1,-30,1,0,1,-7,1
1406,-8,1,4,1,12,1,2,1,-10,1,8,1,24,1,2,1,4,1,-32,1,0,1,-8,1
1407,-9,1,2,1,11,1,3,1,-10,1,6,1,24,1,1,1,3,1,-33,1,0,1,-8,1
1408,-9,1,2,1,11,1,3,1,-10,1,6,1,25,1,0,1,2,1,-34,1,0,1,-8,1
1409,-10,1,1,1,11,1,4,1,-10,1,6,1,25,1,-1,1,1,1,-33,1,0,1,-8,1
1410,-11,1,1,1,12,1,5,1,-11,1,6,1,24,1,-2,1,1,1,-34,1,0,1,-8,1
1411,-10,1,1,1,11,1,4,1,-10,1,6,1,23,1,-4,1,1,1,-35,1,-1,1,-9,1
1412,-10,1,1,1,11,1,4,1,-10,1,6,1,21,1,-4,1,0,1,-35,1,-1,1,-8,1
1413,-11,1,1,1,12,1,5,1,-11,1,6,1,21,1,-4,1,1,1,-36,1,-1,1,-8,1
1414,-11,1,0,1,11,1,5,1,-11,1,5,1,21,1,-5,1,0,1,-36,1,-1,1,-9,1
1415,-10,1,0,1,10,1,5,1,-10,1,5,1,22,1,-5,1,0,1,-37,1,-1,1,-10,1
1416,-10,1,0,1,10,1,5,1,-10,1,5,1,23,1,-6,1,0,1,-37,1,-1,1,-11,1
1417,-11,1,0,1,11,1,5,1,-11,1,5,1,22,1,-7,1,0,1,-37,1,0,1,-12,1
1418,-11,1,0,1,11,1,5,1,-11,1,5,1,21,1,-8,1,-1,1,-37,1,-1,1,-13,1
1419,-10,1,-1,1,9,1,5,1,-10,1,4,1,19,1,-8,1,0,1,-37,1,-2,1,-13,1
1420,-10,1,-1,1,9,1,5,1,-10,1,4,1,18,1,-8,1,0,1,-36,1,-2,1,-13,1
1421,-10,1,-2,1,8,1,6,1,-9,1,3,1,15,1,-10,1,-1,1,-37,1,-3,1,-13,1
1422,-10,1,-2,1,8,1,6,1,-9,1,3,1,13,1,-10,1,0,1,-38,1,-3,1,-13,1
1423,-10,1,-3,1,7,1,6,1,-9,1,2,1,12,1,-10,1,0,1,-38,1,-4,1,-14,1
1424,-10,1,-3,1,7,1,6,1,-9,1,2,1,12,1,-10,1,0,1,-37,1,-3,1,-14,1
1425,-10,1,-3,1,7,1,6,1,-9,1,2,1,12,1,-11,1,1,1,-36,1,-3,1,-14,1
1426,-10,1,-4,1,6,1,7,1,-8,1,1,1,11,1,-11,1,1,1,-36,1,-4,1,-14,1
1427,-11,1,-3,1,8,1,7,1,-10,1,2,1,11,1,-11,1,1,1,-35,1,-4,1,-14,1
1428,-11,1,-4,1,7,1,7,1,-9,1,1,1,11,1,-11,1,2,1,-33,1,-2,1,-13,1
1429,-11,1,-3,1,8,1,7,1,-10,1,2,1,11,1,-11,1,2,1,-33,1,-2,1,-13,1
1430,-11,1,-4,1,7,1,7,1,-9,1,1,1,11,1,-11,1,2,1,-33,1,-2,1,-12,1
1431,-10,1,-4,1,6,1,7,1,-8,1,1,1,11,1,-11,1,2,1,-32,1,-1,1,-12,1
1432,-10,1,-4,1,6,1,7,1,-8,1,1,1,10,1,-11,1,2,1,-31,1,-1,1,-13,1
1433,-10,1,-5,1,5,1,7,1,-8,1,0,1,9,1,-11,1,2,1,-31,1,-2,1,-13,1
1434,-10,1,-4,1,6,1,7,1,-8,1,1,1,9,1,-11,1,3,1,-30,1,-2,1,-12,1
1435,-9,1,-5,1,4,1,7,1,-7,1,-1,1,8,1,-11,1,3,1,-28,1,-1,1,-12,1
1436,-9,1,-5,1,4,1,7,1,-7,1,-1,1,7,1,-12,1,2,1,-28,1,-2,1,-12,1
1437,-10,1,-5,1,5,1,7,1,-8,1,0,1,7,1,-13,1,3,1,-29,1,-2,1,-12,1
1438,-10,1,-4,1,6,1,7,1,-8,1,1,1,6,1,-13,1,2,1,-29,1,-3,1,-12,1
1439,-10,1,-4,1,6,1,7,1,-8,1,1,1,6,1,-13,1,1,1,-28,1,-2,1,-11,1
1440,-11,1,-5,1,6,1,8,1,-9,1,0,1,5,1,-13,1,2,1,-29,1,-2,1,-11,1
1441,-9,1,-5,1,4,1,7,1,-7,1,-1,1,4,1,-12,1,2,1,-29,1,-2,1,-11,1
1442,-9,1,-5,1,4,1,7,1,-7,1,-1,1,2,1,-12,1,1,1,-28,1,-1,1,-11,1
1443,-9,1,-6,1,3,1,7,1,-6,1,-2,1,2,1,-12,1,1,1,-28,1,0,1,-10,1
1444,-10,1,-7,1,3,1,8,1,-7,1,-2,1,1,1,-11,1,2,1,-28,1,-1,1,-10,1
1445,-9,1,-7,1,2,1,8,1,-6,1,-3,1,0,1,-11,1,2,1,-29,1,-1,1,-10,1
1446,-9,1,-7,1,2,1,8,1,-6,1,-3,1,0,1,-12,1,1,1,-29,1,-1,1,-11,1
1447,-9,1,-7,1,2,1,8,1,-6,1,-3,1,-1,1,-12,1,2,1,-29,1,-1,1,-10,1
1448,-9,1,-6,1,3,1,7,1,-6,1,-2,1,-2,1,-12,1,2,1,-29,1,-1,1,-10,1
1449,-10,1,-6,1,4,1,8,1,-7,1,-1,1,-3,1,-12,1,1,1,-28,1,0,1,-10,1
1450,-10,1,-6,1,4,1,8,1,-7,1,-1,1,-4,1,-13,1,0,1,-27,1,0,1,-11,1
1451,-10,1,-7,1,3,1,8,1,-7,1,-2,1,-6,1,-13,1,-1,1,-27,1,0,1,-10,1
1452,-9,1,-7,1,2,1,8,1,-6,1,-3,1,-7,1,-13,1,-1,1,-26,1,-1,1,-10,1
1453,-7,1,-7,1,0,1,7,1,-4,1,-4,1,-9,1,-14,1,-2,1,-26,1,0,1,-10,1
1454,-7,1,-8,1,-1,1,7,1,-3,1,-5,1,-9,1,-14,1,-2,1,-25,1,0,1,-10,1
1455,-7,1,-7,1,0,1,7,1,-4,1,-4,1,-11,1,-14,1,-2,1,-24,1,0,1,-10,1
1456,-7,1,-8,1,-1,1,7,1,-3,1,-5,1,-11,1,-14,1,-3,1,-24,1,0,1,-9,1
1457,-8,1,-8,1,0,1,8,1,-4,1,-4,1,-13,1,-15,1,-4,1,-25,1,0,1,-10,1
1458,-8,1,-8,1,0,1,8,1,-4,1,-4,1,-13,1,-15,1,-3,1,-23,1,0,1,-9,1
1459,-8,1,-9,1,-1,1,8,1,-4,1,-5,1,-15,1,-16,1,-4,1,-23,1,0,1,-9,1
1460,-9,1,-8,1,1,1,8,1,-5,1,-4,1,-17,1,-17,1,-5,1,-23,1,1,1,-8,1
1461,-9,1,-9,1,0,1,9,1,-5,1,-5,1,-19,1,-17,1,-4,1,-22,1,1,1,-8,1
1462,-9,1,-8,1,1,1,8,1,-5,1,-4,1,-19,1,-17,1,-4,1,-20,1,1,1,-8,1
1463,-8,1,-8,1,0,1,8,1,-4,1,-4,1,-21,1,-17,1,-5,1,-20,1,1,1,-8,1
1464,-8,1,-9,1,-1,1,8,1,-4,1,-5,1,-22,1,-17,1,-4,1,-19,1,2,1,-8,1
1465,-7,1,-9,1,-2,1,8,1,-3,1,-6,1,-24,1,-18,1,-5,1,-18,1,1,1,-8,1
1466,-7,1,-9,1,-2,1,8,1,-3,1,-6,1,-25,1,-19,1,-5,1,-16,1,1,1,-8,1
1467,-7,1,-8,1,-1,1,7,1,-3,1,-5,1,-26,1,-20,1,-4,1,-16,1,1,1,-9,1
1468,-8,1,-9,1,-1,1,8,1,-4,1,-5,1,-27,1,-21,1,-5,1,-16,1,1,1,-8,1
1469,-8,1,-8,1,0,1,8,1,-4,1,-4,1,-28,1,-23,1,-5,1,-14,1,1,1,-8,1
1470,-8,1,-8,1,0,1,8,1,-4,1,-4,1,-29,1,-24,1,-4,1,-14,1,0,1,-8,1
1471,-8,1,-8,1,0,1,8,1,-4,1,-4,1,-29,1,-24,1,-3,1,-14,1,1,1,-9,1
1472,-7,1,-8,1,-1,1,7,1,-3,1,-5,1,-30,1,-24,1,-3,1,-14,1,0,1,-9,1
1473,-7,1,-9,1,-2,1,8,1,-3,1,-6,1,-30,1,-25,1,-3,1,-14,1,0,1,-8,1
1474,-7,1,-9,1,-2,1,8,1,-3,1,-6,1,-29,1,-25,1,-3,1,-14,1,0,1,-9,1
1475,-7,1,-9,1,-2,1,8,1,-3,1,-6,1,-30,1,-25,1,-4,1,-14,1,0,1,-9,1
1476,-7,1,-9,1,-2,1,8,1,-3,1,-6,1,-31,1,-26,1,-4,1,-15,1,0,1,-9,1
1477,-7,1,-10,1,-3,1,8,1,-2,1,-7,1,-31,1,-28,1,-5,1,-14,1,1,1,-9,1
1478,-8,1,-9,1,-1,1,8,1,-4,1,-5,1,-32,1,-28,1,-4,1,-13,1,1,1,-8,1
1479,-8,1,-10,1,-2,1,9,1,-3,1,-6,1,-32,1,-28,1,-5,1,-13,1,0,1,-8,1
1480,-9,1,-11,1,-2,1,10,1,-4,1,-7,1,-33,1,-30,1,-6,1,-13,1,0,1,-8,1
1481,-9,1,-10,1,-1,1,9,1,-4,1,-6,1,-32,1,-31,1,-6,1,-14,1,0,1,-8,1
1482,-9,1,-11,1,-2,1,10,1,-4,1,-7,1,-33,1,-31,1,-7,1,-15,1,-1,1,-8,1
1483,-9,1,-10,1,-1,1,9,1,-4,1,-6,1,-33,1,-32,1,-8,1,-16,1,-2,1,-9,1
1484,-9,1,-10,1,-1,1,9,1,-4,1,-6,1,-33,1,-32,1,-7,1,-15,1,-1,1,-9,1
1485,-9,1,-10,1,-1,1,9,1,-4,1,-6,1,-32,1,-33,1,-8,1,-14,1,-1,1,-9,1
1486,-10,1,-11,1,-1,1,10,1,-5,1,-6,1,-33,1,-33,1,-8,1,-14,1,-2,1,-9,1
1487,-11,1,-12,1,-1,1,11,1,-5,1,-7,1,-34,1,-34,1,-8,1,-15,1,-2,1,-9,1
1488,-11,1,-12,1,-1,1,11,1,-5,1,-7,1,-34,1,-34,1,-8,1,-13,1,-2,1,-9,1
1489,-11,1,-13,1,-2,1,12,1,-5,1,-8,1,-35,1,-35,1,-9,1,-14,1,-3,1,-9,1
1490,-12,1,-13,1,-1,1,12,1,-6,1,-7,1,-35,1,-35,1,-8,1,-14,1,-2,1,-9,1
1491,-12,1,-14,1,-2,1,13,1,-5,1,-8,1,-35,1,-35,1,-8,1,-15,1,-2,1,-10,1
1492,-12,1,-13,1,-1,1,12,1,-6,1,-7,1,-35,1,-35,1,-8,1,-14,1,-3,1,-9,1
1493,-13,1,-14,1,-1,1,13,1,-6,1,-8,1,-35,1,-35,1,-7,1,-14,1,-3,1,-9,1
1494,-14,1,-15,1,-1,1,14,1,-7,1,-8,1,-35,1,-34,1,-7,1,-15,1,-3,1,-8,1
1495,-12,1,-15,1,-3,1,13,1,-5,1,-9,1,-36,1,-35,1,-7,1,-14,1,-3,1,-8,1
1496,-12,1,-16,1,-4,1,14,1,-4,1,-10,1,-35,1,-35,1,-7,1,-13,1,-4,1,-9,1
1497,-12,1,-16,1,-4,1,14,1,-4,1,-10,1,-36,1,-36,1,-7,1,-12,1,-3,1,-9,1
1498,-12,1,-16,1,-4,1,14,1,-4,1,-10,1,-36,1,-37,1,-7,1,-12,1,-3,1,-8,1
1499,-12,1,-16,1,-4,1,14,1,-4,1,-10,1,-37,1,-37,1,-7,1,-12,1,-4,1,-9,1
1500,-12,1,-16,1,-4,1,14,1,-4,1,-10,1,-36,1,-39,1,-8,1,-11,1,-5,1,-9,1
1501,-12,1,-17,1,-5,1,14,1,-4,1,-11,1,-36,1,-39,1,-8,1,-12,1,-5,1,-10,1
1502,-12,1,-16,1,-4,1,14,1,-4,1,-10,1,-35,1,-40,1,-8,1,-12,1,-5,1,-9,1
1503,-13,1,-17,1,-4,1,15,1,-5,1,-11,1,-36,1,-40,1,-9,1,-13,1,-5,1,-9,1
1504,-14,1,-17,1,-3,1,15,1,-6,1,-10,1,-35,1,-41,1,-8,1,-12,1,-4,1,-8,1
1505,-14,1,-18,1,-4,1,16,1,-5,1,-11,1,-34,1,-41,1,-8,1,-13,1,-4,1,-9,1
1506,-15,1,-19,1,-4,1,17,1,-6,1,-12,1,-33,1,-41,1,-8,1,-14,1,-4,1,-8,1
1507,-16,1,-18,1,-2,1,17,1,-7,1,-10,1,-33,1,-42,1,-7,1,-15,1,-4,1,-8,1
1508,-16,1,-19,1,-3,1,17,1,-7,1,-11,1,-33,1,-42,1,-8,1,-14,1,-4,1,-8,1
1509,-16,1,-18,1,-2,1,17,1,-7,1,-10,1,-33,1,-43,1,-8,1,-15,1,-5,1,-8,1
1510,-16,1,-18,1,-2,1,17,1,-7,1,-10,1,-34,1,-45,1,-8,1,-15,1,-5,1,-8,1
1511,-15,1,-18,1,-3,1,16,1,-6,1,-11,1,-34,1,-45,1,-9,1,-16,1,-5,1,-8,1
1512,-15,1,-18,1,-3,1,16,1,-6,1,-11,1,-35,1,-45,1,-10,1,-16,1,-6,1,-8,1
1513,-15,1,-19,1,-4,1,17,1,-6,1,-12,1,-34,1,-45,1,-9,1,-16,1,-6,1,-9,1
1514,-15,1,-19,1,-4,1,17,1,-6,1,-12,1,-35,1,-45,1,-9,1,-16,1,-5,1,-9,1
1515,-15,1,-20,1,-5,1,17,1,-5,1,-13,1,-35,1,-44,1,-9,1,-16,1,-5,1,-8,1
1516,-15,1,-19,1,-4,1,17,1,-6,1,-12,1,-35,1,-44,1,-8,1,-15,1,-5,1,-8,1
1517,-14,1,-20,1,-6,1,17,1,-4,1,-13,1,-35,1,-44,1,-9,1,-15,1,-5,1,-9,1
1518,-14,1,-21,1,-7,1,17,1,-4,1,-14,1,-36,1,-45,1,-10,1,-14,1,-6,1,-9,1
1519,-14,1,-20,1,-6,1,17,1,-4,1,-13,1,-36,1,-45,1,-9,1,-13,1,-6,1,-8,1
1520,-15,1,-21,1,-6,1,18,1,-5,1,-14,1,-36,1,-45,1,-10,1,-12,1,-6,1,-8,1
1521,-16,1,-21,1,-5,1,18,1,-6,1,-13,1,-36,1,-46,1,-10,1,-11,1,-6,1,-8,1
1522,-16,1,-21,1,-5,1,18,1,-6,1,-13,1,-36,1,-46,1,-10,1,-11,1,-6,1,-8,1
1523,-16,1,-22,1,-6,1,19,1,-5,1,-14,1,-36,1,-46,1,-11,1,-10,1,-7,1,-7,1
1524,-16,1,-21,1,-5,1,18,1,-6,1,-13,1,-36,1,-46,1,-11,1,-8,1,-6,1,-7,1
1525,-16,1,-22,1,-6,1,19,1,-5,1,-14,1,-36,1,-46,1,-11,1,-7,1,-6,1,-7,1
1526,-17,1,-22,1,-5,1,19,1,-6,1,-14,1,-35,1,-45,1,-11,1,-6,1,-6,1,-7,1
1527,-17,1,-23,1,-6,1,20,1,-6,1,-15,1,-36,1,-44,1,-10,1,-4,1,-6,1,-6,1
1528,-17,1,-23,1,-6,1,20,1,-6,1,-15,1,-36,1,-42,1,-11,1,-3,1,-7,1,-6,1
1529,-16,1,-24,1,-8,1,20,1,-4,1,-16,1,-36,1,-42,1,-11,1,-3,1,-8,1,-7,1
1530,-16,1,-24,1,-8,1,20,1,-4,1,-16,1,-37,1,-42,1,-11,1,-3,1,-8,1,-7,1
1531,-15,1,-23,1,-8,1,19,1,-4,1,-16,1,-37,1,-42,1,-12,1,-2,1,-8,1,-7,1
1532,-15,1,-24,1,-9,1,19,1,-3,1,-17,1,-37,1,-41,1,-13,1,-2,1,-8,1,-7,1
1533,-15,1,-24,1,-9,1,19,1,-3,1,-17,1,-37,1,-42,1,-12,1,-2,1,-8,1,-7,1
1534,-16,1,-25,1,-9,1,20,1,-4,1,-17,1,-36,1,-42,1,-12,1,-2,1,-8,1,-7,1
1535,-16,1,-26,1,-10,1,21,1,-3,1,-18,1,-36,1,-43,1,-12,1,0,1,-8,1,-6,1
1536,-16,1,-26,1,-10,1,21,1,-3,1,-18,1,-36,1,-42,1,-11,1,0,1,-9,1,-6,1
1537,-17,1,-27,1,-10,1,22,1,-4,1,-19,1,-36,1,-42,1,-10,1,1,1,-8,1,-7,1
1538,-17,1,-27,1,-10,1,22,1,-4,1,-19,1,-37,1,-41,1,-9,1,1,1,-9,1,-7,1
1539,-16,1,-26,1,-10,1,21,1,-3,1,-18,1,-36,1,-41,1,-9,1,1,1,-9,1,-7,1
1540,-16,1,-26,1,-10,1,21,1,-3,1,-18,1,-36,1,-41,1,-10,1,2,1,-8,1,-6,1
1541,-17,1,-26,1,-9,1,21,1,-4,1,-18,1,-36,1,-40,1,-9,1,2,1,-8,1,-6,1
1542,-17,1,-26,1,-9,1,21,1,-4,1,-18,1,-36,1,-39,1,-8,1,2,1,-8,1,-5,1
1543,-16,1,-25,1,-9,1,20,1,-4,1,-17,1,-35,1,-40,1,-8,1,3,1,-7,1,-4,1
1544,-15,1,-25,1,-10,1,20,1,-3,1,-18,1,-35,1,-39,1,-7,1,3,1,-7,1,-4,1
1545,-15,1,-24,1,-9,1,19,1,-3,1,-17,1,-34,1,-38,1,-6,1,3,1,-7,1,-4,1
1546,-15,1,-24,1,-9,1,19,1,-3,1,-17,1,-34,1,-37,1,-6,1,4,1,-6,1,-5,1
1547,-15,1,-24,1,-9,1,19,1,-3,1,-17,1,-34,1,-36,1,-5,1,5,1,-6,1,-5,1
1548,-15,1,-23,1,-8,1,19,1,-4,1,-16,1,-33,1,-36,1,-5,1,5,1,-6,1,-4,1
1549,-15,1,-23,1,-8,1,19,1,-4,1,-16,1,-33,1,-35,1,-4,1,6,1,-5,1,-4,1
1550,-13,1,-22,1,-9,1,17,1,-2,1,-16,1,-32,1,-34,1,-4,1,6,1,-5,1,-4,1
1551,-12,1,-22,1,-10,1,17,1,-1,1,-16,1,-32,1,-34,1,-5,1,7,1,-5,1,-4,1
1552,-10,1,-22,1,-12,1,16,1,1,1,-17,1,-31,1,-33,1,-4,1,8,1,-4,1,-3,1
1553,-10,1,-20,1,-10,1,15,1,0,1,-15,1,-31,1,-33,1,-3,1,8,1,-4,1,-3,1
1554,-9,1,-20,1,-11,1,14,1,1,1,-16,1,-30,1,-31,1,-3,1,8,1,-4,1,-2,1
1555,-8,1,-20,1,-12,1,14,1,2,1,-16,1,-29,1,-31,1,-2,1,9,1,-4,1,-2,1
1556,-8,1,-20,1,-12,1,14,1,2,1,-16,1,-29,1,-30,1,-1,1,9,1,-3,1,-2,1
1557,-9,1,-21,1,-12,1,15,1,1,1,-17,1,-29,1,-30,1,-1,1,9,1,-3,1,-2,1
1558,-9,1,-21,1,-12,1,15,1,1,1,-17,1,-29,1,-29,1,1,1,10,1,-3,1,-2,1
1559,-10,1,-21,1,-11,1,15,1,0,1,-16,1,-29,1,-27,1,2,1,12,1,-1,1,-1,1
1560,-9,1,-20,1,-11,1,14,1,1,1,-16,1,-30,1,-27,1,3,1,13,1,-1,1,0,1
1561,-8,1,-20,1,-12,1,14,1,2,1,-16,1,-29,1,-26,1,5,1,14,1,-1,1,0,1
1562,-6,1,-19,1,-13,1,12,1,3,1,-16,1,-30,1,-26,1,6,1,14,1,0,1,0,1
1563,-5,1,-18,1,-13,1,11,1,4,1,-16,1,-30,1,-25,1,7,1,15,1,1,1,0,1
1564,-5,1,-18,1,-13,1,11,1,4,1,-16,1,-31,1,-25,1,8,1,15,1,1,1,1,1
1565,-4,1,-17,1,-13,1,10,1,4,1,-15,1,-33,1,-25,1,8,1,16,1,2,1,2,1
1566,-4,1,-17,1,-13,1,10,1,4,1,-15,1,-33,1,-25,1,8,1,17,1,2,1,2,1
1567,-4,1,-18,1,-14,1,11,1,5,1,-16,1,-35,1,-25,1,8,1,17,1,2,1,3,1
1568,-4,1,-18,1,-14,1,11,1,5,1,-16,1,-36,1,-26,1,8,1,17,1,1,1,3,1
1569,-4,1,-20,1,-16,1,12,1,6,1,-18,1,-37,1,-27,1,8,1,16,1,1,1,3,1
1570,-5,1,-22,1,-17,1,13,1,6,1,-20,1,-38,1,-28,1,6,1,15,1,0,1,2,1
1571,-5,1,-22,1,-17,1,13,1,6,1,-20,1,-39,1,-30,1,5,1,15,1,0,1,0,1
1572,-5,1,-24,1,-19,1,14,1,7,1,-22,1,-40,1,-31,1,4,1,14,1,-1,1,0,1
1573,-6,1,-25,1,-19,1,15,1,6,1,-22,1,-40,1,-31,1,2,1,12,1,-3,1,-1,1
1574,-7,1,-25,1,-18,1,16,1,5,1,-22,1,-41,1,-32,1,2,1,11,1,-5,1,-3,1
1575,-8,1,-26,1,-18,1,17,1,5,1,-22,1,-40,1,-33,1,0,1,9,1,-5,1,-3,1
1576,-8,1,-27,1,-19,1,17,1,5,1,-23,1,-41,1,-34,1,0,1,8,1,-7,1,-3,1
1577,-9,1,-28,1,-19,1,18,1,5,1,-24,1,-40,1,-36,1,-1,1,7,1,-7,1,-3,1
1578,-9,1,-29,1,-20,1,19,1,5,1,-25,1,-41,1,-36,1,-2,1,7,1,-7,1,-4,1
1579,-10,1,-30,1,-20,1,20,1,5,1,-25,1,-40,1,-37,1,-3,1,6,1,-7,1,-5,1
1580,-10,1,-32,1,-22,1,21,1,6,1,-27,1,-40,1,-38,1,-4,1,5,1,-7,1,-5,1
1581,-10,1,-32,1,-22,1,21,1,6,1,-27,1,-41,1,-39,1,-5,1,5,1,-8,1,-5,1
1582,-9,1,-34,1,-25,1,21,1,8,1,-30,1,-42,1,-40,1,-6,1,4,1,-8,1,-6,1
1583,-10,1,-34,1,-24,1,22,1,7,1,-29,1,-43,1,-41,1,-7,1,2,1,-10,1,-7,1
1584,-11,1,-35,1,-24,1,23,1,6,1,-30,1,-43,1,-42,1,-9,1,1,1,-11,1,-6,1
1585,-13,1,-36,1,-23,1,24,1,5,1,-30,1,-43,1,-43,1,-9,1,0,1,-12,1,-7,1
1586,-15,1,-35,1,-20,1,25,1,2,1,-28,1,-41,1,-43,1,-10,1,0,1,-12,1,-8,1
1587,-17,1,-36,1,-19,1,26,1,1,1,-28,1,-41,1,-44,1,-11,1,0,1,-13,1,-8,1
1588,-18,1,-37,1,-19,1,27,1,0,1,-28,1,-40,1,-44,1,-11,1,-1,1,-13,1,-9,1
1589,-19,1,-38,1,-19,1,28,1,0,1,-29,1,-39,1,-44,1,-11,1,-2,1,-13,1,-9,1
1590,-20,1,-39,1,-19,1,29,1,-1,1,-29,1,-39,1,-45,1,-11,1,-1,1,-13,1,-11,1
1591,-20,1,-40,1,-20,1,30,1,0,1,-30,1,-39,1,-46,1,-10,1,-2,1,-14,1,-11,1
1592,-21,1,-40,1,-19,1,30,1,-1,1,-30,1,-39,1,-47,1,-11,1,-2,1,-15,1,-12,1
1593,-21,1,-41,1,-20,1,31,1,-1,1,-31,1,-38,1,-47,1,-12,1,-2,1,-15,1,-12,1
1594,-22,1,-40,1,-18,1,31,1,-2,1,-29,1,-38,1,-47,1,-12,1,-2,1,-15,1,-13,1
1595,-22,1,-41,1,-19,1,31,1,-2,1,-30,1,-39,1,-47,1,-13,1,-3,1,-16,1,-13,1
1596,-22,1,-41,1,-19,1,31,1,-2,1,-30,1,-38,1,-48,1,-14,1,-4,1,-16,1,-13,1
1597,-23,1,-41,1,-18,1,32,1,-3,1,-30,1,-39,1,-48,1,-15,1,-5,1,-16,1,-13,1
1598,-24,1,-42,1,-18,1,33,1,-3,1,-30,1,-38,1,-47,1,-15,1,-5,1,-16,1,-14,1
1599,-24,1,-42,1,-18,1,33,1,-3,1,-30,1,-38,1,-47,1,-15,1,-5,1,-16,1,-14,1
1600,-24,1,-42,1,-18,1,33,1,-3,1,-30,1,-39,1,-48,1,-15,1,-7,1,-17,1,-14,1
1601,-23,1,-42,1,-19,1,32,1,-2,1,-31,1,-39,1,-49,1,-16,1,-6,1,-18,1,-15,1
1602,-22,1,-42,1,-20,1,32,1,-1,1,-31,1,-39,1,-49,1,-15,1,-6,1,-17,1,-16,1
1603,-22,1,-43,1,-21,1,32,1,-1,1,-32,1,-39,1,-49,1,-16,1,-6,1,-18,1,-15,1
1604,-22,1,-43,1,-21,1,32,1,-1,1,-32,1,-40,1,-49,1,-16,1,-5,1,-18,1,-16,1
1605,-23,1,-43,1,-20,1,33,1,-2,1,-32,1,-40,1,-50,1,-16,1,-4,1,-17,1,-15,1
1606,-23,1,-44,1,-21,1,33,1,-1,1,-33,1,-38,1,-50,1,-17,1,-3,1,-17,1,-15,1
1607,-24,1,-44,1,-20,1,34,1,-2,1,-32,1,-38,1,-51,1,-17,1,-3,1,-17,1,-14,1
1608,-24,1,-45,1,-21,1,34,1,-2,1,-33,1,-38,1,-52,1,-17,1,-3,1,-16,1,-15,1
1609,-24,1,-45,1,-21,1,34,1,-2,1,-33,1,-38,1,-51,1,-18,1,-3,1,-16,1,-15,1
1610,-25,1,-45,1,-20,1,35,1,-3,1,-33,1,-37,1,-51,1,-17,1,-3,1,-16,1,-16,1
1611,-26,1,-45,1,-19,1,35,1,-4,1,-32,1,-37,1,-51,1,-16,1,-3,1,-15,1,-14,1
1612,-26,1,-44,1,-18,1,35,1,-4,1,-31,1,-37,1,-51,1,-16,1,-3,1,-15,1,-14,1
1613,-26,1,-43,1,-17,1,34,1,-5,1,-30,1,-34,1,-50,1,-13,1,-2,1,-15,1,-12,1
1614,-26,1,-40,1,-14,1,33,1,-6,1,-27,1,-33,1,-47,1,-11,1,2,1,-12,1,-11,1
1615,-26,1,-36,1,-10,1,31,1,-8,1,-23,1,-30,1,-41,1,-6,1,7,1,-9,1,-8,1
1616,-26,1,-31,1,-5,1,28,1,-11,1,-18,1,-28,1,-34,1,0,1,12,1,-5,1,-5,1
1617,-26,1,-27,1,-1,1,26,1,-13,1,-14,1,-26,1,-28,1,6,1,20,1,0,1,-2,1
1618,-24,1,-24,1,0,1,24,1,-12,1,-12,1,-25,1,-21,1,14,1,26,1,4,1,1,1
1619,-19,1,-22,1,-3,1,20,1,-8,1,-13,1,-25,1,-11,1,23,1,34,1,9,1,4,1
1620,-11,1,-20,1,-9,1,15,1,-1,1,-15,1,-24,1,3,1,34,1,43,1,15,1,8,1
1621,0,1,-18,1,-18,1,9,1,9,1,-18,1,-25,1,21,1,51,1,57,1,23,1,13,1
1622,15,1,-11,1,-26,1,-2,1,20,1,-18,1,-26,1,43,1,71,1,77,1,36,1,22,1
1623,30,1,-4,1,-34,1,-13,1,32,1,-19,1,-26,1,63,1,94,1,99,1,51,1,34,1
1624,45,1,3,1,-42,1,-24,1,44,1,-19,1,-29,1,76,1,114,1,120,1,68,1,47,1
1625,60,1,11,1,-49,1,-35,1,55,1,-19,1,-31,1,82,1,128,1,139,1,83,1,60,1
1626,72,1,17,1,-55,1,-44,1,64,1,-19,1,-34,1,87,1,142,1,157,1,98,1,70,1
1627,84,1,22,1,-62,1,-53,1,73,1,-20,1,-36,1,89,1,154,1,172,1,111,1,81,1
1628,95,1,28,1,-67,1,-61,1,81,1,-19,1,-39,1,86,1,161,1,184,1,123,1,90,1
1629,106,1,29,1,-77,1,-67,1,92,1,-24,1,-43,1,76,1,163,1,191,1,131,1,95,1
1630,117,1,21,1,-96,1,-69,1,107,1,-37,1,-47,1,60,1,157,1,186,1,129,1,92,1
1631,123,1,2,1,-121,1,-62,1,122,1,-59,1,-51,1,40,1,142,1,170,1,114,1,80,1
1632,124,1,-17,1,-141,1,-53,1,132,1,-79,1,-54,1,14,1,119,1,145,1,94,1,64,1
1633,116,1,-34,1,-150,1,-41,1,133,1,-92,1,-57,1,-23,1,87,1,114,1,70,1,47,1
1634,100,1,-52,1,-152,1,-24,1,126,1,-102,1,-59,1,-66,1,45,1,73,1,40,1,25,1
1635,76,1,-73,1,-149,1,-1,1,112,1,-111,1,-61,1,-112,1,0,1,26,1,6,1,0,1
1636,44,1,-88,1,-132,1,22,1,88,1,-110,1,-62,1,-155,1,-47,1,-17,1,-25,1,-22,1
1637,9,1,-98,1,-107,1,44,1,58,1,-102,1,-63,1,-199,1,-92,1,-58,1,-52,1,-41,1
1638,-23,1,-103,1,-80,1,63,1,28,1,-92,1,-65,1,-239,1,-130,1,-94,1,-72,1,-55,1
1639,-51,1,-103,1,-52,1,77,1,0,1,-78,1,-69,1,-268,1,-159,1,-118,1,-85,1,-61,1
1640,-72,1,-100,1,-28,1,86,1,-22,1,-64,1,-72,1,-287,1,-173,1,-131,1,-89,1,-63,1
1641,-85,1,-97,1,-12,1,91,1,-37,1,-55,1,-73,1,-296,1,-180,1,-137,1,-90,1,-63,1
1642,-91,1,-97,1,-6,1,94,1,-43,1,-52,1,-76,1,-298,1,-182,1,-140,1,-91,1,-63,1
1643,-93,1,-98,1,-5,1,95,1,-44,1,-52,1,-78,1,-294,1,-180,1,-140,1,-92,1,-63,1
1644,-94,1,-100,1,-6,1,97,1,-44,1,-53,1,-79,1,-281,1,-174,1,-136,1,-89,1,-61,1
1645,-92,1,-98,1,-6,1,95,1,-43,1,-52,1,-79,1,-263,1,-166,1,-127,1,-85,1,-60,1
1646,-88,1,-95,1,-7,1,91,1,-41,1,-51,1,-78,1,-240,1,-154,1,-117,1,-80,1,-58,1
1647,-82,1,-92,1,-10,1,87,1,-36,1,-51,1,-74,1,-213,1,-140,1,-103,1,-73,1,-54,1
1648,-75,1,-86,1,-11,1,80,1,-32,1,-49,1,-69,1,-183,1,-122,1,-87,1,-65,1,-48,1
1649,-67,1,-79,1,-12,1,73,1,-28,1,-46,1,-62,1,-156,1,-102,1,-72,1,-57,1,-42,1
1650,-60,1,-74,1,-14,1,67,1,-23,1,-44,1,-56,1,-132,1,-84,1,-58,1,-48,1,-36,1
1651,-52,1,-69,1,-17,1,60,1,-18,1,-43,1,-50,1,-112,1,-66,1,-45,1,-40,1,-30,1
1652,-45,1,-63,1,-18,1,54,1,-14,1,-41,1,-44,1,-95,1,-50,1,-33,1,-34,1,-24,1
1653,-39,1,-59,1,-20,1,49,1,-10,1,-40,1,-40,1,-82,1,-39,1,-23,1,-27,1,-20,1
1654,-35,1,-56,1,-21,1,45,1,-7,1,-39,1,-37,1,-71,1,-31,1,-15,1,-23,1,-16,1
1655,-31,1,-52,1,-21,1,41,1,-5,1,-37,1,-35,1,-61,1,-26,1,-9,1,-19,1,-13,1
1656,-29,1,-51,1,-22,1,40,1,-4,1,-37,1,-35,1,-52,1,-23,1,-3,1,-14,1,-11,1
1657,-27,1,-51,1,-24,1,39,1,-2,1,-38,1,-34,1,-44,1,-21,1,0,1,-13,1,-11,1
1658,-26,1,-51,1,-25,1,38,1,-1,1,-38,1,-33,1,-40,1,-18,1,2,1,-12,1,-10,1
1659,-24,1,-51,1,-27,1,37,1,1,1,-39,1,-33,1,-36,1,-16,1,3,1,-11,1,-9,1
1660,-24,1,-52,1,-28,1,38,1,2,1,-40,1,-31,1,-34,1,-14,1,4,1,-11,1,-9,1
1661,-24,1,-52,1,-28,1,38,1,2,1,-40,1,-31,1,-33,1,-11,1,5,1,-13,1,-9,1
1662,-24,1,-51,1,-27,1,37,1,1,1,-39,1,-30,1,-32,1,-10,1,5,1,-12,1,-9,1
1663,-23,1,-51,1,-28,1,37,1,2,1,-40,1,-29,1,-31,1,-9,1,6,1,-13,1,-8,1
1664,-23,1,-51,1,-28,1,37,1,2,1,-40,1,-29,1,-30,1,-9,1,6,1,-13,1,-8,1
1665,-23,1,-50,1,-27,1,36,1,2,1,-39,1,-30,1,-27,1,-9,1,7,1,-12,1,-8,1
1666,-23,1,-50,1,-27,1,36,1,2,1,-39,1,-30,1,-26,1,-9,1,8,1,-12,1,-8,1
1667,-22,1,-50,1,-28,1,36,1,3,1,-39,1,-31,1,-24,1,-10,1,8,1,-11,1,-7,1
1668,-22,1,-49,1,-27,1,35,1,2,1,-38,1,-32,1,-23,1,-10,1,10,1,-10,1,-6,1
1669,-23,1,-49,1,-26,1,36,1,1,1,-38,1,-32,1,-22,1,-9,1,10,1,-10,1,-6,1
1670,-24,1,-49,1,-25,1,36,1,0,1,-37,1,-32,1,-22,1,-10,1,10,1,-10,1,-6,1
1671,-23,1,-49,1,-26,1,36,1,1,1,-38,1,-31,1,-22,1,-10,1,11,1,-8,1,-5,1
1672,-22,1,-48,1,-26,1,35,1,2,1,-37,1,-31,1,-21,1,-9,1,12,1,-8,1,-4,1
1673,-22,1,-48,1,-26,1,35,1,2,1,-37,1,-31,1,-21,1,-8,1,11,1,-7,1,-4,1
1674,-22,1,-48,1,-26,1,35,1,2,1,-37,1,-30,1,-20,1,-7,1,11,1,-6,1,-4,1
1675,-21,1,-47,1,-26,1,34,1,2,1,-37,1,-31,1,-19,1,-7,1,11,1,-5,1,-4,1
1676,-20,1,-47,1,-27,1,33,1,3,1,-37,1,-31,1,-18,1,-7,1,12,1,-4,1,-3,1
1677,-20,1,-47,1,-27,1,33,1,3,1,-37,1,-31,1,-18,1,-7,1,12,1,-3,1,-4,1
1678,-19,1,-47,1,-28,1,33,1,4,1,-38,1,-31,1,-16,1,-8,1,12,1,-3,1,-4,1
1679,-18,1,-46,1,-28,1,32,1,5,1,-37,1,-31,1,-15,1,-9,1,11,1,-3,1,-4,1
1680,-18,1,-46,1,-28,1,32,1,5,1,-37,1,-30,1,-14,1,-8,1,12,1,-2,1,-3,1
1681,-17,1,-46,1,-29,1,31,1,6,1,-38,1,-30,1,-13,1,-8,1,12,1,-2,1,-3,1
1682,-17,1,-45,1,-28,1,31,1,5,1,-37,1,-30,1,-13,1,-8,1,12,1,-3,1,-3,1
1683,-16,1,-45,1,-29,1,30,1,6,1,-37,1,-29,1,-12,1,-7,1,13,1,-2,1,-3,1
1684,-15,1,-46,1,-31,1,30,1,8,1,-39,1,-28,1,-11,1,-7,1,13,1,-3,1,-2,1
1685,-15,1,-46,1,-31,1,30,1,8,1,-39,1,-29,1,-10,1,-8,1,13,1,-3,1,-3,1
1686,-15,1,-45,1,-30,1,30,1,7,1,-38,1,-28,1,-9,1,-7,1,12,1,-3,1,-3,1
1687,-14,1,-44,1,-30,1,29,1,8,1,-37,1,-28,1,-9,1,-7,1,12,1,-3,1,-3,1
1688,-13,1,-44,1,-31,1,28,1,9,1,-38,1,-28,1,-8,1,-7,1,13,1,-3,1,-2,1
1689,-12,1,-44,1,-32,1,28,1,10,1,-38,1,-28,1,-7,1,-5,1,13,1,-2,1,-1,1
1690,-11,1,-42,1,-31,1,26,1,10,1,-37,1,-28,1,-6,1,-4,1,13,1,-2,1,-1,1
1691,-11,1,-42,1,-31,1,26,1,10,1,-37,1,-29,1,-5,1,-4,1,13,1,-1,1,-1,1
1692,-10,1,-42,1,-32,1,26,1,11,1,-37,1,-28,1,-4,1,-3,1,15,1,0,1,0,1
1693,-9,1,-43,1,-34,1,26,1,12,1,-39,1,-28,1,-4,1,-4,1,15,1,-1,1,0,1
1694,-9,1,-42,1,-33,1,25,1,12,1,-38,1,-29,1,-3,1,-3,1,16,1,0,1,-1,1
1695,-8,1,-42,1,-34,1,25,1,13,1,-38,1,-28,1,-1,1,-2,1,18,1,2,1,-1,1
1696,-8,1,-42,1,-34,1,25,1,13,1,-38,1,-28,1,0,1,-2,1,19,1,3,1,-1,1
1697,-8,1,-43,1,-35,1,25,1,13,1,-39,1,-29,1,0,1,-1,1,19,1,4,1,-1,1
1698,-6,1,-42,1,-36,1,24,1,15,1,-39,1,-28,1,2,1,-1,1,20,1,5,1,0,1
1699,-6,1,-43,1,-37,1,24,1,15,1,-40,1,-29,1,3,1,-1,1,21,1,6,1,0,1
1700,-5,1,-43,1,-38,1,24,1,16,1,-41,1,-29,1,3,1,0,1,22,1,6,1,1,1
1701,-4,1,-42,1,-38,1,23,1,17,1,-40,1,-29,1,4,1,0,1,24,1,7,1,2,1
1702,-4,1,-42,1,-38,1,23,1,17,1,-40,1,-29,1,4,1,0,1,25,1,7,1,2,1
1703,-4,1,-43,1,-39,1,23,1,17,1,-41,1,-29,1,5,1,1,1,28,1,7,1,2,1
1704,-3,1,-43,1,-40,1,23,1,18,1,-42,1,-28,1,5,1,3,1,29,1,8,1,4,1
1705,-2,1,-44,1,-42,1,23,1,20,1,-43,1,-28,1,6,1,3,1,30,1,8,1,4,1
1706,-1,1,-43,1,-42,1,22,1,20,1,-43,1,-29,1,7,1,4,1,31,1,9,1,4,1
1707,0,1,-43,1,-43,1,21,1,21,1,-43,1,-30,1,9,1,5,1,31,1,10,1,4,1
1708,2,1,-42,1,-44,1,20,1,23,1,-43,1,-30,1,10,1,6,1,33,1,11,1,5,1
1709,3,1,-42,1,-45,1,19,1,24,1,-43,1,-31,1,10,1,8,1,33,1,12,1,6,1
1710,4,1,-40,1,-44,1,18,1,24,1,-42,1,-31,1,11,1,9,1,34,1,13,1,6,1
1711,5,1,-40,1,-45,1,17,1,25,1,-42,1,-31,1,11,1,9,1,36,1,14,1,6,1
1712,5,1,-38,1,-43,1,16,1,24,1,-40,1,-31,1,13,1,11,1,37,1,15,1,8,1
1713,6,1,-38,1,-44,1,16,1,25,1,-41,1,-30,1,14,1,12,1,38,1,16,1,8,1
1714,7,1,-37,1,-44,1,15,1,25,1,-40,1,-30,1,16,1,13,1,39,1,17,1,9,1
1715,8,1,-36,1,-44,1,14,1,26,1,-40,1,-31,1,17,1,15,1,42,1,18,1,9,1
1716,9,1,-36,1,-45,1,13,1,27,1,-40,1,-32,1,18,1,16,1,44,1,20,1,11,1
1717,10,1,-36,1,-46,1,13,1,28,1,-41,1,-32,1,20,1,16,1,45,1,20,1,12,1
1718,11,1,-34,1,-45,1,11,1,28,1,-39,1,-32,1,21,1,18,1,47,1,21,1,12,1
1719,12,1,-33,1,-45,1,10,1,28,1,-39,1,-33,1,23,1,19,1,49,1,23,1,13,1
1720,13,1,-33,1,-46,1,10,1,29,1,-39,1,-33,1,23,1,19,1,49,1,23,1,14,1
1721,16,1,-32,1,-48,1,8,1,32,1,-40,1,-33,1,24,1,21,1,49,1,25,1,15,1
1722,18,1,-31,1,-49,1,6,1,33,1,-40,1,-34,1,25,1,22,1,51,1,26,1,16,1
1723,19,1,-30,1,-49,1,5,1,34,1,-39,1,-35,1,26,1,23,1,52,1,27,1,16,1
1724,20,1,-30,1,-50,1,5,1,35,1,-40,1,-35,1,27,1,24,1,53,1,28,1,18,1
1725,22,1,-30,1,-52,1,4,1,37,1,-41,1,-36,1,29,1,25,1,54,1,29,1,19,1
1726,23,1,-29,1,-52,1,3,1,37,1,-40,1,-36,1,31,1,27,1,57,1,31,1,20,1
1727,24,1,-28,1,-52,1,2,1,38,1,-40,1,-36,1,33,1,28,1,58,1,33,1,22,1
1728,26,1,-27,1,-53,1,0,1,39,1,-40,1,-37,1,34,1,29,1,60,1,34,1,23,1
1729,28,1,-25,1,-53,1,-1,1,40,1,-39,1,-38,1,35,1,31,1,61,1,34,1,24,1
1730,30,1,-24,1,-54,1,-3,1,42,1,-39,1,-39,1,35,1,32,1,63,1,35,1,25,1
1731,32,1,-23,1,-55,1,-4,1,43,1,-39,1,-39,1,37,1,33,1,65,1,36,1,26,1
1732,34,1,-21,1,-55,1,-6,1,44,1,-38,1,-40,1,38,1,35,1,66,1,36,1,28,1
1733,36,1,-21,1,-57,1,-7,1,46,1,-39,1,-40,1,39,1,36,1,67,1,38,1,28,1
1734,38,1,-20,1,-58,1,-9,1,48,1,-39,1,-40,1,41,1,37,1,70,1,39,1,29,1
1735,39,1,-19,1,-58,1,-10,1,48,1,-38,1,-41,1,42,1,39,1,71,1,40,1,30,1
1736,41,1,-18,1,-59,1,-11,1,50,1,-38,1,-41,1,43,1,40,1,72,1,42,1,31,1
1737,42,1,-17,1,-59,1,-12,1,50,1,-38,1,-41,1,44,1,41,1,73,1,43,1,32,1
1738,42,1,-17,1,-59,1,-12,1,50,1,-38,1,-41,1,44,1,42,1,74,1,44,1,33,1
1739,43,1,-17,1,-60,1,-13,1,51,1,-38,1,-42,1,45,1,43,1,74,1,45,1,33,1
1740,43,1,-16,1,-59,1,-13,1,51,1,-37,1,-42,1,45,1,43,1,75,1,45,1,35,1
1741,44,1,-14,1,-58,1,-15,1,51,1,-36,1,-42,1,46,1,44,1,76,1,45,1,35,1
1742,45,1,-14,1,-59,1,-15,1,52,1,-36,1,-42,1,46,1,44,1,75,1,46,1,36,1
1743,45,1,-13,1,-58,1,-16,1,51,1,-35,1,-42,1,46,1,44,1,76,1,45,1,35,1
1744,46,1,-13,1,-59,1,-16,1,52,1,-36,1,-41,1,46,1,44,1,76,1,45,1,36,1
1745,48,1,-14,1,-62,1,-17,1,55,1,-38,1,-41,1,47,1,44,1,77,1,45,1,35,1
1746,49,1,-14,1,-63,1,-17,1,56,1,-38,1,-40,1,47,1,43,1,77,1,45,1,35,1
1747,48,1,-14,1,-62,1,-17,1,55,1,-38,1,-40,1,47,1,43,1,76,1,45,1,35,1
1748,49,1,-15,1,-64,1,-17,1,56,1,-39,1,-40,1,46,1,42,1,75,1,45,1,34,1
1749,48,1,-16,1,-64,1,-16,1,56,1,-40,1,-40,1,45,1,41,1,75,1,44,1,33,1
1750,47,1,-17,1,-64,1,-15,1,55,1,-40,1,-40,1,43,1,40,1,73,1,43,1,31,1
1751,45,1,-18,1,-63,1,-13,1,54,1,-40,1,-38,1,42,1,39,1,71,1,42,1,31,1
1752,44,1,-18,1,-62,1,-13,1,53,1,-40,1,-38,1,41,1,38,1,71,1,40,1,30,1
1753,42,1,-18,1,-60,1,-12,1,51,1,-39,1,-38,1,39,1,37,1,69,1,39,1,29,1
1754,40,1,-19,1,-59,1,-10,1,49,1,-39,1,-38,1,38,1,35,1,68,1,38,1,28,1
1755,38,1,-21,1,-59,1,-8,1,48,1,-40,1,-37,1,38,1,35,1,66,1,37,1,28,1
1756,36,1,-22,1,-58,1,-7,1,47,1,-40,1,-36,1,37,1,33,1,65,1,36,1,27,1
1757,34,1,-23,1,-57,1,-5,1,45,1,-40,1,-35,1,35,1,31,1,62,1,34,1,26,1
1758,31,1,-24,1,-55,1,-3,1,43,1,-39,1,-34,1,33,1,29,1,58,1,32,1,24,1
1759,29,1,-26,1,-55,1,-1,1,42,1,-40,1,-32,1,30,1,27,1,56,1,30,1,22,1
1760,26,1,-27,1,-53,1,0,1,39,1,-40,1,-31,1,28,1,24,1,53,1,27,1,19,1
1761,22,1,-29,1,-51,1,3,1,36,1,-40,1,-29,1,25,1,23,1,50,1,25,1,16,1
1762,19,1,-32,1,-51,1,6,1,35,1,-41,1,-28,1,23,1,20,1,47,1,22,1,15,1
1763,16,1,-33,1,-49,1,8,1,32,1,-41,1,-27,1,21,1,17,1,44,1,19,1,12,1
1764,13,1,-34,1,-47,1,10,1,30,1,-40,1,-25,1,19,1,15,1,41,1,16,1,10,1
1765,11,1,-36,1,-47,1,12,1,29,1,-41,1,-23,1,17,1,12,1,38,1,14,1,8,1
1766,8,1,-38,1,-46,1,15,1,27,1,-42,1,-22,1,15,1,8,1,35,1,11,1,7,1
1767,5,1,-39,1,-44,1,17,1,24,1,-41,1,-19,1,13,1,6,1,32,1,9,1,5,1
1768,2,1,-41,1,-43,1,19,1,22,1,-42,1,-18,1,11,1,3,1,29,1,6,1,3,1
1769,0,1,-42,1,-42,1,21,1,21,1,-42,1,-17,1,7,1,1,1,26,1,4,1,1,1
1770,-3,1,-44,1,-41,1,23,1,19,1,-43,1,-16,1,5,1,0,1,24,1,2,1,0,1
1771,-6,1,-46,1,-40,1,26,1,17,1,-43,1,-14,1,3,1,-2,1,21,1,0,1,-2,1
1772,-8,1,-48,1,-40,1,28,1,16,1,-44,1,-14,1,1,1,-5,1,18,1,-1,1,-4,1
1773,-11,1,-50,1,-39,1,30,1,14,1,-45,1,-14,1,1,1,-7,1,17,1,-3,1,-6,1
1774,-13,1,-52,1,-39,1,32,1,13,1,-46,1,-14,1,0,1,-10,1,15,1,-5,1,-7,1
1775,-14,1,-53,1,-39,1,33,1,12,1,-46,1,-13,1,-2,1,-12,1,12,1,-7,1,-8,1
1776,-17,1,-54,1,-37,1,35,1,10,1,-46,1,-13,1,-4,1,-13,1,9,1,-8,1,-10,1
1777,-19,1,-56,1,-37,1,37,1,9,1,-47,1,-14,1,-7,1,-15,1,8,1,-10,1,-12,1
1778,-21,1,-57,1,-36,1,39,1,7,1,-47,1,-15,1,-9,1,-17,1,5,1,-12,1,-12,1
1779,-23,1,-58,1,-35,1,40,1,6,1,-47,1,-14,1,-10,1,-17,1,2,1,-12,1,-14,1
1780,-24,1,-59,1,-35,1,41,1,5,1,-47,1,-15,1,-12,1,-19,1,0,1,-13,1,-16,1
1781,-24,1,-61,1,-37,1,42,1,6,1,-49,1,-15,1,-14,1,-21,1,-2,1,-15,1,-17,1
1782,-25,1,-63,1,-38,1,44,1,6,1,-51,1,-15,1,-15,1,-22,1,-4,1,-16,1,-17,1
1783,-26,1,-65,1,-39,1,45,1,6,1,-52,1,-14,1,-16,1,-23,1,-6,1,-18,1,-19,1
1784,-28,1,-67,1,-39,1,47,1,5,1,-53,1,-15,1,-17,1,-25,1,-7,1,-20,1,-19,1
1785,-29,1,-68,1,-39,1,48,1,5,1,-54,1,-15,1,-18,1,-26,1,-8,1,-20,1,-20,1
1786,-30,1,-69,1,-39,1,49,1,4,1,-54,1,-16,1,-19,1,-27,1,-9,1,-21,1,-19,1
1787,-32,1,-71,1,-39,1,51,1,3,1,-55,1,-16,1,-21,1,-29,1,-9,1,-22,1,-21,1
1788,-32,1,-72,1,-40,1,52,1,4,1,-56,1,-17,1,-22,1,-30,1,-11,1,-22,1,-22,1
1789,-33,1,-72,1,-39,1,52,1,3,1,-56,1,-17,1,-22,1,-31,1,-12,1,-23,1,-23,1
1790,-34,1,-72,1,-38,1,53,1,2,1,-55,1,-18,1,-23,1,-32,1,-13,1,-23,1,-24,1
1791,-34,1,-73,1,-39,1,53,1,2,1,-56,1,-18,1,-24,1,-32,1,-13,1,-24,1,-24,1
1792,-34,1,-73,1,-39,1,53,1,2,1,-56,1,-19,1,-24,1,-33,1,-14,1,-24,1,-25,1
1793,-35,1,-73,1,-38,1,54,1,1,1,-56,1,-19,1,-25,1,-32,1,-15,1,-24,1,-25,1
1794,-34,1,-74,1,-40,1,54,1,3,1,-57,1,-19,1,-25,1,-32,1,-14,1,-25,1,-25,1
1795,-34,1,-74,1,-40,1,54,1,3,1,-57,1,-18,1,-25,1,-33,1,-15,1,-26,1,-26,1
1796,-35,1,-75,1,-40,1,55,1,2,1,-58,1,-18,1,-25,1,-34,1,-16,1,-25,1,-27,1
1797,-35,1,-74,1,-39,1,54,1,2,1,-57,1,-18,1,-25,1,-34,1,-16,1,-25,1,-27,1
1798,-34,1,-74,1,-40,1,54,1,3,1,-57,1,-19,1,-25,1,-35,1,-16,1,-26,1,-27,1
1799,-34,1,-74,1,-40,1,54,1,3,1,-57,1,-19,1,-26,1,-35,1,-17,1,-25,1,-28,1
1800,-34,1,-74,1,-40,1,54,1,3,1,-57,1,-19,1,-26,1,-35,1,-18,1,-26,1,-29,1
1801,-35,1,-75,1,-40,1,55,1,2,1,-58,1,-19,1,-27,1,-37,1,-18,1,-27,1,-29,1
1802,-34,1,-74,1,-40,1,54,1,3,1,-57,1,-20,1,-27,1,-36,1,-18,1,-27,1,-29,1
1803,-34,1,-74,1,-40,1,54,1,3,1,-57,1,-20,1,-26,1,-36,1,-18,1,-28,1,-30,1
1804,-34,1,-74,1,-40,1,54,1,3,1,-57,1,-19,1,-25,1,-36,1,-18,1,-28,1,-30,1
1805,-33,1,-74,1,-41,1,53,1,4,1,-58,1,-19,1,-24,1,-35,1,-18,1,-27,1,-29,1
