TS,I,If,II,IIf,III,IIIf,aVR,aVRf,aVL,aVLf,aVF,aVFf,V1,V1f,V2,V2f,V3,V3f,V4,V4f,V5,V5f,V6,V6f
1,-18,1,-21,1,-3,1,19,1,-8,1,-12,1,23,1,6,1,-17,1,-34,1,-31,1,-27,1
2,-19,1,-21,1,-2,1,20,1,-9,1,-12,1,22,1,6,1,-18,1,-35,1,-31,1,-27,1
3,-19,1,-21,1,-2,1,20,1,-9,1,-12,1,19,1,4,1,-18,1,-35,1,-31,1,-27,1
4,-20,1,-22,1,-2,1,21,1,-9,1,-12,1,17,1,2,1,-18,1,-36,1,-31,1,-27,1
5,-20,1,-23,1,-3,1,21,1,-9,1,-13,1,13,1,0,1,-19,1,-36,1,-30,1,-26,1
6,-19,1,-21,1,-2,1,20,1,-9,1,-12,1,9,1,-3,1,-20,1,-35,1,-28,1,-25,1
7,-17,1,-18,1,-1,1,17,1,-8,1,-10,1,6,1,-5,1,-21,1,-34,1,-27,1,-24,1
8,-14,1,-16,1,-2,1,15,1,-6,1,-9,1,5,1,-7,1,-21,1,-33,1,-26,1,-23,1
9,-12,1,-15,1,-3,1,13,1,-5,1,-9,1,4,1,-8,1,-21,1,-33,1,-27,1,-23,1
10,-12,1,-15,1,-3,1,13,1,-5,1,-9,1,3,1,-10,1,-21,1,-33,1,-28,1,-22,1
11,-11,1,-14,1,-3,1,12,1,-4,1,-9,1,2,1,-11,1,-21,1,-34,1,-28,1,-22,1
12,-9,1,-13,1,-4,1,11,1,-3,1,-9,1,2,1,-11,1,-21,1,-33,1,-28,1,-21,1
13,-8,1,-13,1,-5,1,10,1,-2,1,-9,1,2,1,-11,1,-21,1,-33,1,-27,1,-20,1
14,-8,1,-14,1,-6,1,11,1,-1,1,-10,1,3,1,-12,1,-22,1,-34,1,-29,1,-21,1
15,-9,1,-15,1,-6,1,12,1,-2,1,-11,1,3,1,-12,1,-22,1,-34,1,-29,1,-21,1
16,-6,1,-13,1,-7,1,9,1,0,1,-10,1,5,1,-11,1,-22,1,-33,1,-29,1,-22,1
17,-2,1,-12,1,-10,1,7,1,4,1,-11,1,5,1,-9,1,-22,1,-33,1,-28,1,-22,1
18,-1,1,-15,1,-14,1,8,1,6,1,-15,1,5,1,-8,1,-22,1,-33,1,-28,1,-23,1
19,-1,1,-18,1,-17,1,9,1,8,1,-18,1,5,1,-8,1,-23,1,-34,1,-27,1,-24,1
20,-3,1,-20,1,-17,1,11,1,7,1,-19,1,6,1,-8,1,-23,1,-34,1,-27,1,-24,1
21,-4,1,-20,1,-16,1,12,1,6,1,-18,1,7,1,-8,1,-23,1,-35,1,-28,1,-25,1
22,-5,1,-22,1,-17,1,13,1,6,1,-20,1,8,1,-8,1,-24,1,-35,1,-28,1,-25,1
23,-6,1,-22,1,-16,1,14,1,5,1,-19,1,8,1,-8,1,-24,1,-36,1,-29,1,-25,1
24,-8,1,-25,1,-17,1,16,1,4,1,-21,1,8,1,-9,1,-24,1,-37,1,-31,1,-27,1
25,-11,1,-29,1,-18,1,20,1,3,1,-24,1,7,1,-10,1,-27,1,-39,1,-33,1,-28,1
26,-12,1,-31,1,-19,1,21,1,3,1,-25,1,7,1,-11,1,-29,1,-41,1,-34,1,-30,1
27,-14,1,-33,1,-19,1,23,1,2,1,-26,1,8,1,-14,1,-31,1,-44,1,-35,1,-31,1
28,-17,1,-36,1,-19,1,26,1,1,1,-28,1,8,1,-16,1,-34,1,-46,1,-37,1,-33,1
29,-19,1,-39,1,-20,1,29,1,0,1,-30,1,8,1,-18,1,-36,1,-48,1,-40,1,-35,1
30,-21,1,-40,1,-19,1,30,1,-1,1,-30,1,8,1,-20,1,-37,1,-50,1,-42,1,-36,1
31,-20,1,-40,1,-20,1,30,1,0,1,-30,1,8,1,-21,1,-39,1,-52,1,-43,1,-37,1
32,-19,1,-40,1,-21,1,29,1,1,1,-31,1,9,1,-22,1,-40,1,-52,1,-43,1,-37,1
33,-19,1,-40,1,-21,1,29,1,1,1,-31,1,7,1,-22,1,-41,1,-52,1,-43,1,-37,1
34,-19,1,-40,1,-21,1,29,1,1,1,-31,1,6,1,-22,1,-41,1,-52,1,-43,1,-38,1
35,-20,1,-41,1,-21,1,30,1,0,1,-31,1,6,1,-22,1,-43,1,-53,1,-44,1,-39,1
36,-19,1,-42,1,-23,1,30,1,2,1,-33,1,6,1,-22,1,-43,1,-54,1,-45,1,-38,1
37,-18,1,-41,1,-23,1,29,1,2,1,-32,1,6,1,-22,1,-42,1,-54,1,-45,1,-39,1
38,-18,1,-40,1,-22,1,29,1,2,1,-31,1,7,1,-22,1,-42,1,-54,1,-45,1,-38,1
39,-18,1,-41,1,-23,1,29,1,2,1,-32,1,7,1,-24,1,-42,1,-54,1,-45,1,-39,1
40,-18,1,-41,1,-23,1,29,1,2,1,-32,1,6,1,-24,1,-43,1,-55,1,-46,1,-40,1
41,-19,1,-41,1,-22,1,30,1,1,1,-32,1,5,1,-24,1,-44,1,-55,1,-46,1,-41,1
42,-19,1,-43,1,-24,1,31,1,2,1,-34,1,5,1,-25,1,-44,1,-55,1,-46,1,-41,1
43,-20,1,-43,1,-23,1,31,1,1,1,-33,1,5,1,-24,1,-44,1,-55,1,-46,1,-41,1
44,-21,1,-43,1,-22,1,32,1,0,1,-33,1,5,1,-24,1,-45,1,-55,1,-46,1,-42,1
45,-21,1,-44,1,-23,1,32,1,1,1,-34,1,5,1,-24,1,-45,1,-55,1,-47,1,-41,1
46,-21,1,-44,1,-23,1,32,1,1,1,-34,1,5,1,-24,1,-46,1,-55,1,-47,1,-41,1
47,-20,1,-43,1,-23,1,31,1,1,1,-33,1,5,1,-22,1,-45,1,-54,1,-46,1,-41,1
48,-19,1,-42,1,-23,1,30,1,2,1,-33,1,6,1,-22,1,-44,1,-54,1,-46,1,-41,1
49,-19,1,-42,1,-23,1,30,1,2,1,-33,1,7,1,-21,1,-43,1,-53,1,-46,1,-42,1
50,-20,1,-43,1,-23,1,31,1,1,1,-33,1,8,1,-21,1,-42,1,-53,1,-45,1,-41,1
51,-20,1,-43,1,-23,1,31,1,1,1,-33,1,10,1,-21,1,-42,1,-53,1,-45,1,-42,1
52,-20,1,-43,1,-23,1,31,1,1,1,-33,1,11,1,-20,1,-42,1,-54,1,-44,1,-41,1
53,-19,1,-43,1,-24,1,31,1,2,1,-34,1,13,1,-19,1,-40,1,-53,1,-44,1,-41,1
54,-20,1,-42,1,-22,1,31,1,1,1,-32,1,17,1,-14,1,-38,1,-53,1,-45,1,-41,1
55,-21,1,-42,1,-21,1,31,1,0,1,-32,1,21,1,-7,1,-36,1,-52,1,-46,1,-42,1
56,-21,1,-41,1,-20,1,31,1,-1,1,-31,1,27,1,3,1,-32,1,-51,1,-47,1,-43,1
57,-20,1,-39,1,-19,1,29,1,-1,1,-29,1,35,1,17,1,-26,1,-49,1,-47,1,-44,1
58,-20,1,-38,1,-18,1,29,1,-1,1,-28,1,44,1,35,1,-17,1,-47,1,-48,1,-45,1
59,-22,1,-37,1,-15,1,29,1,-4,1,-26,1,53,1,55,1,-6,1,-43,1,-47,1,-45,1
60,-21,1,-36,1,-15,1,28,1,-3,1,-26,1,61,1,72,1,5,1,-38,1,-44,1,-43,1
61,-19,1,-33,1,-14,1,26,1,-3,1,-24,1,70,1,90,1,18,1,-30,1,-40,1,-41,1
62,-14,1,-30,1,-16,1,22,1,1,1,-23,1,76,1,106,1,30,1,-18,1,-32,1,-38,1
63,-7,1,-28,1,-21,1,17,1,7,1,-25,1,82,1,127,1,47,1,0,1,-21,1,-34,1
64,3,1,-22,1,-25,1,9,1,14,1,-23,1,88,1,152,1,68,1,23,1,-5,1,-27,1
65,16,1,-11,1,-27,1,-2,1,21,1,-19,1,94,1,179,1,95,1,56,1,17,1,-14,1
66,33,1,7,1,-26,1,-20,1,30,1,-9,1,94,1,198,1,126,1,97,1,51,1,8,1
67,49,1,31,1,-18,1,-40,1,34,1,7,1,90,1,204,1,158,1,142,1,91,1,36,1
68,66,1,60,1,-6,1,-63,1,36,1,27,1,79,1,201,1,190,1,192,1,137,1,71,1
69,82,1,95,1,13,1,-88,1,35,1,54,1,61,1,183,1,220,1,246,1,190,1,113,1
70,100,1,133,1,33,1,-116,1,34,1,83,1,34,1,148,1,247,1,302,1,246,1,157,1
71,114,1,171,1,57,1,-142,1,29,1,114,1,2,1,98,1,273,1,359,1,300,1,200,1
72,120,1,204,1,84,1,-162,1,18,1,144,1,-25,1,48,1,307,1,420,1,352,1,236,1
73,118,1,230,1,112,1,-174,1,3,1,171,1,-51,1,1,1,345,1,481,1,398,1,264,1
74,114,1,250,1,136,1,-182,1,-11,1,193,1,-77,1,-57,1,376,1,532,1,436,1,288,1
75,107,1,263,1,156,1,-185,1,-24,1,210,1,-103,1,-117,1,394,1,563,1,458,1,301,1
76,96,1,264,1,168,1,-180,1,-36,1,216,1,-123,1,-166,1,395,1,569,1,458,1,301,1
77,77,1,250,1,173,1,-163,1,-48,1,212,1,-135,1,-212,1,365,1,536,1,431,1,285,1
78,51,1,225,1,174,1,-138,1,-61,1,200,1,-138,1,-257,1,295,1,450,1,373,1,255,1
79,24,1,191,1,167,1,-107,1,-71,1,179,1,-134,1,-288,1,207,1,336,1,297,1,214,1
80,1,1,151,1,150,1,-76,1,-74,1,151,1,-128,1,-299,1,118,1,221,1,214,1,165,1
81,-18,1,108,1,126,1,-45,1,-72,1,117,1,-123,1,-302,1,39,1,115,1,136,1,117,1
82,-33,1,64,1,97,1,-15,1,-65,1,80,1,-118,1,-298,1,-22,1,28,1,64,1,65,1
83,-40,1,25,1,65,1,7,1,-52,1,45,1,-112,1,-285,1,-61,1,-32,1,7,1,19,1
84,-42,1,-2,1,40,1,22,1,-41,1,19,1,-107,1,-271,1,-84,1,-68,1,-29,1,-12,1
85,-41,1,-19,1,22,1,30,1,-32,1,1,1,-107,1,-258,1,-98,1,-89,1,-49,1,-32,1
86,-38,1,-29,1,9,1,33,1,-24,1,-10,1,-105,1,-240,1,-101,1,-99,1,-61,1,-42,1
87,-33,1,-35,1,-2,1,34,1,-16,1,-19,1,-100,1,-216,1,-96,1,-98,1,-65,1,-48,1
88,-29,1,-39,1,-10,1,34,1,-10,1,-25,1,-93,1,-188,1,-86,1,-91,1,-65,1,-50,1
89,-25,1,-40,1,-15,1,32,1,-5,1,-28,1,-85,1,-163,1,-78,1,-84,1,-62,1,-49,1
90,-22,1,-39,1,-17,1,30,1,-3,1,-28,1,-76,1,-139,1,-72,1,-78,1,-57,1,-47,1
91,-17,1,-37,1,-20,1,27,1,1,1,-29,1,-66,1,-118,1,-67,1,-72,1,-51,1,-45,1
92,-12,1,-34,1,-22,1,23,1,5,1,-28,1,-53,1,-98,1,-61,1,-66,1,-46,1,-42,1
93,-7,1,-33,1,-26,1,20,1,9,1,-30,1,-39,1,-81,1,-55,1,-61,1,-42,1,-40,1
94,-5,1,-32,1,-27,1,18,1,11,1,-30,1,-27,1,-65,1,-51,1,-57,1,-40,1,-38,1
95,-5,1,-30,1,-25,1,17,1,10,1,-28,1,-18,1,-52,1,-48,1,-54,1,-39,1,-38,1
96,-5,1,-28,1,-23,1,16,1,9,1,-26,1,-11,1,-42,1,-45,1,-51,1,-39,1,-36,1
97,-5,1,-27,1,-22,1,16,1,8,1,-25,1,-8,1,-34,1,-42,1,-49,1,-37,1,-34,1
98,-5,1,-26,1,-21,1,15,1,8,1,-24,1,-4,1,-26,1,-38,1,-46,1,-36,1,-33,1
99,-5,1,-25,1,-20,1,15,1,7,1,-23,1,-1,1,-20,1,-35,1,-44,1,-35,1,-33,1
100,-5,1,-26,1,-21,1,15,1,8,1,-24,1,1,1,-15,1,-32,1,-43,1,-35,1,-32,1
101,-4,1,-28,1,-24,1,16,1,10,1,-26,1,3,1,-12,1,-31,1,-43,1,-36,1,-32,1
102,-4,1,-28,1,-24,1,16,1,10,1,-26,1,5,1,-11,1,-31,1,-44,1,-36,1,-32,1
103,-4,1,-29,1,-25,1,16,1,10,1,-27,1,6,1,-11,1,-32,1,-45,1,-37,1,-33,1
104,-4,1,-29,1,-25,1,16,1,10,1,-27,1,7,1,-10,1,-33,1,-45,1,-37,1,-33,1
105,-5,1,-29,1,-24,1,17,1,9,1,-27,1,7,1,-10,1,-33,1,-45,1,-37,1,-32,1
106,-5,1,-29,1,-24,1,17,1,9,1,-27,1,7,1,-9,1,-34,1,-46,1,-37,1,-32,1
107,-5,1,-29,1,-24,1,17,1,9,1,-27,1,8,1,-7,1,-33,1,-46,1,-37,1,-32,1
108,-5,1,-30,1,-25,1,17,1,10,1,-28,1,8,1,-6,1,-33,1,-46,1,-37,1,-32,1
109,-5,1,-30,1,-25,1,17,1,10,1,-28,1,8,1,-4,1,-32,1,-45,1,-36,1,-32,1
110,-5,1,-29,1,-24,1,17,1,9,1,-27,1,8,1,-3,1,-33,1,-45,1,-36,1,-32,1
111,-4,1,-30,1,-26,1,17,1,11,1,-28,1,7,1,-2,1,-32,1,-45,1,-36,1,-33,1
112,-3,1,-29,1,-26,1,16,1,11,1,-28,1,7,1,0,1,-32,1,-44,1,-36,1,-33,1
113,-2,1,-27,1,-25,1,14,1,11,1,-26,1,6,1,0,1,-31,1,-43,1,-35,1,-32,1
114,-1,1,-27,1,-26,1,14,1,12,1,-27,1,6,1,1,1,-31,1,-42,1,-34,1,-31,1
115,0,1,-26,1,-26,1,13,1,13,1,-26,1,6,1,1,1,-30,1,-41,1,-32,1,-31,1
116,1,1,-24,1,-25,1,11,1,13,1,-24,1,6,1,2,1,-29,1,-42,1,-32,1,-31,1
117,3,1,-22,1,-25,1,9,1,14,1,-23,1,6,1,3,1,-29,1,-40,1,-32,1,-30,1
118,5,1,-21,1,-26,1,8,1,15,1,-23,1,6,1,3,1,-28,1,-40,1,-32,1,-30,1
119,5,1,-20,1,-25,1,7,1,15,1,-22,1,7,1,4,1,-27,1,-39,1,-31,1,-29,1
120,5,1,-20,1,-25,1,7,1,15,1,-22,1,7,1,5,1,-25,1,-38,1,-31,1,-28,1
121,5,1,-20,1,-25,1,7,1,15,1,-22,1,6,1,6,1,-25,1,-37,1,-29,1,-28,1
122,4,1,-20,1,-24,1,8,1,14,1,-22,1,5,1,6,1,-24,1,-36,1,-29,1,-27,1
123,4,1,-21,1,-25,1,8,1,14,1,-23,1,4,1,5,1,-24,1,-36,1,-30,1,-28,1
124,4,1,-22,1,-26,1,9,1,15,1,-24,1,4,1,6,1,-24,1,-35,1,-30,1,-27,1
125,3,1,-22,1,-25,1,9,1,14,1,-23,1,4,1,6,1,-23,1,-35,1,-29,1,-26,1
126,4,1,-20,1,-24,1,8,1,14,1,-22,1,3,1,8,1,-22,1,-33,1,-29,1,-24,1
127,4,1,-20,1,-24,1,8,1,14,1,-22,1,3,1,9,1,-20,1,-32,1,-28,1,-23,1
128,6,1,-19,1,-25,1,6,1,15,1,-22,1,2,1,10,1,-19,1,-31,1,-26,1,-21,1
129,7,1,-17,1,-24,1,5,1,15,1,-20,1,2,1,12,1,-18,1,-29,1,-24,1,-20,1
130,8,1,-16,1,-24,1,4,1,16,1,-20,1,3,1,14,1,-16,1,-28,1,-23,1,-19,1
131,9,1,-15,1,-24,1,3,1,16,1,-19,1,3,1,15,1,-15,1,-26,1,-22,1,-19,1
132,11,1,-14,1,-25,1,1,1,18,1,-19,1,3,1,16,1,-14,1,-25,1,-21,1,-19,1
133,12,1,-11,1,-23,1,0,1,17,1,-17,1,3,1,17,1,-13,1,-23,1,-20,1,-18,1
134,13,1,-10,1,-23,1,-1,1,18,1,-16,1,3,1,18,1,-12,1,-21,1,-18,1,-17,1
135,14,1,-9,1,-23,1,-2,1,18,1,-16,1,3,1,19,1,-11,1,-19,1,-16,1,-16,1
136,13,1,-9,1,-22,1,-2,1,17,1,-15,1,3,1,21,1,-10,1,-17,1,-15,1,-15,1
137,13,1,-9,1,-22,1,-2,1,17,1,-15,1,2,1,22,1,-9,1,-16,1,-14,1,-14,1
138,12,1,-9,1,-21,1,-1,1,16,1,-15,1,1,1,23,1,-8,1,-14,1,-13,1,-13,1
139,12,1,-9,1,-21,1,-1,1,16,1,-15,1,0,1,24,1,-6,1,-13,1,-12,1,-13,1
140,12,1,-8,1,-20,1,-2,1,16,1,-14,1,0,1,24,1,-5,1,-12,1,-11,1,-12,1
141,13,1,-7,1,-20,1,-3,1,16,1,-13,1,-1,1,26,1,-4,1,-10,1,-9,1,-11,1
142,14,1,-7,1,-21,1,-3,1,17,1,-14,1,-1,1,27,1,-2,1,-7,1,-7,1,-10,1
143,15,1,-5,1,-20,1,-5,1,17,1,-12,1,-1,1,29,1,0,1,-5,1,-5,1,-8,1
144,18,1,-2,1,-20,1,-8,1,19,1,-11,1,-1,1,30,1,2,1,-2,1,-3,1,-6,1
145,19,1,-1,1,-20,1,-9,1,19,1,-10,1,-3,1,32,1,3,1,0,1,0,1,-5,1
146,20,1,0,1,-20,1,-10,1,20,1,-10,1,-4,1,34,1,6,1,3,1,3,1,-2,1
147,20,1,2,1,-18,1,-11,1,19,1,-8,1,-5,1,36,1,9,1,7,1,5,1,0,1
148,22,1,4,1,-18,1,-13,1,20,1,-7,1,-6,1,38,1,11,1,10,1,7,1,2,1
149,24,1,6,1,-18,1,-15,1,21,1,-6,1,-7,1,41,1,13,1,13,1,10,1,4,1
150,25,1,8,1,-17,1,-16,1,21,1,-4,1,-9,1,43,1,16,1,16,1,12,1,7,1
151,27,1,10,1,-17,1,-18,1,22,1,-3,1,-10,1,46,1,18,1,19,1,16,1,8,1
152,30,1,12,1,-18,1,-21,1,24,1,-3,1,-10,1,49,1,20,1,23,1,19,1,11,1
153,32,1,15,1,-17,1,-23,1,25,1,-1,1,-12,1,51,1,22,1,26,1,22,1,13,1
154,34,1,17,1,-17,1,-25,1,26,1,0,1,-13,1,51,1,23,1,29,1,25,1,16,1
155,35,1,19,1,-16,1,-27,1,26,1,2,1,-16,1,54,1,25,1,30,1,27,1,17,1
156,35,1,21,1,-14,1,-28,1,25,1,4,1,-17,1,57,1,27,1,33,1,30,1,20,1
157,37,1,24,1,-13,1,-30,1,25,1,6,1,-19,1,60,1,29,1,37,1,35,1,23,1
158,39,1,26,1,-13,1,-32,1,26,1,7,1,-21,1,62,1,31,1,41,1,39,1,26,1
159,39,1,27,1,-12,1,-33,1,26,1,8,1,-23,1,64,1,32,1,44,1,41,1,29,1
160,40,1,29,1,-11,1,-34,1,26,1,9,1,-25,1,65,1,33,1,46,1,44,1,31,1
161,43,1,33,1,-10,1,-38,1,27,1,12,1,-26,1,67,1,34,1,49,1,46,1,34,1
162,44,1,33,1,-11,1,-38,1,28,1,11,1,-28,1,68,1,35,1,50,1,48,1,35,1
163,44,1,33,1,-11,1,-38,1,28,1,11,1,-30,1,69,1,35,1,52,1,50,1,37,1
164,48,1,38,1,-10,1,-43,1,29,1,14,1,-31,1,70,1,36,1,55,1,53,1,40,1
165,54,1,43,1,-11,1,-48,1,33,1,16,1,-31,1,71,1,37,1,56,1,56,1,43,1
166,55,1,45,1,-10,1,-50,1,33,1,18,1,-32,1,71,1,36,1,57,1,58,1,45,1
167,56,1,46,1,-10,1,-51,1,33,1,18,1,-34,1,72,1,35,1,58,1,59,1,46,1
168,57,1,46,1,-11,1,-51,1,34,1,18,1,-36,1,71,1,34,1,59,1,60,1,48,1
169,56,1,46,1,-10,1,-51,1,33,1,18,1,-37,1,72,1,33,1,59,1,60,1,49,1
170,55,1,46,1,-9,1,-50,1,32,1,19,1,-37,1,72,1,32,1,60,1,62,1,51,1
171,54,1,46,1,-8,1,-50,1,31,1,19,1,-37,1,71,1,30,1,61,1,63,1,52,1
172,53,1,45,1,-8,1,-49,1,31,1,19,1,-38,1,71,1,27,1,60,1,64,1,53,1
173,54,1,44,1,-10,1,-49,1,32,1,17,1,-39,1,70,1,25,1,60,1,64,1,53,1
174,54,1,45,1,-9,1,-49,1,32,1,18,1,-39,1,70,1,23,1,57,1,64,1,53,1
175,55,1,45,1,-10,1,-50,1,33,1,18,1,-40,1,68,1,22,1,56,1,63,1,53,1
176,55,1,45,1,-10,1,-50,1,33,1,18,1,-40,1,66,1,20,1,55,1,63,1,52,1
177,54,1,44,1,-10,1,-49,1,32,1,17,1,-41,1,65,1,18,1,53,1,62,1,52,1
178,53,1,44,1,-9,1,-48,1,31,1,18,1,-40,1,63,1,15,1,51,1,60,1,51,1
179,53,1,44,1,-9,1,-48,1,31,1,18,1,-39,1,61,1,12,1,49,1,58,1,50,1
180,52,1,43,1,-9,1,-47,1,31,1,17,1,-38,1,59,1,10,1,46,1,55,1,48,1
181,50,1,42,1,-8,1,-46,1,29,1,17,1,-38,1,57,1,7,1,43,1,53,1,46,1
182,48,1,40,1,-8,1,-44,1,28,1,16,1,-37,1,55,1,4,1,40,1,52,1,44,1
183,46,1,37,1,-9,1,-41,1,28,1,14,1,-35,1,53,1,1,1,36,1,49,1,41,1
184,43,1,33,1,-10,1,-38,1,27,1,12,1,-33,1,50,1,-1,1,33,1,46,1,37,1
185,40,1,29,1,-11,1,-34,1,26,1,9,1,-31,1,48,1,-3,1,29,1,42,1,34,1
186,37,1,26,1,-11,1,-31,1,24,1,8,1,-29,1,46,1,-6,1,25,1,37,1,31,1
187,36,1,22,1,-14,1,-29,1,25,1,4,1,-27,1,43,1,-8,1,20,1,32,1,27,1
188,34,1,21,1,-13,1,-27,1,24,1,4,1,-24,1,41,1,-10,1,16,1,28,1,24,1
189,32,1,18,1,-14,1,-25,1,23,1,2,1,-21,1,37,1,-12,1,11,1,22,1,20,1
190,29,1,15,1,-14,1,-22,1,22,1,1,1,-18,1,35,1,-15,1,6,1,18,1,17,1
191,24,1,11,1,-13,1,-17,1,19,1,-1,1,-15,1,33,1,-17,1,2,1,13,1,12,1
192,20,1,8,1,-12,1,-14,1,16,1,-2,1,-13,1,31,1,-20,1,-2,1,10,1,9,1
193,18,1,5,1,-13,1,-11,1,16,1,-4,1,-10,1,28,1,-22,1,-7,1,6,1,7,1
194,16,1,2,1,-14,1,-9,1,15,1,-6,1,-9,1,26,1,-23,1,-10,1,2,1,3,1
195,12,1,0,1,-12,1,-6,1,12,1,-6,1,-6,1,23,1,-24,1,-13,1,-1,1,0,1
196,10,1,-3,1,-13,1,-3,1,11,1,-8,1,-4,1,21,1,-25,1,-15,1,-4,1,-2,1
197,8,1,-5,1,-13,1,-1,1,10,1,-9,1,-3,1,18,1,-25,1,-18,1,-8,1,-5,1
198,7,1,-8,1,-15,1,0,1,11,1,-11,1,-1,1,16,1,-27,1,-21,1,-13,1,-8,1
199,6,1,-9,1,-15,1,1,1,10,1,-12,1,0,1,14,1,-27,1,-24,1,-17,1,-11,1
200,4,1,-11,1,-15,1,3,1,9,1,-13,1,2,1,11,1,-27,1,-27,1,-19,1,-14,1
201,2,1,-13,1,-15,1,5,1,8,1,-14,1,3,1,9,1,-28,1,-29,1,-21,1,-17,1
202,2,1,-13,1,-15,1,5,1,8,1,-14,1,5,1,7,1,-28,1,-31,1,-24,1,-18,1
203,1,1,-13,1,-14,1,6,1,7,1,-13,1,6,1,5,1,-28,1,-34,1,-26,1,-20,1
204,0,1,-14,1,-14,1,7,1,7,1,-14,1,7,1,3,1,-28,1,-35,1,-27,1,-20,1
205,-1,1,-15,1,-14,1,8,1,6,1,-15,1,8,1,1,1,-30,1,-37,1,-29,1,-22,1
206,-2,1,-16,1,-14,1,9,1,6,1,-15,1,8,1,0,1,-31,1,-38,1,-30,1,-23,1
207,-2,1,-17,1,-15,1,9,1,6,1,-16,1,8,1,-2,1,-31,1,-39,1,-31,1,-24,1
208,-3,1,-18,1,-15,1,10,1,6,1,-17,1,9,1,-3,1,-32,1,-40,1,-32,1,-25,1
209,-3,1,-19,1,-16,1,11,1,6,1,-18,1,9,1,-5,1,-32,1,-41,1,-33,1,-25,1
210,-4,1,-21,1,-17,1,12,1,6,1,-19,1,9,1,-6,1,-32,1,-43,1,-35,1,-27,1
211,-5,1,-23,1,-18,1,14,1,6,1,-21,1,9,1,-7,1,-32,1,-44,1,-37,1,-28,1
212,-4,1,-22,1,-18,1,13,1,7,1,-20,1,9,1,-8,1,-32,1,-44,1,-37,1,-30,1
213,-4,1,-22,1,-18,1,13,1,7,1,-20,1,9,1,-8,1,-32,1,-46,1,-38,1,-29,1
214,-6,1,-24,1,-18,1,15,1,6,1,-21,1,8,1,-9,1,-32,1,-47,1,-39,1,-30,1
215,-8,1,-24,1,-16,1,16,1,4,1,-20,1,8,1,-10,1,-32,1,-47,1,-39,1,-31,1
216,-6,1,-23,1,-17,1,14,1,5,1,-20,1,9,1,-11,1,-31,1,-47,1,-38,1,-30,1
217,-5,1,-22,1,-17,1,13,1,6,1,-20,1,10,1,-11,1,-31,1,-47,1,-38,1,-31,1
218,-5,1,-23,1,-18,1,14,1,6,1,-21,1,10,1,-12,1,-33,1,-47,1,-38,1,-30,1
219,-6,1,-24,1,-18,1,15,1,6,1,-21,1,9,1,-13,1,-34,1,-48,1,-39,1,-32,1
220,-6,1,-26,1,-20,1,16,1,7,1,-23,1,9,1,-14,1,-34,1,-48,1,-39,1,-32,1
221,-4,1,-24,1,-20,1,14,1,8,1,-22,1,10,1,-14,1,-34,1,-47,1,-40,1,-32,1
222,-3,1,-23,1,-20,1,13,1,8,1,-22,1,9,1,-15,1,-34,1,-47,1,-40,1,-31,1
223,-5,1,-23,1,-18,1,14,1,6,1,-21,1,9,1,-15,1,-34,1,-49,1,-41,1,-32,1
224,-7,1,-26,1,-19,1,16,1,6,1,-23,1,10,1,-16,1,-35,1,-49,1,-40,1,-33,1
225,-8,1,-27,1,-19,1,17,1,5,1,-23,1,10,1,-16,1,-35,1,-49,1,-41,1,-33,1
226,-8,1,-26,1,-18,1,17,1,5,1,-22,1,10,1,-16,1,-35,1,-49,1,-41,1,-33,1
227,-8,1,-26,1,-18,1,17,1,5,1,-22,1,10,1,-16,1,-35,1,-49,1,-41,1,-33,1
228,-8,1,-27,1,-19,1,17,1,5,1,-23,1,10,1,-16,1,-35,1,-48,1,-42,1,-34,1
229,-7,1,-27,1,-20,1,17,1,6,1,-24,1,10,1,-16,1,-35,1,-48,1,-42,1,-33,1
230,-8,1,-27,1,-19,1,17,1,5,1,-23,1,9,1,-16,1,-36,1,-48,1,-41,1,-34,1
231,-7,1,-27,1,-20,1,17,1,6,1,-24,1,9,1,-16,1,-36,1,-48,1,-41,1,-33,1
232,-7,1,-27,1,-20,1,17,1,6,1,-24,1,9,1,-16,1,-36,1,-49,1,-41,1,-33,1
233,-7,1,-27,1,-20,1,17,1,6,1,-24,1,9,1,-16,1,-35,1,-48,1,-40,1,-33,1
234,-8,1,-27,1,-19,1,17,1,5,1,-23,1,10,1,-15,1,-35,1,-48,1,-40,1,-32,1
235,-8,1,-27,1,-19,1,17,1,5,1,-23,1,10,1,-14,1,-34,1,-46,1,-40,1,-32,1
236,-7,1,-26,1,-19,1,16,1,6,1,-23,1,10,1,-14,1,-33,1,-46,1,-39,1,-31,1
237,-8,1,-26,1,-18,1,17,1,5,1,-22,1,10,1,-14,1,-32,1,-45,1,-39,1,-32,1
238,-9,1,-27,1,-18,1,18,1,4,1,-23,1,10,1,-14,1,-32,1,-45,1,-39,1,-31,1
239,-9,1,-27,1,-18,1,18,1,4,1,-23,1,10,1,-13,1,-31,1,-45,1,-39,1,-31,1
240,-8,1,-28,1,-20,1,18,1,6,1,-24,1,10,1,-13,1,-31,1,-45,1,-39,1,-31,1
241,-8,1,-29,1,-21,1,18,1,6,1,-25,1,10,1,-12,1,-29,1,-45,1,-39,1,-31,1
242,-7,1,-29,1,-22,1,18,1,7,1,-26,1,11,1,-11,1,-28,1,-44,1,-38,1,-31,1
243,-7,1,-27,1,-20,1,17,1,6,1,-24,1,11,1,-10,1,-27,1,-43,1,-38,1,-30,1
244,-6,1,-28,1,-22,1,17,1,8,1,-25,1,10,1,-10,1,-27,1,-42,1,-38,1,-31,1
245,-7,1,-29,1,-22,1,18,1,7,1,-26,1,10,1,-9,1,-27,1,-41,1,-38,1,-31,1
246,-8,1,-28,1,-20,1,18,1,6,1,-24,1,10,1,-10,1,-26,1,-40,1,-38,1,-31,1
247,-8,1,-28,1,-20,1,18,1,6,1,-24,1,10,1,-10,1,-26,1,-40,1,-37,1,-30,1
248,-8,1,-29,1,-21,1,18,1,6,1,-25,1,10,1,-9,1,-26,1,-40,1,-36,1,-30,1
249,-8,1,-28,1,-20,1,18,1,6,1,-24,1,11,1,-9,1,-27,1,-40,1,-34,1,-29,1
250,-8,1,-28,1,-20,1,18,1,6,1,-24,1,12,1,-9,1,-26,1,-40,1,-33,1,-29,1
251,-9,1,-28,1,-19,1,18,1,5,1,-24,1,11,1,-9,1,-26,1,-40,1,-33,1,-28,1
252,-10,1,-29,1,-19,1,19,1,4,1,-24,1,11,1,-9,1,-27,1,-40,1,-33,1,-29,1
253,-11,1,-30,1,-19,1,20,1,4,1,-25,1,11,1,-8,1,-26,1,-40,1,-34,1,-28,1
254,-12,1,-30,1,-18,1,21,1,3,1,-24,1,11,1,-8,1,-25,1,-40,1,-35,1,-28,1
255,-12,1,-31,1,-19,1,21,1,3,1,-25,1,11,1,-8,1,-24,1,-39,1,-35,1,-28,1
256,-9,1,-29,1,-20,1,19,1,5,1,-25,1,11,1,-7,1,-24,1,-39,1,-35,1,-27,1
257,-9,1,-28,1,-19,1,18,1,5,1,-24,1,10,1,-5,1,-23,1,-38,1,-35,1,-27,1
258,-8,1,-27,1,-19,1,17,1,5,1,-23,1,10,1,-5,1,-22,1,-37,1,-36,1,-27,1
259,-6,1,-25,1,-19,1,15,1,6,1,-22,1,11,1,-5,1,-21,1,-37,1,-37,1,-27,1
260,-6,1,-24,1,-18,1,15,1,6,1,-21,1,11,1,-5,1,-21,1,-36,1,-38,1,-26,1
261,-7,1,-24,1,-17,1,15,1,5,1,-21,1,11,1,-4,1,-20,1,-36,1,-37,1,-28,1
262,-6,1,-24,1,-18,1,15,1,6,1,-21,1,11,1,-4,1,-19,1,-36,1,-36,1,-27,1
263,-4,1,-24,1,-20,1,14,1,8,1,-22,1,12,1,-5,1,-19,1,-35,1,-36,1,-28,1
264,-4,1,-23,1,-19,1,13,1,7,1,-21,1,12,1,-5,1,-19,1,-35,1,-35,1,-27,1
265,-4,1,-23,1,-19,1,13,1,7,1,-21,1,13,1,-4,1,-19,1,-34,1,-35,1,-27,1
266,-3,1,-23,1,-20,1,13,1,8,1,-22,1,13,1,-4,1,-19,1,-34,1,-35,1,-26,1
267,-2,1,-23,1,-21,1,12,1,9,1,-22,1,12,1,-4,1,-19,1,-34,1,-34,1,-25,1
268,-2,1,-22,1,-20,1,12,1,9,1,-21,1,12,1,-3,1,-19,1,-34,1,-34,1,-26,1
269,-5,1,-25,1,-20,1,15,1,7,1,-23,1,11,1,-3,1,-19,1,-34,1,-35,1,-26,1
270,-8,1,-27,1,-19,1,17,1,5,1,-23,1,10,1,-4,1,-20,1,-36,1,-35,1,-27,1
271,-7,1,-26,1,-19,1,16,1,6,1,-23,1,10,1,-5,1,-19,1,-36,1,-35,1,-26,1
272,-5,1,-25,1,-20,1,15,1,7,1,-23,1,10,1,-5,1,-20,1,-36,1,-35,1,-27,1
273,-5,1,-25,1,-20,1,15,1,7,1,-23,1,10,1,-6,1,-20,1,-36,1,-35,1,-27,1
274,-4,1,-25,1,-21,1,14,1,8,1,-23,1,10,1,-6,1,-21,1,-36,1,-34,1,-27,1
275,-3,1,-24,1,-21,1,13,1,9,1,-23,1,10,1,-6,1,-21,1,-37,1,-34,1,-27,1
276,-3,1,-24,1,-21,1,13,1,9,1,-23,1,10,1,-7,1,-22,1,-37,1,-34,1,-27,1
277,-4,1,-24,1,-20,1,14,1,8,1,-22,1,10,1,-7,1,-22,1,-37,1,-35,1,-26,1
278,-4,1,-24,1,-20,1,14,1,8,1,-22,1,11,1,-7,1,-23,1,-37,1,-35,1,-26,1
279,-5,1,-24,1,-19,1,14,1,7,1,-22,1,11,1,-8,1,-23,1,-37,1,-36,1,-26,1
280,-6,1,-26,1,-20,1,16,1,7,1,-23,1,12,1,-8,1,-24,1,-38,1,-36,1,-27,1
281,-6,1,-26,1,-20,1,16,1,7,1,-23,1,11,1,-8,1,-25,1,-38,1,-35,1,-27,1
282,-6,1,-26,1,-20,1,16,1,7,1,-23,1,11,1,-10,1,-25,1,-39,1,-36,1,-27,1
283,-4,1,-26,1,-22,1,15,1,9,1,-24,1,10,1,-10,1,-24,1,-38,1,-35,1,-26,1
284,-3,1,-25,1,-22,1,14,1,9,1,-24,1,11,1,-10,1,-24,1,-38,1,-35,1,-26,1
285,-3,1,-26,1,-23,1,14,1,10,1,-25,1,10,1,-10,1,-24,1,-38,1,-35,1,-27,1
286,-4,1,-26,1,-22,1,15,1,9,1,-24,1,10,1,-10,1,-25,1,-39,1,-36,1,-27,1
287,-5,1,-27,1,-22,1,16,1,8,1,-25,1,11,1,-10,1,-24,1,-38,1,-35,1,-27,1
288,-6,1,-27,1,-21,1,16,1,7,1,-24,1,11,1,-10,1,-25,1,-38,1,-35,1,-27,1
289,-6,1,-27,1,-21,1,16,1,7,1,-24,1,11,1,-10,1,-25,1,-38,1,-34,1,-27,1
290,-5,1,-26,1,-21,1,15,1,8,1,-24,1,11,1,-10,1,-25,1,-38,1,-34,1,-27,1
291,-3,1,-25,1,-22,1,14,1,9,1,-24,1,11,1,-10,1,-25,1,-38,1,-33,1,-27,1
292,-3,1,-25,1,-22,1,14,1,9,1,-24,1,11,1,-10,1,-25,1,-38,1,-33,1,-27,1
293,-4,1,-25,1,-21,1,14,1,8,1,-23,1,11,1,-11,1,-25,1,-37,1,-33,1,-26,1
294,-5,1,-24,1,-19,1,14,1,7,1,-22,1,11,1,-11,1,-25,1,-37,1,-32,1,-26,1
295,-5,1,-24,1,-19,1,14,1,7,1,-22,1,11,1,-11,1,-27,1,-37,1,-32,1,-26,1
296,-4,1,-23,1,-19,1,13,1,7,1,-21,1,11,1,-11,1,-27,1,-37,1,-32,1,-25,1
297,-5,1,-21,1,-16,1,13,1,5,1,-19,1,11,1,-10,1,-25,1,-37,1,-31,1,-25,1
298,-4,1,-18,1,-14,1,11,1,5,1,-16,1,13,1,-9,1,-24,1,-36,1,-30,1,-24,1
299,-4,1,-17,1,-13,1,10,1,4,1,-15,1,15,1,-8,1,-22,1,-36,1,-30,1,-24,1
300,-2,1,-16,1,-14,1,9,1,6,1,-15,1,17,1,-7,1,-21,1,-35,1,-31,1,-23,1
301,-2,1,-15,1,-13,1,8,1,5,1,-14,1,20,1,-6,1,-20,1,-35,1,-32,1,-23,1
302,-1,1,-14,1,-13,1,7,1,6,1,-14,1,21,1,-4,1,-19,1,-35,1,-32,1,-22,1
303,0,1,-13,1,-13,1,6,1,6,1,-13,1,22,1,-3,1,-19,1,-34,1,-32,1,-22,1
304,0,1,-12,1,-12,1,6,1,6,1,-12,1,22,1,-3,1,-20,1,-33,1,-32,1,-21,1
305,2,1,-11,1,-13,1,4,1,7,1,-12,1,22,1,-3,1,-19,1,-33,1,-30,1,-21,1
306,3,1,-10,1,-13,1,3,1,8,1,-11,1,20,1,-3,1,-19,1,-33,1,-31,1,-21,1
307,3,1,-11,1,-14,1,4,1,8,1,-12,1,18,1,-4,1,-19,1,-34,1,-31,1,-21,1
308,3,1,-11,1,-14,1,4,1,8,1,-12,1,15,1,-5,1,-19,1,-34,1,-31,1,-21,1
309,4,1,-9,1,-13,1,2,1,8,1,-11,1,10,1,-8,1,-20,1,-35,1,-31,1,-21,1
310,3,1,-9,1,-12,1,3,1,7,1,-10,1,6,1,-12,1,-20,1,-35,1,-31,1,-21,1
311,2,1,-9,1,-11,1,3,1,6,1,-10,1,2,1,-15,1,-21,1,-36,1,-32,1,-21,1
312,2,1,-11,1,-13,1,4,1,7,1,-12,1,0,1,-17,1,-23,1,-37,1,-33,1,-21,1
313,2,1,-10,1,-12,1,4,1,7,1,-11,1,-1,1,-19,1,-24,1,-36,1,-31,1,-21,1
314,4,1,-10,1,-14,1,3,1,9,1,-12,1,-1,1,-19,1,-24,1,-36,1,-30,1,-19,1
315,2,1,-11,1,-13,1,4,1,7,1,-12,1,-3,1,-21,1,-25,1,-37,1,-30,1,-19,1
316,2,1,-12,1,-14,1,5,1,8,1,-13,1,-3,1,-21,1,-26,1,-37,1,-30,1,-18,1
317,2,1,-12,1,-14,1,5,1,8,1,-13,1,-3,1,-22,1,-27,1,-37,1,-31,1,-18,1
318,1,1,-12,1,-13,1,5,1,7,1,-12,1,-2,1,-21,1,-27,1,-37,1,-31,1,-18,1
319,2,1,-12,1,-14,1,5,1,8,1,-13,1,-1,1,-20,1,-27,1,-37,1,-32,1,-19,1
320,2,1,-12,1,-14,1,5,1,8,1,-13,1,0,1,-19,1,-27,1,-37,1,-32,1,-18,1
321,4,1,-12,1,-16,1,4,1,10,1,-14,1,1,1,-18,1,-27,1,-37,1,-32,1,-19,1
322,6,1,-13,1,-19,1,3,1,12,1,-16,1,2,1,-16,1,-27,1,-37,1,-31,1,-18,1
323,8,1,-14,1,-22,1,3,1,15,1,-18,1,2,1,-16,1,-27,1,-36,1,-31,1,-19,1
324,9,1,-14,1,-23,1,2,1,16,1,-18,1,3,1,-15,1,-27,1,-36,1,-31,1,-18,1
325,8,1,-15,1,-23,1,3,1,15,1,-19,1,3,1,-16,1,-27,1,-36,1,-31,1,-19,1
326,7,1,-17,1,-24,1,5,1,15,1,-20,1,3,1,-16,1,-27,1,-37,1,-32,1,-19,1
327,6,1,-19,1,-25,1,6,1,15,1,-22,1,4,1,-16,1,-28,1,-37,1,-32,1,-21,1
328,4,1,-21,1,-25,1,8,1,14,1,-23,1,4,1,-17,1,-29,1,-40,1,-33,1,-21,1
329,1,1,-23,1,-24,1,11,1,12,1,-23,1,4,1,-19,1,-31,1,-41,1,-36,1,-23,1
330,-2,1,-25,1,-23,1,13,1,10,1,-24,1,4,1,-20,1,-32,1,-43,1,-37,1,-24,1
331,-4,1,-27,1,-23,1,15,1,9,1,-25,1,4,1,-22,1,-35,1,-45,1,-39,1,-25,1
332,-6,1,-29,1,-23,1,17,1,8,1,-26,1,4,1,-23,1,-37,1,-46,1,-42,1,-26,1
333,-7,1,-30,1,-23,1,18,1,8,1,-27,1,4,1,-24,1,-38,1,-48,1,-44,1,-27,1
334,-7,1,-32,1,-25,1,19,1,9,1,-29,1,4,1,-25,1,-39,1,-50,1,-45,1,-28,1
335,-7,1,-32,1,-25,1,19,1,9,1,-29,1,4,1,-26,1,-40,1,-52,1,-45,1,-30,1
336,-8,1,-35,1,-27,1,21,1,9,1,-31,1,3,1,-27,1,-41,1,-54,1,-46,1,-31,1
337,-9,1,-36,1,-27,1,22,1,9,1,-32,1,4,1,-28,1,-42,1,-54,1,-46,1,-33,1
338,-8,1,-37,1,-29,1,22,1,10,1,-33,1,4,1,-28,1,-42,1,-55,1,-47,1,-33,1
339,-7,1,-37,1,-30,1,22,1,11,1,-34,1,4,1,-29,1,-43,1,-55,1,-47,1,-33,1
340,-7,1,-36,1,-29,1,21,1,11,1,-33,1,4,1,-30,1,-44,1,-55,1,-48,1,-33,1
341,-7,1,-35,1,-28,1,21,1,10,1,-32,1,3,1,-29,1,-44,1,-56,1,-48,1,-33,1
342,-7,1,-35,1,-28,1,21,1,10,1,-32,1,3,1,-29,1,-44,1,-56,1,-49,1,-33,1
343,-8,1,-35,1,-27,1,21,1,9,1,-31,1,3,1,-29,1,-44,1,-56,1,-49,1,-34,1
344,-8,1,-35,1,-27,1,21,1,9,1,-31,1,2,1,-29,1,-44,1,-56,1,-49,1,-34,1
345,-8,1,-35,1,-27,1,21,1,9,1,-31,1,2,1,-29,1,-44,1,-56,1,-49,1,-35,1
346,-9,1,-36,1,-27,1,22,1,9,1,-32,1,1,1,-29,1,-45,1,-56,1,-49,1,-35,1
347,-10,1,-37,1,-27,1,23,1,8,1,-32,1,1,1,-29,1,-45,1,-56,1,-49,1,-36,1
348,-10,1,-36,1,-26,1,23,1,8,1,-31,1,2,1,-29,1,-45,1,-55,1,-49,1,-36,1
349,-10,1,-36,1,-26,1,23,1,8,1,-31,1,3,1,-29,1,-46,1,-55,1,-49,1,-37,1
350,-10,1,-37,1,-27,1,23,1,8,1,-32,1,3,1,-29,1,-46,1,-55,1,-49,1,-36,1
351,-10,1,-37,1,-27,1,23,1,8,1,-32,1,4,1,-29,1,-45,1,-55,1,-49,1,-37,1
352,-11,1,-37,1,-26,1,24,1,7,1,-32,1,4,1,-29,1,-45,1,-54,1,-50,1,-37,1
353,-11,1,-37,1,-26,1,24,1,7,1,-32,1,4,1,-29,1,-45,1,-55,1,-49,1,-37,1
354,-11,1,-37,1,-26,1,24,1,7,1,-32,1,4,1,-29,1,-45,1,-55,1,-50,1,-36,1
355,-12,1,-38,1,-26,1,25,1,7,1,-32,1,4,1,-28,1,-45,1,-55,1,-50,1,-37,1
356,-12,1,-37,1,-25,1,24,1,6,1,-31,1,5,1,-26,1,-43,1,-55,1,-49,1,-36,1
357,-12,1,-37,1,-25,1,24,1,6,1,-31,1,8,1,-24,1,-42,1,-54,1,-50,1,-37,1
358,-13,1,-37,1,-24,1,25,1,5,1,-31,1,12,1,-18,1,-39,1,-54,1,-51,1,-37,1
359,-15,1,-37,1,-22,1,26,1,3,1,-30,1,18,1,-9,1,-34,1,-54,1,-52,1,-38,1
360,-16,1,-34,1,-18,1,25,1,1,1,-26,1,25,1,2,1,-29,1,-53,1,-53,1,-39,1
361,-14,1,-32,1,-18,1,23,1,2,1,-25,1,33,1,18,1,-20,1,-51,1,-53,1,-41,1
362,-12,1,-29,1,-17,1,20,1,2,1,-23,1,43,1,39,1,-10,1,-47,1,-52,1,-40,1
363,-11,1,-26,1,-15,1,18,1,2,1,-21,1,52,1,59,1,0,1,-41,1,-49,1,-38,1
364,-9,1,-24,1,-15,1,16,1,3,1,-20,1,60,1,76,1,12,1,-34,1,-47,1,-37,1
365,-6,1,-22,1,-16,1,14,1,5,1,-19,1,68,1,93,1,24,1,-24,1,-40,1,-33,1
366,-1,1,-20,1,-19,1,10,1,9,1,-20,1,76,1,111,1,39,1,-8,1,-30,1,-28,1
367,7,1,-16,1,-23,1,4,1,15,1,-19,1,83,1,133,1,59,1,13,1,-17,1,-21,1
368,17,1,-10,1,-27,1,-3,1,22,1,-18,1,90,1,158,1,81,1,39,1,0,1,-14,1
369,29,1,0,1,-29,1,-14,1,29,1,-14,1,93,1,180,1,108,1,72,1,26,1,0,1
370,42,1,17,1,-25,1,-29,1,34,1,-4,1,90,1,194,1,138,1,112,1,60,1,22,1
371,54,1,39,1,-15,1,-46,1,35,1,12,1,82,1,197,1,168,1,154,1,101,1,51,1
372,69,1,71,1,2,1,-70,1,34,1,37,1,69,1,187,1,198,1,204,1,150,1,90,1
373,86,1,108,1,22,1,-97,1,32,1,65,1,47,1,164,1,226,1,257,1,203,1,133,1
374,103,1,147,1,44,1,-125,1,30,1,96,1,17,1,123,1,252,1,314,1,259,1,177,1
375,115,1,184,1,69,1,-149,1,23,1,127,1,-13,1,72,1,280,1,373,1,311,1,217,1
376,119,1,214,1,95,1,-166,1,12,1,155,1,-39,1,24,1,316,1,435,1,357,1,249,1
377,117,1,236,1,119,1,-176,1,-1,1,178,1,-64,1,-26,1,352,1,493,1,398,1,276,1
378,113,1,254,1,141,1,-183,1,-14,1,198,1,-90,1,-88,1,378,1,538,1,429,1,295,1
379,104,1,261,1,157,1,-182,1,-26,1,209,1,-112,1,-145,1,391,1,560,1,443,1,302,1
380,89,1,255,1,166,1,-172,1,-38,1,211,1,-127,1,-193,1,381,1,550,1,433,1,295,1
381,66,1,236,1,170,1,-151,1,-52,1,203,1,-133,1,-237,1,335,1,494,1,395,1,273,1
382,37,1,207,1,170,1,-122,1,-66,1,189,1,-133,1,-275,1,256,1,395,1,329,1,239,1
383,9,1,170,1,161,1,-89,1,-76,1,166,1,-130,1,-298,1,166,1,279,1,251,1,195,1
384,-15,1,130,1,145,1,-57,1,-80,1,137,1,-126,1,-305,1,82,1,167,1,168,1,147,1
385,-31,1,88,1,119,1,-28,1,-75,1,103,1,-124,1,-305,1,9,1,69,1,91,1,97,1
386,-42,1,46,1,88,1,-2,1,-65,1,67,1,-120,1,-296,1,-41,1,-3,1,23,1,47,1
387,-44,1,15,1,59,1,14,1,-51,1,37,1,-115,1,-282,1,-70,1,-49,1,-23,1,9,1
388,-43,1,-6,1,37,1,24,1,-40,1,15,1,-111,1,-271,1,-88,1,-76,1,-51,1,-17,1
389,-41,1,-20,1,21,1,30,1,-31,1,0,1,-109,1,-259,1,-97,1,-92,1,-67,1,-33,1
390,-38,1,-28,1,10,1,33,1,-24,1,-9,1,-104,1,-240,1,-98,1,-98,1,-73,1,-41,1
391,-35,1,-33,1,2,1,34,1,-19,1,-16,1,-97,1,-212,1,-90,1,-97,1,-74,1,-45,1
392,-32,1,-35,1,-3,1,33,1,-15,1,-19,1,-89,1,-184,1,-82,1,-93,1,-71,1,-46,1
393,-30,1,-35,1,-5,1,32,1,-13,1,-20,1,-81,1,-159,1,-77,1,-88,1,-69,1,-45,1
394,-26,1,-33,1,-7,1,29,1,-10,1,-20,1,-74,1,-135,1,-72,1,-82,1,-65,1,-42,1
395,-21,1,-30,1,-9,1,25,1,-6,1,-20,1,-65,1,-115,1,-66,1,-74,1,-61,1,-38,1
396,-16,1,-28,1,-12,1,22,1,-2,1,-20,1,-54,1,-96,1,-60,1,-66,1,-57,1,-35,1
397,-11,1,-28,1,-17,1,19,1,3,1,-23,1,-43,1,-80,1,-53,1,-59,1,-55,1,-33,1
398,-8,1,-28,1,-20,1,18,1,6,1,-24,1,-31,1,-68,1,-48,1,-54,1,-52,1,-32,1
399,-8,1,-26,1,-18,1,17,1,5,1,-22,1,-22,1,-58,1,-44,1,-52,1,-51,1,-31,1
400,-8,1,-25,1,-17,1,16,1,4,1,-21,1,-13,1,-49,1,-40,1,-51,1,-49,1,-30,1
401,-10,1,-25,1,-15,1,17,1,2,1,-20,1,-7,1,-41,1,-37,1,-50,1,-48,1,-29,1
402,-13,1,-25,1,-12,1,19,1,-1,1,-19,1,-3,1,-33,1,-35,1,-49,1,-47,1,-28,1
403,-15,1,-25,1,-10,1,20,1,-3,1,-18,1,-1,1,-25,1,-33,1,-49,1,-47,1,-28,1
404,-15,1,-26,1,-11,1,20,1,-2,1,-19,1,0,1,-20,1,-32,1,-48,1,-47,1,-29,1
405,-13,1,-26,1,-13,1,19,1,0,1,-20,1,1,1,-17,1,-32,1,-48,1,-48,1,-29,1
406,-13,1,-27,1,-14,1,20,1,0,1,-21,1,1,1,-17,1,-33,1,-48,1,-48,1,-29,1
407,-12,1,-27,1,-15,1,19,1,1,1,-21,1,2,1,-17,1,-33,1,-48,1,-48,1,-29,1
408,-11,1,-26,1,-15,1,18,1,2,1,-21,1,3,1,-19,1,-32,1,-48,1,-47,1,-28,1
409,-11,1,-27,1,-16,1,19,1,2,1,-22,1,4,1,-19,1,-32,1,-48,1,-47,1,-29,1
410,-12,1,-27,1,-15,1,19,1,1,1,-21,1,5,1,-17,1,-33,1,-49,1,-47,1,-29,1
411,-11,1,-27,1,-16,1,19,1,2,1,-22,1,4,1,-14,1,-32,1,-48,1,-46,1,-29,1
412,-10,1,-26,1,-16,1,18,1,3,1,-21,1,4,1,-11,1,-32,1,-47,1,-46,1,-29,1
413,-9,1,-25,1,-16,1,17,1,3,1,-21,1,4,1,-8,1,-32,1,-46,1,-45,1,-28,1
414,-9,1,-24,1,-15,1,16,1,3,1,-20,1,5,1,-5,1,-32,1,-46,1,-44,1,-27,1
415,-8,1,-25,1,-17,1,16,1,4,1,-21,1,5,1,-4,1,-31,1,-46,1,-44,1,-27,1
416,-8,1,-25,1,-17,1,16,1,4,1,-21,1,5,1,-5,1,-31,1,-45,1,-44,1,-27,1
417,-8,1,-26,1,-18,1,17,1,5,1,-22,1,5,1,-5,1,-30,1,-44,1,-44,1,-26,1
418,-7,1,-25,1,-18,1,16,1,5,1,-22,1,6,1,-5,1,-30,1,-44,1,-43,1,-26,1
419,-6,1,-25,1,-19,1,15,1,6,1,-22,1,5,1,-5,1,-29,1,-43,1,-42,1,-25,1
420,-6,1,-26,1,-20,1,16,1,7,1,-23,1,6,1,-5,1,-28,1,-42,1,-42,1,-25,1
421,-6,1,-25,1,-19,1,15,1,6,1,-22,1,6,1,-3,1,-27,1,-42,1,-41,1,-24,1
422,-6,1,-24,1,-18,1,15,1,6,1,-21,1,6,1,-2,1,-27,1,-40,1,-40,1,-24,1
423,-6,1,-24,1,-18,1,15,1,6,1,-21,1,6,1,-1,1,-26,1,-39,1,-38,1,-22,1
424,-6,1,-24,1,-18,1,15,1,6,1,-21,1,5,1,0,1,-25,1,-38,1,-38,1,-22,1
425,-6,1,-24,1,-18,1,15,1,6,1,-21,1,5,1,0,1,-24,1,-37,1,-37,1,-21,1
426,-7,1,-24,1,-17,1,15,1,5,1,-21,1,5,1,1,1,-23,1,-35,1,-36,1,-21,1
427,-6,1,-24,1,-18,1,15,1,6,1,-21,1,5,1,2,1,-21,1,-34,1,-35,1,-20,1
428,-6,1,-24,1,-18,1,15,1,6,1,-21,1,5,1,2,1,-20,1,-33,1,-35,1,-20,1
429,-5,1,-22,1,-17,1,13,1,6,1,-20,1,4,1,3,1,-19,1,-31,1,-35,1,-20,1
430,-4,1,-21,1,-17,1,12,1,6,1,-19,1,4,1,4,1,-18,1,-30,1,-35,1,-20,1
431,-3,1,-21,1,-18,1,12,1,7,1,-20,1,4,1,4,1,-17,1,-28,1,-35,1,-19,1
432,-3,1,-20,1,-17,1,11,1,7,1,-19,1,4,1,5,1,-16,1,-27,1,-34,1,-20,1
433,-3,1,-19,1,-16,1,11,1,6,1,-18,1,3,1,6,1,-15,1,-26,1,-33,1,-19,1
434,-3,1,-18,1,-15,1,10,1,6,1,-17,1,2,1,7,1,-15,1,-25,1,-33,1,-19,1
435,-3,1,-19,1,-16,1,11,1,6,1,-18,1,1,1,8,1,-14,1,-26,1,-32,1,-18,1
436,-3,1,-19,1,-16,1,11,1,6,1,-18,1,0,1,9,1,-12,1,-24,1,-30,1,-18,1
437,-3,1,-18,1,-15,1,10,1,6,1,-17,1,0,1,11,1,-11,1,-22,1,-29,1,-16,1
438,-3,1,-18,1,-15,1,10,1,6,1,-17,1,0,1,12,1,-10,1,-21,1,-28,1,-16,1
439,-3,1,-19,1,-16,1,11,1,6,1,-18,1,0,1,12,1,-10,1,-19,1,-27,1,-15,1
440,-2,1,-17,1,-15,1,9,1,6,1,-16,1,-1,1,13,1,-8,1,-17,1,-25,1,-14,1
441,-2,1,-16,1,-14,1,9,1,6,1,-15,1,-1,1,14,1,-6,1,-15,1,-24,1,-13,1
442,-2,1,-14,1,-12,1,8,1,5,1,-13,1,-2,1,16,1,-5,1,-14,1,-22,1,-12,1
443,1,1,-11,1,-12,1,5,1,6,1,-11,1,-2,1,18,1,-3,1,-12,1,-21,1,-11,1
444,4,1,-8,1,-12,1,2,1,8,1,-10,1,-3,1,20,1,-1,1,-10,1,-19,1,-9,1
445,6,1,-5,1,-11,1,0,1,8,1,-8,1,-3,1,22,1,0,1,-8,1,-17,1,-8,1
446,7,1,-4,1,-11,1,-1,1,9,1,-7,1,-3,1,25,1,2,1,-6,1,-14,1,-6,1
447,8,1,-3,1,-11,1,-2,1,9,1,-7,1,-4,1,26,1,4,1,-3,1,-12,1,-4,1
448,10,1,-1,1,-11,1,-4,1,10,1,-6,1,-4,1,28,1,7,1,0,1,-8,1,-2,1
449,11,1,0,1,-11,1,-5,1,11,1,-5,1,-5,1,30,1,10,1,2,1,-6,1,0,1
450,12,1,2,1,-10,1,-7,1,11,1,-4,1,-6,1,32,1,11,1,4,1,-5,1,1,1
451,14,1,3,1,-11,1,-8,1,13,1,-4,1,-7,1,34,1,13,1,7,1,-3,1,3,1
452,14,1,5,1,-9,1,-9,1,12,1,-2,1,-8,1,36,1,15,1,11,1,-1,1,5,1
453,16,1,7,1,-9,1,-11,1,13,1,-1,1,-9,1,39,1,18,1,15,1,2,1,6,1
454,18,1,7,1,-11,1,-12,1,15,1,-2,1,-11,1,41,1,20,1,18,1,5,1,8,1
455,19,1,8,1,-11,1,-13,1,15,1,-1,1,-13,1,42,1,21,1,21,1,8,1,10,1
456,20,1,10,1,-10,1,-15,1,15,1,0,1,-15,1,45,1,22,1,23,1,11,1,12,1
457,21,1,13,1,-8,1,-17,1,15,1,3,1,-17,1,47,1,23,1,25,1,15,1,14,1
458,23,1,15,1,-8,1,-19,1,16,1,4,1,-19,1,48,1,25,1,28,1,18,1,16,1
459,24,1,18,1,-6,1,-21,1,15,1,6,1,-20,1,50,1,26,1,31,1,21,1,19,1
460,25,1,20,1,-5,1,-22,1,15,1,8,1,-23,1,53,1,28,1,35,1,24,1,22,1
461,27,1,23,1,-4,1,-25,1,16,1,10,1,-24,1,55,1,30,1,38,1,27,1,24,1
462,29,1,25,1,-4,1,-27,1,17,1,11,1,-26,1,57,1,31,1,41,1,29,1,27,1
463,32,1,28,1,-4,1,-30,1,18,1,12,1,-28,1,58,1,32,1,43,1,31,1,29,1
464,34,1,30,1,-4,1,-32,1,19,1,13,1,-29,1,60,1,33,1,45,1,34,1,32,1
465,35,1,32,1,-3,1,-33,1,19,1,15,1,-31,1,61,1,34,1,47,1,37,1,34,1
466,37,1,34,1,-3,1,-35,1,20,1,16,1,-33,1,63,1,35,1,50,1,39,1,37,1
467,39,1,36,1,-3,1,-37,1,21,1,17,1,-35,1,64,1,35,1,53,1,41,1,39,1
468,39,1,36,1,-3,1,-37,1,21,1,17,1,-35,1,65,1,36,1,55,1,43,1,41,1
469,39,1,37,1,-2,1,-38,1,21,1,18,1,-37,1,65,1,35,1,57,1,44,1,42,1
470,41,1,38,1,-3,1,-39,1,22,1,18,1,-38,1,64,1,34,1,58,1,45,1,43,1
471,42,1,39,1,-3,1,-40,1,23,1,18,1,-38,1,64,1,34,1,58,1,47,1,44,1
472,42,1,41,1,-1,1,-41,1,22,1,20,1,-40,1,65,1,34,1,59,1,48,1,45,1
473,43,1,42,1,-1,1,-42,1,22,1,21,1,-40,1,65,1,33,1,60,1,49,1,46,1
474,44,1,43,1,-1,1,-43,1,23,1,21,1,-41,1,66,1,31,1,60,1,51,1,48,1
475,42,1,43,1,1,1,-42,1,21,1,22,1,-43,1,65,1,28,1,59,1,50,1,48,1
476,42,1,43,1,1,1,-42,1,21,1,22,1,-44,1,64,1,26,1,59,1,50,1,49,1
477,42,1,43,1,1,1,-42,1,21,1,22,1,-45,1,63,1,24,1,57,1,50,1,48,1
478,40,1,42,1,2,1,-41,1,19,1,22,1,-44,1,61,1,22,1,56,1,50,1,48,1
479,40,1,42,1,2,1,-41,1,19,1,22,1,-44,1,58,1,21,1,54,1,49,1,47,1
480,40,1,41,1,1,1,-40,1,20,1,21,1,-44,1,56,1,19,1,52,1,48,1,46,1
481,38,1,38,1,0,1,-38,1,19,1,19,1,-43,1,54,1,16,1,50,1,47,1,44,1
482,36,1,37,1,1,1,-36,1,18,1,19,1,-43,1,52,1,14,1,47,1,46,1,42,1
483,35,1,35,1,0,1,-35,1,18,1,18,1,-44,1,51,1,12,1,45,1,46,1,40,1
484,34,1,33,1,-1,1,-33,1,18,1,16,1,-43,1,50,1,9,1,42,1,44,1,38,1
485,33,1,32,1,-1,1,-32,1,17,1,16,1,-42,1,48,1,6,1,39,1,42,1,36,1
486,32,1,32,1,0,1,-32,1,16,1,16,1,-41,1,46,1,4,1,37,1,39,1,34,1
487,30,1,30,1,0,1,-30,1,15,1,15,1,-39,1,45,1,2,1,34,1,36,1,32,1
488,30,1,28,1,-2,1,-29,1,16,1,13,1,-36,1,42,1,0,1,30,1,32,1,29,1
489,28,1,25,1,-3,1,-26,1,16,1,11,1,-34,1,40,1,-1,1,26,1,28,1,26,1
490,27,1,23,1,-4,1,-25,1,16,1,10,1,-31,1,38,1,-3,1,22,1,25,1,23,1
491,25,1,20,1,-5,1,-22,1,15,1,8,1,-27,1,36,1,-4,1,17,1,21,1,21,1
492,23,1,17,1,-6,1,-20,1,15,1,6,1,-24,1,34,1,-6,1,13,1,17,1,16,1
493,19,1,14,1,-5,1,-16,1,12,1,5,1,-21,1,32,1,-8,1,9,1,13,1,13,1
494,15,1,11,1,-4,1,-13,1,10,1,4,1,-20,1,29,1,-10,1,5,1,9,1,9,1
495,13,1,9,1,-4,1,-11,1,9,1,3,1,-17,1,27,1,-11,1,2,1,6,1,7,1
496,12,1,6,1,-6,1,-9,1,9,1,0,1,-15,1,25,1,-12,1,0,1,2,1,4,1
497,10,1,3,1,-7,1,-6,1,9,1,-2,1,-12,1,23,1,-13,1,-3,1,-1,1,1,1
498,8,1,0,1,-8,1,-4,1,8,1,-4,1,-10,1,20,1,-14,1,-6,1,-5,1,-2,1
499,6,1,-3,1,-9,1,-1,1,7,1,-6,1,-7,1,18,1,-14,1,-9,1,-9,1,-5,1
500,4,1,-5,1,-9,1,0,1,6,1,-7,1,-4,1,17,1,-15,1,-12,1,-13,1,-9,1
501,4,1,-6,1,-10,1,1,1,7,1,-8,1,-2,1,14,1,-15,1,-15,1,-15,1,-11,1
502,2,1,-8,1,-10,1,3,1,6,1,-9,1,0,1,12,1,-16,1,-18,1,-17,1,-14,1
503,0,1,-10,1,-10,1,5,1,5,1,-10,1,1,1,9,1,-17,1,-20,1,-20,1,-16,1
504,-1,1,-12,1,-11,1,6,1,5,1,-12,1,3,1,8,1,-17,1,-23,1,-22,1,-19,1
505,-3,1,-13,1,-10,1,8,1,3,1,-12,1,3,1,5,1,-18,1,-25,1,-24,1,-21,1
506,-5,1,-16,1,-11,1,10,1,3,1,-14,1,4,1,3,1,-18,1,-28,1,-26,1,-22,1
507,-6,1,-18,1,-12,1,12,1,3,1,-15,1,5,1,1,1,-20,1,-30,1,-29,1,-25,1
508,-7,1,-20,1,-13,1,13,1,3,1,-17,1,5,1,-1,1,-20,1,-31,1,-32,1,-26,1
509,-8,1,-21,1,-13,1,14,1,2,1,-17,1,6,1,-2,1,-21,1,-33,1,-35,1,-28,1
510,-10,1,-22,1,-12,1,16,1,1,1,-17,1,6,1,-3,1,-21,1,-34,1,-36,1,-30,1
511,-12,1,-24,1,-12,1,18,1,0,1,-18,1,7,1,-5,1,-22,1,-36,1,-38,1,-32,1
512,-12,1,-24,1,-12,1,18,1,0,1,-18,1,7,1,-7,1,-22,1,-37,1,-40,1,-33,1
513,-12,1,-24,1,-12,1,18,1,0,1,-18,1,8,1,-9,1,-22,1,-39,1,-41,1,-34,1
514,-13,1,-26,1,-13,1,19,1,0,1,-20,1,8,1,-10,1,-23,1,-40,1,-43,1,-35,1
515,-15,1,-28,1,-13,1,21,1,-1,1,-21,1,9,1,-11,1,-23,1,-41,1,-43,1,-35,1
516,-16,1,-29,1,-13,1,22,1,-2,1,-21,1,9,1,-11,1,-24,1,-42,1,-44,1,-35,1
517,-16,1,-30,1,-14,1,23,1,-1,1,-22,1,9,1,-12,1,-25,1,-42,1,-45,1,-36,1
518,-16,1,-30,1,-14,1,23,1,-1,1,-22,1,9,1,-13,1,-25,1,-43,1,-47,1,-36,1
519,-17,1,-32,1,-15,1,24,1,-1,1,-24,1,9,1,-14,1,-26,1,-43,1,-47,1,-37,1
520,-17,1,-32,1,-15,1,24,1,-1,1,-24,1,9,1,-15,1,-26,1,-43,1,-48,1,-38,1
521,-17,1,-33,1,-16,1,25,1,-1,1,-25,1,9,1,-17,1,-26,1,-44,1,-49,1,-39,1
522,-18,1,-35,1,-17,1,26,1,-1,1,-26,1,10,1,-17,1,-25,1,-44,1,-49,1,-39,1
523,-19,1,-36,1,-17,1,27,1,-1,1,-27,1,10,1,-18,1,-25,1,-45,1,-49,1,-40,1
524,-19,1,-36,1,-17,1,27,1,-1,1,-27,1,10,1,-18,1,-25,1,-45,1,-49,1,-40,1
525,-18,1,-36,1,-18,1,27,1,0,1,-27,1,10,1,-17,1,-24,1,-45,1,-49,1,-41,1
526,-17,1,-36,1,-19,1,26,1,1,1,-28,1,11,1,-17,1,-23,1,-45,1,-49,1,-40,1
527,-17,1,-35,1,-18,1,26,1,0,1,-27,1,10,1,-17,1,-23,1,-45,1,-50,1,-40,1
528,-18,1,-36,1,-18,1,27,1,0,1,-27,1,11,1,-18,1,-23,1,-46,1,-49,1,-41,1
529,-18,1,-36,1,-18,1,27,1,0,1,-27,1,12,1,-17,1,-22,1,-46,1,-49,1,-41,1
530,-17,1,-37,1,-20,1,27,1,1,1,-29,1,12,1,-17,1,-22,1,-46,1,-50,1,-42,1
531,-17,1,-36,1,-19,1,26,1,1,1,-28,1,12,1,-18,1,-23,1,-46,1,-50,1,-42,1
532,-16,1,-36,1,-20,1,26,1,2,1,-28,1,12,1,-18,1,-23,1,-46,1,-50,1,-42,1
533,-17,1,-36,1,-19,1,26,1,1,1,-28,1,12,1,-18,1,-22,1,-45,1,-49,1,-42,1
534,-17,1,-35,1,-18,1,26,1,0,1,-27,1,12,1,-17,1,-21,1,-45,1,-49,1,-41,1
535,-17,1,-35,1,-18,1,26,1,0,1,-27,1,11,1,-17,1,-21,1,-45,1,-49,1,-41,1
536,-18,1,-35,1,-17,1,26,1,-1,1,-26,1,11,1,-16,1,-21,1,-44,1,-49,1,-41,1
537,-18,1,-36,1,-18,1,27,1,0,1,-27,1,11,1,-16,1,-20,1,-44,1,-48,1,-40,1
538,-19,1,-36,1,-17,1,27,1,-1,1,-27,1,10,1,-17,1,-20,1,-44,1,-48,1,-40,1
539,-19,1,-36,1,-17,1,27,1,-1,1,-27,1,10,1,-15,1,-19,1,-44,1,-48,1,-40,1
540,-19,1,-35,1,-16,1,27,1,-2,1,-26,1,10,1,-14,1,-18,1,-43,1,-47,1,-40,1
541,-19,1,-36,1,-17,1,27,1,-1,1,-27,1,10,1,-14,1,-18,1,-43,1,-47,1,-39,1
542,-19,1,-35,1,-16,1,27,1,-2,1,-26,1,10,1,-14,1,-18,1,-43,1,-48,1,-40,1
543,-20,1,-36,1,-16,1,28,1,-2,1,-26,1,10,1,-13,1,-18,1,-43,1,-47,1,-40,1
544,-20,1,-36,1,-16,1,28,1,-2,1,-26,1,10,1,-12,1,-17,1,-42,1,-47,1,-40,1
545,-20,1,-35,1,-15,1,27,1,-3,1,-25,1,11,1,-11,1,-17,1,-40,1,-46,1,-39,1
546,-18,1,-33,1,-15,1,25,1,-2,1,-24,1,11,1,-10,1,-16,1,-39,1,-45,1,-38,1
547,-17,1,-33,1,-16,1,25,1,-1,1,-25,1,12,1,-10,1,-14,1,-37,1,-43,1,-37,1
548,-17,1,-33,1,-16,1,25,1,-1,1,-25,1,12,1,-9,1,-13,1,-37,1,-43,1,-37,1
549,-16,1,-31,1,-15,1,23,1,-1,1,-23,1,12,1,-9,1,-12,1,-37,1,-43,1,-37,1
550,-16,1,-30,1,-14,1,23,1,-1,1,-22,1,12,1,-8,1,-10,1,-38,1,-43,1,-37,1
551,-16,1,-30,1,-14,1,23,1,-1,1,-22,1,12,1,-6,1,-10,1,-37,1,-43,1,-36,1
552,-15,1,-29,1,-14,1,22,1,-1,1,-22,1,13,1,-5,1,-9,1,-36,1,-43,1,-35,1
553,-15,1,-28,1,-13,1,21,1,-1,1,-21,1,13,1,-5,1,-9,1,-34,1,-43,1,-35,1
554,-15,1,-28,1,-13,1,21,1,-1,1,-21,1,13,1,-4,1,-8,1,-34,1,-43,1,-35,1
555,-15,1,-28,1,-13,1,21,1,-1,1,-21,1,13,1,-3,1,-8,1,-33,1,-43,1,-35,1
556,-15,1,-28,1,-13,1,21,1,-1,1,-21,1,13,1,-3,1,-8,1,-33,1,-43,1,-35,1
557,-15,1,-28,1,-13,1,21,1,-1,1,-21,1,14,1,-3,1,-7,1,-33,1,-42,1,-36,1
558,-15,1,-28,1,-13,1,21,1,-1,1,-21,1,13,1,-3,1,-7,1,-32,1,-42,1,-36,1
559,-15,1,-30,1,-15,1,22,1,0,1,-23,1,13,1,-3,1,-7,1,-32,1,-41,1,-37,1
560,-15,1,-31,1,-16,1,23,1,0,1,-24,1,13,1,-3,1,-6,1,-32,1,-41,1,-36,1
561,-14,1,-30,1,-16,1,22,1,1,1,-23,1,13,1,-3,1,-6,1,-32,1,-41,1,-36,1
562,-14,1,-29,1,-15,1,21,1,0,1,-22,1,13,1,-3,1,-5,1,-31,1,-40,1,-34,1
563,-13,1,-29,1,-16,1,21,1,1,1,-23,1,13,1,-3,1,-4,1,-32,1,-40,1,-34,1
564,-13,1,-29,1,-16,1,21,1,1,1,-23,1,13,1,-2,1,-3,1,-31,1,-40,1,-34,1
565,-14,1,-28,1,-14,1,21,1,0,1,-21,1,13,1,-2,1,-3,1,-31,1,-40,1,-34,1
566,-16,1,-30,1,-14,1,23,1,-1,1,-22,1,12,1,-3,1,-4,1,-31,1,-40,1,-35,1
567,-17,1,-30,1,-13,1,23,1,-2,1,-22,1,12,1,-3,1,-5,1,-31,1,-39,1,-34,1
568,-17,1,-31,1,-14,1,24,1,-2,1,-23,1,12,1,-2,1,-5,1,-31,1,-39,1,-35,1
569,-16,1,-30,1,-14,1,23,1,-1,1,-22,1,12,1,-2,1,-4,1,-31,1,-39,1,-35,1
570,-15,1,-30,1,-15,1,22,1,0,1,-23,1,12,1,-2,1,-4,1,-31,1,-39,1,-35,1
571,-15,1,-30,1,-15,1,22,1,0,1,-23,1,12,1,-2,1,-4,1,-31,1,-39,1,-35,1
572,-15,1,-30,1,-15,1,22,1,0,1,-23,1,11,1,-2,1,-4,1,-31,1,-39,1,-35,1
573,-15,1,-29,1,-14,1,22,1,-1,1,-22,1,11,1,-3,1,-4,1,-30,1,-39,1,-35,1
574,-15,1,-29,1,-14,1,22,1,-1,1,-22,1,11,1,-3,1,-4,1,-29,1,-39,1,-36,1
575,-14,1,-28,1,-14,1,21,1,0,1,-21,1,11,1,-3,1,-4,1,-29,1,-39,1,-36,1
576,-13,1,-27,1,-14,1,20,1,0,1,-21,1,12,1,-2,1,-4,1,-29,1,-38,1,-34,1
577,-13,1,-27,1,-14,1,20,1,0,1,-21,1,12,1,-2,1,-4,1,-30,1,-38,1,-34,1
578,-14,1,-28,1,-14,1,21,1,0,1,-21,1,12,1,-2,1,-5,1,-31,1,-38,1,-34,1
579,-14,1,-29,1,-15,1,21,1,0,1,-22,1,13,1,-2,1,-7,1,-32,1,-38,1,-35,1
580,-13,1,-28,1,-15,1,20,1,1,1,-22,1,13,1,-2,1,-7,1,-32,1,-39,1,-34,1
581,-13,1,-27,1,-14,1,20,1,0,1,-21,1,13,1,-2,1,-7,1,-32,1,-39,1,-34,1
582,-13,1,-28,1,-15,1,20,1,1,1,-22,1,13,1,-2,1,-8,1,-32,1,-39,1,-34,1
583,-15,1,-30,1,-15,1,22,1,0,1,-23,1,12,1,-2,1,-8,1,-34,1,-40,1,-34,1
584,-16,1,-30,1,-14,1,23,1,-1,1,-22,1,11,1,-3,1,-9,1,-34,1,-41,1,-35,1
585,-17,1,-30,1,-13,1,23,1,-2,1,-22,1,11,1,-4,1,-9,1,-35,1,-42,1,-35,1
586,-17,1,-30,1,-13,1,23,1,-2,1,-22,1,11,1,-4,1,-10,1,-35,1,-42,1,-35,1
587,-16,1,-28,1,-12,1,22,1,-2,1,-20,1,11,1,-4,1,-10,1,-35,1,-41,1,-34,1
588,-14,1,-26,1,-12,1,20,1,-1,1,-19,1,11,1,-3,1,-10,1,-34,1,-40,1,-34,1
589,-14,1,-24,1,-10,1,19,1,-2,1,-17,1,11,1,-2,1,-9,1,-35,1,-40,1,-33,1
590,-14,1,-24,1,-10,1,19,1,-2,1,-17,1,12,1,-2,1,-10,1,-35,1,-40,1,-34,1
591,-12,1,-23,1,-11,1,17,1,-1,1,-17,1,12,1,-1,1,-10,1,-34,1,-39,1,-33,1
592,-12,1,-22,1,-10,1,17,1,-1,1,-16,1,13,1,-1,1,-10,1,-33,1,-38,1,-32,1
593,-12,1,-20,1,-8,1,16,1,-2,1,-14,1,14,1,0,1,-10,1,-32,1,-38,1,-31,1
594,-12,1,-19,1,-7,1,15,1,-3,1,-13,1,15,1,0,1,-9,1,-32,1,-38,1,-30,1
595,-11,1,-19,1,-8,1,15,1,-2,1,-14,1,15,1,1,1,-9,1,-31,1,-38,1,-29,1
596,-11,1,-18,1,-7,1,14,1,-2,1,-13,1,17,1,2,1,-8,1,-30,1,-37,1,-29,1
597,-11,1,-17,1,-6,1,14,1,-3,1,-12,1,19,1,4,1,-7,1,-29,1,-37,1,-29,1
598,-10,1,-16,1,-6,1,13,1,-2,1,-11,1,21,1,6,1,-6,1,-29,1,-36,1,-29,1
599,-9,1,-15,1,-6,1,12,1,-2,1,-11,1,23,1,7,1,-6,1,-29,1,-35,1,-28,1
600,-8,1,-15,1,-7,1,11,1,-1,1,-11,1,24,1,9,1,-5,1,-28,1,-35,1,-28,1
601,-7,1,-14,1,-7,1,10,1,0,1,-11,1,23,1,9,1,-6,1,-29,1,-35,1,-27,1
602,-7,1,-14,1,-7,1,10,1,0,1,-11,1,21,1,9,1,-5,1,-28,1,-35,1,-27,1
603,-7,1,-14,1,-7,1,10,1,0,1,-11,1,20,1,9,1,-5,1,-28,1,-35,1,-26,1
604,-9,1,-15,1,-6,1,12,1,-2,1,-11,1,19,1,8,1,-5,1,-28,1,-35,1,-26,1
605,-9,1,-15,1,-6,1,12,1,-2,1,-11,1,16,1,7,1,-5,1,-28,1,-35,1,-27,1
606,-9,1,-15,1,-6,1,12,1,-2,1,-11,1,13,1,4,1,-6,1,-30,1,-36,1,-27,1
607,-9,1,-15,1,-6,1,12,1,-2,1,-11,1,9,1,1,1,-6,1,-30,1,-36,1,-27,1
608,-10,1,-15,1,-5,1,12,1,-3,1,-10,1,4,1,-1,1,-7,1,-31,1,-35,1,-27,1
609,-10,1,-15,1,-5,1,12,1,-3,1,-10,1,2,1,-3,1,-8,1,-31,1,-35,1,-27,1
610,-9,1,-14,1,-5,1,11,1,-2,1,-10,1,2,1,-5,1,-9,1,-31,1,-36,1,-28,1
611,-8,1,-12,1,-4,1,10,1,-2,1,-8,1,1,1,-6,1,-9,1,-31,1,-36,1,-27,1
612,-8,1,-12,1,-4,1,10,1,-2,1,-8,1,0,1,-8,1,-10,1,-32,1,-36,1,-27,1
613,-8,1,-12,1,-4,1,10,1,-2,1,-8,1,0,1,-9,1,-11,1,-32,1,-36,1,-26,1
614,-8,1,-12,1,-4,1,10,1,-2,1,-8,1,1,1,-10,1,-12,1,-32,1,-36,1,-27,1
615,-8,1,-12,1,-4,1,10,1,-2,1,-8,1,2,1,-10,1,-12,1,-32,1,-35,1,-26,1
616,-8,1,-13,1,-5,1,10,1,-2,1,-9,1,4,1,-9,1,-13,1,-32,1,-35,1,-27,1
617,-7,1,-14,1,-7,1,10,1,0,1,-11,1,5,1,-8,1,-12,1,-33,1,-35,1,-27,1
618,-5,1,-13,1,-8,1,9,1,1,1,-11,1,6,1,-7,1,-12,1,-33,1,-36,1,-26,1
619,-3,1,-14,1,-11,1,8,1,4,1,-13,1,6,1,-5,1,-12,1,-32,1,-36,1,-26,1
620,-2,1,-14,1,-12,1,8,1,5,1,-13,1,6,1,-4,1,-12,1,-31,1,-36,1,-25,1
621,-1,1,-15,1,-14,1,8,1,6,1,-15,1,4,1,-4,1,-12,1,-30,1,-37,1,-26,1
622,0,1,-14,1,-14,1,7,1,7,1,-14,1,4,1,-4,1,-12,1,-30,1,-37,1,-25,1
623,-1,1,-15,1,-14,1,8,1,6,1,-15,1,5,1,-4,1,-14,1,-31,1,-38,1,-25,1
624,-2,1,-16,1,-14,1,9,1,6,1,-15,1,5,1,-3,1,-14,1,-31,1,-38,1,-26,1
625,-3,1,-17,1,-14,1,10,1,5,1,-16,1,6,1,-3,1,-14,1,-32,1,-39,1,-26,1
626,-4,1,-18,1,-14,1,11,1,5,1,-16,1,7,1,-4,1,-15,1,-34,1,-39,1,-28,1
627,-5,1,-19,1,-14,1,12,1,4,1,-17,1,7,1,-6,1,-18,1,-36,1,-41,1,-30,1
628,-8,1,-22,1,-14,1,15,1,3,1,-18,1,8,1,-8,1,-20,1,-39,1,-44,1,-32,1
629,-11,1,-24,1,-13,1,17,1,1,1,-19,1,9,1,-9,1,-22,1,-41,1,-46,1,-35,1
630,-14,1,-27,1,-13,1,20,1,-1,1,-20,1,9,1,-10,1,-24,1,-42,1,-48,1,-36,1
631,-17,1,-28,1,-11,1,22,1,-3,1,-20,1,9,1,-11,1,-26,1,-44,1,-49,1,-38,1
632,-18,1,-30,1,-12,1,24,1,-3,1,-21,1,9,1,-13,1,-27,1,-45,1,-51,1,-39,1
633,-18,1,-32,1,-14,1,25,1,-2,1,-23,1,8,1,-13,1,-28,1,-46,1,-52,1,-39,1
634,-17,1,-34,1,-17,1,25,1,0,1,-26,1,7,1,-14,1,-29,1,-48,1,-52,1,-40,1
635,-17,1,-34,1,-17,1,25,1,0,1,-26,1,6,1,-14,1,-30,1,-49,1,-53,1,-40,1
636,-18,1,-36,1,-18,1,27,1,0,1,-27,1,6,1,-14,1,-31,1,-49,1,-53,1,-41,1
637,-18,1,-38,1,-20,1,28,1,1,1,-29,1,6,1,-14,1,-31,1,-49,1,-53,1,-40,1
638,-19,1,-40,1,-21,1,29,1,1,1,-31,1,6,1,-13,1,-31,1,-50,1,-54,1,-41,1
639,-19,1,-39,1,-20,1,29,1,0,1,-30,1,6,1,-13,1,-31,1,-50,1,-54,1,-40,1
640,-19,1,-39,1,-20,1,29,1,0,1,-30,1,7,1,-13,1,-31,1,-50,1,-54,1,-41,1
641,-19,1,-39,1,-20,1,29,1,0,1,-30,1,7,1,-13,1,-31,1,-50,1,-54,1,-41,1
642,-20,1,-40,1,-20,1,30,1,0,1,-30,1,7,1,-14,1,-32,1,-50,1,-55,1,-41,1
643,-20,1,-41,1,-21,1,30,1,0,1,-31,1,8,1,-14,1,-32,1,-50,1,-55,1,-41,1
644,-19,1,-40,1,-21,1,29,1,1,1,-31,1,8,1,-13,1,-31,1,-50,1,-53,1,-41,1
645,-18,1,-40,1,-22,1,29,1,2,1,-31,1,9,1,-13,1,-31,1,-50,1,-53,1,-41,1
646,-18,1,-41,1,-23,1,29,1,2,1,-32,1,9,1,-13,1,-31,1,-51,1,-54,1,-42,1
647,-18,1,-41,1,-23,1,29,1,2,1,-32,1,9,1,-13,1,-31,1,-50,1,-54,1,-42,1
648,-19,1,-39,1,-20,1,29,1,0,1,-30,1,9,1,-13,1,-31,1,-50,1,-54,1,-42,1
649,-19,1,-39,1,-20,1,29,1,0,1,-30,1,10,1,-12,1,-30,1,-50,1,-54,1,-41,1
650,-19,1,-38,1,-19,1,28,1,0,1,-29,1,10,1,-11,1,-30,1,-50,1,-54,1,-42,1
651,-19,1,-37,1,-18,1,28,1,-1,1,-28,1,10,1,-11,1,-31,1,-49,1,-55,1,-42,1
652,-19,1,-36,1,-17,1,27,1,-1,1,-27,1,10,1,-12,1,-31,1,-50,1,-55,1,-43,1
653,-19,1,-37,1,-18,1,28,1,-1,1,-28,1,11,1,-11,1,-31,1,-49,1,-55,1,-44,1
654,-19,1,-38,1,-19,1,28,1,0,1,-29,1,11,1,-9,1,-30,1,-48,1,-56,1,-43,1
655,-21,1,-39,1,-18,1,30,1,-2,1,-29,1,14,1,-5,1,-28,1,-47,1,-56,1,-44,1
656,-22,1,-37,1,-15,1,29,1,-4,1,-26,1,18,1,1,1,-25,1,-47,1,-58,1,-45,1
657,-21,1,-34,1,-13,1,27,1,-4,1,-24,1,25,1,12,1,-20,1,-47,1,-59,1,-46,1
658,-21,1,-32,1,-11,1,26,1,-5,1,-22,1,33,1,26,1,-13,1,-45,1,-60,1,-47,1
659,-21,1,-30,1,-9,1,25,1,-6,1,-20,1,42,1,46,1,-3,1,-43,1,-60,1,-46,1
660,-20,1,-27,1,-7,1,23,1,-7,1,-17,1,51,1,68,1,9,1,-37,1,-59,1,-46,1
661,-19,1,-24,1,-5,1,21,1,-7,1,-15,1,58,1,86,1,22,1,-29,1,-56,1,-44,1
662,-16,1,-22,1,-6,1,19,1,-5,1,-14,1,66,1,103,1,35,1,-19,1,-51,1,-42,1
663,-11,1,-20,1,-9,1,15,1,-1,1,-15,1,72,1,120,1,49,1,-6,1,-44,1,-39,1
664,-4,1,-17,1,-13,1,10,1,4,1,-15,1,78,1,138,1,66,1,12,1,-32,1,-33,1
665,5,1,-12,1,-17,1,3,1,11,1,-14,1,84,1,159,1,86,1,36,1,-17,1,-26,1
666,16,1,-5,1,-21,1,-5,1,18,1,-13,1,90,1,182,1,110,1,65,1,4,1,-13,1
667,28,1,8,1,-20,1,-18,1,24,1,-6,1,93,1,201,1,139,1,102,1,36,1,7,1
668,40,1,29,1,-11,1,-34,1,26,1,9,1,88,1,208,1,168,1,141,1,74,1,34,1
669,54,1,55,1,1,1,-54,1,27,1,28,1,77,1,203,1,197,1,185,1,118,1,68,1
670,67,1,87,1,20,1,-77,1,24,1,54,1,61,1,188,1,224,1,235,1,168,1,106,1
671,81,1,122,1,41,1,-101,1,20,1,82,1,37,1,159,1,249,1,288,1,220,1,148,1
672,93,1,157,1,64,1,-125,1,15,1,111,1,7,1,114,1,273,1,345,1,273,1,189,1
673,96,1,188,1,92,1,-142,1,2,1,140,1,-17,1,67,1,304,1,405,1,322,1,223,1
674,96,1,213,1,117,1,-154,1,-10,1,165,1,-40,1,22,1,338,1,465,1,365,1,252,1
675,94,1,234,1,140,1,-164,1,-23,1,187,1,-64,1,-31,1,369,1,520,1,403,1,276,1
676,91,1,249,1,158,1,-170,1,-33,1,204,1,-85,1,-88,1,391,1,556,1,429,1,292,1
677,83,1,253,1,170,1,-168,1,-43,1,212,1,-101,1,-133,1,399,1,570,1,434,1,294,1
678,67,1,244,1,177,1,-155,1,-55,1,211,1,-110,1,-176,1,377,1,544,1,412,1,281,1
679,46,1,222,1,176,1,-134,1,-65,1,199,1,-111,1,-216,1,313,1,464,1,359,1,252,1
680,20,1,191,1,171,1,-105,1,-75,1,181,1,-106,1,-246,1,226,1,351,1,283,1,211,1
681,-6,1,153,1,159,1,-73,1,-82,1,156,1,-100,1,-260,1,136,1,230,1,198,1,162,1
682,-26,1,113,1,139,1,-43,1,-82,1,126,1,-95,1,-263,1,55,1,121,1,118,1,112,1
683,-42,1,71,1,113,1,-14,1,-77,1,92,1,-90,1,-258,1,-6,1,33,1,44,1,61,1
684,-49,1,32,1,81,1,8,1,-65,1,56,1,-87,1,-247,1,-44,1,-25,1,-12,1,18,1
685,-52,1,4,1,56,1,24,1,-54,1,30,1,-84,1,-235,1,-69,1,-60,1,-48,1,-12,1
686,-50,1,-15,1,35,1,32,1,-43,1,10,1,-84,1,-224,1,-85,1,-83,1,-69,1,-30,1
687,-48,1,-27,1,21,1,37,1,-35,1,-3,1,-83,1,-212,1,-93,1,-95,1,-80,1,-41,1
688,-45,1,-35,1,10,1,40,1,-28,1,-13,1,-81,1,-194,1,-91,1,-97,1,-84,1,-47,1
689,-40,1,-40,1,0,1,40,1,-20,1,-20,1,-76,1,-169,1,-84,1,-93,1,-82,1,-49,1
690,-36,1,-41,1,-5,1,38,1,-16,1,-23,1,-71,1,-145,1,-77,1,-87,1,-79,1,-51,1
691,-32,1,-40,1,-8,1,36,1,-12,1,-24,1,-66,1,-125,1,-71,1,-82,1,-75,1,-49,1
692,-27,1,-37,1,-10,1,32,1,-9,1,-24,1,-61,1,-106,1,-64,1,-76,1,-71,1,-47,1
693,-23,1,-35,1,-12,1,29,1,-6,1,-24,1,-54,1,-89,1,-57,1,-70,1,-67,1,-45,1
694,-20,1,-34,1,-14,1,27,1,-3,1,-24,1,-44,1,-73,1,-51,1,-62,1,-63,1,-41,1
695,-17,1,-34,1,-17,1,25,1,0,1,-26,1,-32,1,-58,1,-44,1,-57,1,-60,1,-40,1
696,-16,1,-34,1,-18,1,25,1,1,1,-26,1,-20,1,-45,1,-39,1,-53,1,-57,1,-37,1
697,-16,1,-33,1,-17,1,24,1,0,1,-25,1,-9,1,-33,1,-35,1,-49,1,-55,1,-35,1
698,-16,1,-31,1,-15,1,23,1,-1,1,-23,1,-2,1,-24,1,-31,1,-46,1,-53,1,-33,1
699,-16,1,-30,1,-14,1,23,1,-1,1,-22,1,3,1,-16,1,-26,1,-43,1,-51,1,-32,1
700,-17,1,-30,1,-13,1,23,1,-2,1,-22,1,5,1,-8,1,-22,1,-41,1,-48,1,-31,1
701,-17,1,-30,1,-13,1,23,1,-2,1,-22,1,6,1,-3,1,-18,1,-39,1,-48,1,-31,1
702,-17,1,-31,1,-14,1,24,1,-2,1,-23,1,7,1,0,1,-16,1,-39,1,-48,1,-31,1
703,-17,1,-31,1,-14,1,24,1,-2,1,-23,1,8,1,3,1,-15,1,-38,1,-47,1,-29,1
704,-16,1,-32,1,-16,1,24,1,0,1,-24,1,8,1,3,1,-16,1,-38,1,-47,1,-30,1
705,-15,1,-31,1,-16,1,23,1,0,1,-24,1,9,1,3,1,-17,1,-39,1,-48,1,-30,1
706,-13,1,-30,1,-17,1,21,1,2,1,-24,1,10,1,3,1,-18,1,-38,1,-49,1,-30,1
707,-13,1,-28,1,-15,1,20,1,1,1,-22,1,11,1,4,1,-18,1,-38,1,-49,1,-31,1
708,-13,1,-28,1,-15,1,20,1,1,1,-22,1,12,1,5,1,-18,1,-37,1,-49,1,-30,1
709,-14,1,-28,1,-14,1,21,1,0,1,-21,1,13,1,7,1,-18,1,-37,1,-49,1,-30,1
710,-14,1,-27,1,-13,1,20,1,-1,1,-20,1,13,1,8,1,-17,1,-37,1,-48,1,-30,1
711,-14,1,-27,1,-13,1,20,1,-1,1,-20,1,14,1,10,1,-16,1,-36,1,-48,1,-30,1
712,-14,1,-27,1,-13,1,20,1,-1,1,-20,1,13,1,12,1,-16,1,-35,1,-47,1,-30,1
713,-13,1,-27,1,-14,1,20,1,0,1,-21,1,12,1,13,1,-15,1,-35,1,-46,1,-29,1
714,-11,1,-27,1,-16,1,19,1,2,1,-22,1,12,1,14,1,-14,1,-34,1,-46,1,-28,1
715,-9,1,-26,1,-17,1,17,1,4,1,-22,1,11,1,14,1,-14,1,-33,1,-45,1,-27,1
716,-9,1,-26,1,-17,1,17,1,4,1,-22,1,11,1,15,1,-13,1,-33,1,-45,1,-26,1
717,-9,1,-26,1,-17,1,17,1,4,1,-22,1,11,1,16,1,-13,1,-32,1,-44,1,-26,1
718,-9,1,-27,1,-18,1,18,1,4,1,-23,1,11,1,15,1,-13,1,-32,1,-44,1,-25,1
719,-9,1,-26,1,-17,1,17,1,4,1,-22,1,11,1,14,1,-12,1,-31,1,-43,1,-26,1
720,-8,1,-25,1,-17,1,16,1,4,1,-21,1,11,1,15,1,-11,1,-29,1,-42,1,-25,1
721,-7,1,-23,1,-16,1,15,1,4,1,-20,1,12,1,15,1,-11,1,-27,1,-41,1,-24,1
722,-7,1,-22,1,-15,1,14,1,4,1,-19,1,11,1,16,1,-11,1,-27,1,-40,1,-24,1
723,-6,1,-21,1,-15,1,13,1,4,1,-18,1,11,1,17,1,-10,1,-26,1,-39,1,-23,1
724,-6,1,-21,1,-15,1,13,1,4,1,-18,1,10,1,17,1,-9,1,-25,1,-38,1,-23,1
725,-7,1,-22,1,-15,1,14,1,4,1,-19,1,10,1,18,1,-8,1,-24,1,-38,1,-22,1
726,-7,1,-22,1,-15,1,14,1,4,1,-19,1,9,1,19,1,-7,1,-23,1,-36,1,-21,1
727,-6,1,-20,1,-14,1,13,1,4,1,-17,1,9,1,20,1,-6,1,-21,1,-35,1,-20,1
728,-4,1,-18,1,-14,1,11,1,5,1,-16,1,10,1,21,1,-5,1,-20,1,-33,1,-19,1
729,-3,1,-18,1,-15,1,10,1,6,1,-17,1,9,1,22,1,-4,1,-19,1,-32,1,-19,1
730,-4,1,-18,1,-14,1,11,1,5,1,-16,1,9,1,22,1,-3,1,-18,1,-30,1,-18,1
731,-4,1,-18,1,-14,1,11,1,5,1,-16,1,9,1,23,1,-2,1,-16,1,-28,1,-18,1
732,-4,1,-17,1,-13,1,10,1,4,1,-15,1,10,1,24,1,-1,1,-15,1,-27,1,-18,1
733,-4,1,-16,1,-12,1,10,1,4,1,-14,1,10,1,25,1,0,1,-14,1,-26,1,-16,1
734,-4,1,-16,1,-12,1,10,1,4,1,-14,1,9,1,27,1,1,1,-12,1,-24,1,-16,1
735,-4,1,-16,1,-12,1,10,1,4,1,-14,1,9,1,28,1,3,1,-12,1,-22,1,-15,1
736,-2,1,-13,1,-11,1,7,1,4,1,-12,1,9,1,28,1,4,1,-11,1,-21,1,-13,1
737,0,1,-11,1,-11,1,5,1,5,1,-11,1,9,1,29,1,5,1,-9,1,-19,1,-13,1
738,2,1,-10,1,-12,1,4,1,7,1,-11,1,8,1,31,1,6,1,-7,1,-18,1,-11,1
739,3,1,-9,1,-12,1,3,1,7,1,-10,1,7,1,32,1,6,1,-5,1,-17,1,-10,1
740,4,1,-9,1,-13,1,2,1,8,1,-11,1,6,1,34,1,7,1,-3,1,-15,1,-8,1
741,4,1,-9,1,-13,1,2,1,8,1,-11,1,6,1,36,1,8,1,-1,1,-13,1,-6,1
742,5,1,-7,1,-12,1,1,1,8,1,-9,1,6,1,37,1,10,1,1,1,-11,1,-6,1
743,6,1,-6,1,-12,1,0,1,9,1,-9,1,5,1,39,1,12,1,3,1,-8,1,-4,1
744,6,1,-5,1,-11,1,0,1,8,1,-8,1,4,1,40,1,14,1,5,1,-6,1,-4,1
745,8,1,-2,1,-10,1,-3,1,9,1,-6,1,3,1,41,1,16,1,8,1,-4,1,-2,1
746,9,1,-1,1,-10,1,-4,1,9,1,-5,1,1,1,42,1,18,1,10,1,-1,1,-1,1
747,6,1,-2,1,-8,1,-2,1,7,1,-5,1,0,1,44,1,20,1,13,1,0,1,0,1
748,7,1,-1,1,-8,1,-3,1,7,1,-4,1,-1,1,45,1,21,1,15,1,1,1,2,1
749,10,1,0,1,-10,1,-5,1,10,1,-5,1,-2,1,47,1,23,1,18,1,4,1,4,1
750,13,1,2,1,-11,1,-7,1,12,1,-4,1,-3,1,50,1,25,1,21,1,7,1,6,1
751,16,1,5,1,-11,1,-10,1,14,1,-3,1,-4,1,52,1,28,1,25,1,10,1,9,1
752,18,1,7,1,-11,1,-12,1,15,1,-2,1,-7,1,54,1,29,1,28,1,13,1,11,1
753,20,1,10,1,-10,1,-15,1,15,1,0,1,-8,1,56,1,31,1,32,1,16,1,14,1
754,21,1,12,1,-9,1,-16,1,15,1,2,1,-9,1,58,1,32,1,35,1,19,1,16,1
755,22,1,13,1,-9,1,-17,1,16,1,2,1,-11,1,60,1,34,1,38,1,22,1,18,1
756,23,1,15,1,-8,1,-19,1,16,1,4,1,-12,1,61,1,36,1,41,1,25,1,20,1
757,25,1,18,1,-7,1,-21,1,16,1,6,1,-13,1,64,1,39,1,45,1,29,1,23,1
758,26,1,20,1,-6,1,-23,1,16,1,7,1,-14,1,66,1,41,1,48,1,32,1,26,1
759,28,1,22,1,-6,1,-25,1,17,1,8,1,-16,1,68,1,42,1,51,1,36,1,28,1
760,29,1,24,1,-5,1,-26,1,17,1,10,1,-18,1,70,1,43,1,54,1,39,1,30,1
761,30,1,26,1,-4,1,-28,1,17,1,11,1,-20,1,71,1,44,1,57,1,43,1,32,1
762,31,1,28,1,-3,1,-29,1,17,1,13,1,-21,1,73,1,45,1,60,1,46,1,34,1
763,33,1,29,1,-4,1,-31,1,19,1,13,1,-23,1,74,1,45,1,62,1,48,1,37,1
764,33,1,30,1,-3,1,-31,1,18,1,14,1,-25,1,75,1,45,1,64,1,51,1,39,1
765,34,1,32,1,-2,1,-33,1,18,1,15,1,-28,1,76,1,45,1,66,1,54,1,41,1
766,38,1,34,1,-4,1,-36,1,21,1,15,1,-29,1,77,1,45,1,67,1,57,1,43,1
767,40,1,36,1,-4,1,-38,1,22,1,16,1,-30,1,78,1,45,1,69,1,59,1,45,1
768,42,1,38,1,-4,1,-40,1,23,1,17,1,-30,1,79,1,45,1,69,1,61,1,48,1
769,43,1,41,1,-2,1,-42,1,23,1,20,1,-30,1,79,1,45,1,70,1,63,1,50,1
770,43,1,42,1,-1,1,-42,1,22,1,21,1,-31,1,78,1,43,1,70,1,64,1,50,1
771,43,1,43,1,0,1,-43,1,22,1,22,1,-32,1,77,1,41,1,70,1,64,1,51,1
772,44,1,45,1,1,1,-44,1,22,1,23,1,-33,1,78,1,39,1,71,1,65,1,51,1
773,45,1,47,1,2,1,-46,1,22,1,25,1,-33,1,78,1,38,1,71,1,66,1,53,1
774,45,1,48,1,3,1,-46,1,21,1,26,1,-34,1,77,1,36,1,70,1,65,1,53,1
775,43,1,46,1,3,1,-44,1,20,1,25,1,-35,1,77,1,34,1,68,1,65,1,52,1
776,41,1,45,1,4,1,-43,1,19,1,25,1,-35,1,76,1,32,1,67,1,64,1,52,1
777,39,1,43,1,4,1,-41,1,18,1,24,1,-36,1,75,1,29,1,65,1,63,1,51,1
778,39,1,43,1,4,1,-41,1,18,1,24,1,-36,1,73,1,27,1,63,1,62,1,51,1
779,38,1,41,1,3,1,-39,1,18,1,22,1,-36,1,71,1,25,1,61,1,62,1,49,1
780,36,1,40,1,4,1,-38,1,16,1,22,1,-35,1,69,1,22,1,59,1,60,1,48,1
781,35,1,38,1,3,1,-36,1,16,1,21,1,-34,1,68,1,20,1,57,1,59,1,47,1
782,33,1,37,1,4,1,-35,1,15,1,21,1,-33,1,66,1,18,1,54,1,56,1,45,1
783,31,1,35,1,4,1,-33,1,14,1,20,1,-31,1,64,1,15,1,50,1,53,1,43,1
784,30,1,33,1,3,1,-31,1,14,1,18,1,-29,1,62,1,12,1,46,1,49,1,39,1
785,29,1,31,1,2,1,-30,1,14,1,17,1,-27,1,61,1,9,1,42,1,45,1,37,1
786,27,1,29,1,2,1,-28,1,13,1,16,1,-25,1,59,1,6,1,38,1,42,1,34,1
787,24,1,26,1,2,1,-25,1,11,1,14,1,-23,1,57,1,3,1,34,1,39,1,30,1
788,22,1,22,1,0,1,-22,1,11,1,11,1,-20,1,55,1,2,1,30,1,35,1,27,1
789,20,1,19,1,-1,1,-19,1,11,1,9,1,-18,1,53,1,0,1,26,1,32,1,23,1
790,18,1,17,1,-1,1,-17,1,10,1,8,1,-15,1,51,1,-1,1,21,1,27,1,19,1
791,16,1,14,1,-2,1,-15,1,9,1,6,1,-12,1,49,1,-3,1,17,1,23,1,16,1
792,12,1,12,1,0,1,-12,1,6,1,6,1,-9,1,46,1,-4,1,13,1,18,1,12,1
793,8,1,8,1,0,1,-8,1,4,1,4,1,-6,1,43,1,-6,1,8,1,13,1,8,1
794,4,1,4,1,0,1,-4,1,2,1,2,1,-4,1,40,1,-8,1,3,1,9,1,4,1
795,0,1,1,1,1,1,0,1,0,1,1,1,-2,1,37,1,-10,1,-1,1,6,1,0,1
796,-2,1,-2,1,0,1,2,1,-1,1,-1,1,0,1,34,1,-12,1,-4,1,2,1,-2,1
797,-4,1,-5,1,-1,1,4,1,-2,1,-3,1,1,1,32,1,-12,1,-6,1,-1,1,-5,1
798,-5,1,-7,1,-2,1,6,1,-2,1,-5,1,3,1,30,1,-13,1,-10,1,-4,1,-6,1
799,-7,1,-9,1,-2,1,8,1,-3,1,-6,1,5,1,27,1,-13,1,-13,1,-7,1,-9,1
800,-9,1,-11,1,-2,1,10,1,-4,1,-7,1,7,1,25,1,-13,1,-16,1,-10,1,-12,1
801,-11,1,-13,1,-2,1,12,1,-5,1,-8,1,8,1,23,1,-14,1,-19,1,-13,1,-14,1
802,-12,1,-15,1,-3,1,13,1,-5,1,-9,1,10,1,21,1,-15,1,-21,1,-17,1,-16,1
803,-12,1,-17,1,-5,1,14,1,-4,1,-11,1,11,1,19,1,-16,1,-24,1,-20,1,-19,1
804,-15,1,-20,1,-5,1,17,1,-5,1,-13,1,12,1,16,1,-17,1,-25,1,-22,1,-21,1
805,-17,1,-23,1,-6,1,20,1,-6,1,-15,1,12,1,15,1,-19,1,-27,1,-24,1,-23,1
806,-19,1,-25,1,-6,1,22,1,-7,1,-16,1,13,1,13,1,-19,1,-29,1,-26,1,-24,1
807,-20,1,-26,1,-6,1,23,1,-7,1,-16,1,14,1,12,1,-19,1,-30,1,-27,1,-26,1
808,-20,1,-27,1,-7,1,23,1,-7,1,-17,1,14,1,10,1,-19,1,-31,1,-28,1,-26,1
809,-21,1,-28,1,-7,1,24,1,-7,1,-18,1,15,1,8,1,-19,1,-32,1,-29,1,-27,1
810,-21,1,-28,1,-7,1,24,1,-7,1,-18,1,16,1,6,1,-19,1,-33,1,-30,1,-28,1
811,-20,1,-26,1,-6,1,23,1,-7,1,-16,1,17,1,4,1,-18,1,-34,1,-30,1,-28,1
812,-19,1,-25,1,-6,1,22,1,-7,1,-16,1,17,1,3,1,-18,1,-35,1,-31,1,-28,1
813,-20,1,-26,1,-6,1,23,1,-7,1,-16,1,17,1,1,1,-19,1,-35,1,-31,1,-30,1
814,-19,1,-27,1,-8,1,23,1,-6,1,-18,1,17,1,0,1,-20,1,-37,1,-32,1,-31,1
815,-19,1,-26,1,-7,1,22,1,-6,1,-17,1,17,1,0,1,-20,1,-38,1,-33,1,-32,1
816,-18,1,-26,1,-8,1,22,1,-5,1,-17,1,17,1,0,1,-20,1,-38,1,-34,1,-32,1
817,-17,1,-26,1,-9,1,21,1,-4,1,-18,1,17,1,0,1,-21,1,-39,1,-34,1,-33,1
818,-19,1,-28,1,-9,1,23,1,-5,1,-19,1,16,1,-1,1,-23,1,-39,1,-34,1,-34,1
819,-21,1,-30,1,-9,1,25,1,-6,1,-20,1,16,1,-1,1,-24,1,-40,1,-35,1,-34,1
820,-22,1,-31,1,-9,1,26,1,-7,1,-20,1,15,1,-2,1,-24,1,-40,1,-36,1,-35,1
821,-23,1,-33,1,-10,1,28,1,-7,1,-22,1,15,1,-2,1,-24,1,-41,1,-36,1,-35,1
822,-23,1,-33,1,-10,1,28,1,-7,1,-22,1,15,1,-2,1,-24,1,-41,1,-36,1,-35,1
823,-23,1,-33,1,-10,1,28,1,-7,1,-22,1,16,1,-2,1,-25,1,-41,1,-36,1,-35,1
824,-23,1,-32,1,-9,1,27,1,-7,1,-21,1,15,1,-2,1,-24,1,-42,1,-36,1,-34,1
825,-23,1,-32,1,-9,1,27,1,-7,1,-21,1,14,1,-3,1,-24,1,-41,1,-36,1,-34,1
826,-22,1,-32,1,-10,1,27,1,-6,1,-21,1,14,1,-3,1,-24,1,-41,1,-36,1,-34,1
827,-22,1,-32,1,-10,1,27,1,-6,1,-21,1,14,1,-3,1,-24,1,-41,1,-35,1,-34,1
828,-23,1,-33,1,-10,1,28,1,-7,1,-22,1,14,1,-3,1,-24,1,-42,1,-35,1,-34,1
829,-23,1,-34,1,-11,1,28,1,-6,1,-23,1,14,1,-4,1,-24,1,-42,1,-35,1,-34,1
830,-23,1,-34,1,-11,1,28,1,-6,1,-23,1,14,1,-3,1,-24,1,-41,1,-35,1,-34,1
831,-23,1,-34,1,-11,1,28,1,-6,1,-23,1,15,1,-3,1,-24,1,-42,1,-36,1,-33,1
832,-23,1,-34,1,-11,1,28,1,-6,1,-23,1,16,1,-3,1,-23,1,-42,1,-36,1,-33,1
833,-24,1,-34,1,-10,1,29,1,-7,1,-22,1,16,1,-3,1,-23,1,-41,1,-36,1,-34,1
834,-24,1,-35,1,-11,1,29,1,-7,1,-23,1,16,1,-3,1,-23,1,-41,1,-37,1,-34,1
835,-23,1,-35,1,-12,1,29,1,-6,1,-24,1,16,1,-3,1,-23,1,-41,1,-36,1,-34,1
836,-22,1,-35,1,-13,1,28,1,-5,1,-24,1,16,1,-3,1,-22,1,-40,1,-36,1,-33,1
837,-22,1,-35,1,-13,1,28,1,-5,1,-24,1,16,1,-2,1,-21,1,-40,1,-35,1,-32,1
838,-22,1,-34,1,-12,1,28,1,-5,1,-23,1,15,1,-2,1,-21,1,-39,1,-35,1,-32,1
839,-23,1,-33,1,-10,1,28,1,-7,1,-22,1,16,1,-2,1,-20,1,-40,1,-35,1,-32,1
840,-25,1,-34,1,-9,1,29,1,-8,1,-22,1,16,1,-2,1,-20,1,-39,1,-34,1,-31,1
841,-25,1,-32,1,-7,1,28,1,-9,1,-20,1,17,1,-1,1,-19,1,-38,1,-34,1,-31,1
842,-26,1,-33,1,-7,1,29,1,-10,1,-20,1,17,1,-1,1,-19,1,-37,1,-33,1,-30,1
843,-24,1,-33,1,-9,1,28,1,-8,1,-21,1,17,1,-1,1,-18,1,-36,1,-32,1,-29,1
844,-24,1,-32,1,-8,1,28,1,-8,1,-20,1,17,1,0,1,-17,1,-34,1,-31,1,-28,1
845,-24,1,-32,1,-8,1,28,1,-8,1,-20,1,16,1,0,1,-17,1,-34,1,-30,1,-28,1
846,-25,1,-32,1,-7,1,28,1,-9,1,-20,1,16,1,0,1,-17,1,-33,1,-30,1,-29,1
847,-25,1,-33,1,-8,1,29,1,-9,1,-21,1,16,1,1,1,-16,1,-33,1,-29,1,-28,1
848,-26,1,-33,1,-7,1,29,1,-10,1,-20,1,17,1,1,1,-16,1,-34,1,-29,1,-29,1
849,-27,1,-33,1,-6,1,30,1,-11,1,-20,1,17,1,1,1,-16,1,-34,1,-30,1,-30,1
850,-26,1,-31,1,-5,1,28,1,-11,1,-18,1,17,1,1,1,-15,1,-33,1,-30,1,-29,1
851,-25,1,-31,1,-6,1,28,1,-10,1,-19,1,16,1,1,1,-13,1,-32,1,-30,1,-29,1
852,-24,1,-30,1,-6,1,27,1,-9,1,-18,1,16,1,2,1,-13,1,-31,1,-30,1,-29,1
853,-24,1,-30,1,-6,1,27,1,-9,1,-18,1,16,1,2,1,-13,1,-30,1,-29,1,-29,1
854,-24,1,-30,1,-6,1,27,1,-9,1,-18,1,16,1,3,1,-12,1,-30,1,-29,1,-29,1
855,-24,1,-30,1,-6,1,27,1,-9,1,-18,1,16,1,3,1,-12,1,-29,1,-29,1,-29,1
856,-24,1,-30,1,-6,1,27,1,-9,1,-18,1,16,1,4,1,-13,1,-30,1,-29,1,-29,1
857,-24,1,-30,1,-6,1,27,1,-9,1,-18,1,17,1,5,1,-14,1,-30,1,-29,1,-29,1
858,-24,1,-30,1,-6,1,27,1,-9,1,-18,1,17,1,5,1,-14,1,-30,1,-28,1,-29,1
859,-23,1,-29,1,-6,1,26,1,-9,1,-18,1,17,1,6,1,-13,1,-29,1,-28,1,-29,1
860,-22,1,-28,1,-6,1,25,1,-8,1,-17,1,17,1,7,1,-13,1,-29,1,-27,1,-28,1
861,-22,1,-28,1,-6,1,25,1,-8,1,-17,1,17,1,7,1,-13,1,-29,1,-27,1,-28,1
862,-23,1,-29,1,-6,1,26,1,-9,1,-18,1,17,1,7,1,-13,1,-28,1,-27,1,-29,1
863,-23,1,-28,1,-5,1,25,1,-9,1,-17,1,16,1,7,1,-14,1,-27,1,-27,1,-28,1
864,-24,1,-29,1,-5,1,26,1,-10,1,-17,1,16,1,7,1,-14,1,-28,1,-26,1,-28,1
865,-24,1,-29,1,-5,1,26,1,-10,1,-17,1,15,1,7,1,-14,1,-27,1,-25,1,-28,1
866,-22,1,-28,1,-6,1,25,1,-8,1,-17,1,16,1,7,1,-13,1,-26,1,-25,1,-27,1
867,-22,1,-27,1,-5,1,24,1,-9,1,-16,1,16,1,8,1,-13,1,-25,1,-24,1,-27,1
868,-22,1,-26,1,-4,1,24,1,-9,1,-15,1,17,1,8,1,-13,1,-25,1,-24,1,-26,1
869,-21,1,-26,1,-5,1,23,1,-8,1,-16,1,17,1,8,1,-13,1,-25,1,-24,1,-26,1
870,-20,1,-26,1,-6,1,23,1,-7,1,-16,1,17,1,9,1,-14,1,-25,1,-23,1,-27,1
871,-20,1,-26,1,-6,1,23,1,-7,1,-16,1,17,1,9,1,-14,1,-26,1,-23,1,-26,1
872,-20,1,-26,1,-6,1,23,1,-7,1,-16,1,17,1,8,1,-14,1,-27,1,-23,1,-27,1
873,-21,1,-27,1,-6,1,24,1,-8,1,-17,1,16,1,7,1,-14,1,-27,1,-23,1,-27,1
874,-20,1,-27,1,-7,1,23,1,-7,1,-17,1,16,1,6,1,-14,1,-27,1,-22,1,-27,1
875,-20,1,-27,1,-7,1,23,1,-7,1,-17,1,16,1,6,1,-14,1,-27,1,-22,1,-27,1
876,-20,1,-27,1,-7,1,23,1,-7,1,-17,1,15,1,6,1,-15,1,-26,1,-22,1,-27,1
877,-21,1,-27,1,-6,1,24,1,-8,1,-17,1,15,1,6,1,-15,1,-26,1,-22,1,-27,1
878,-21,1,-27,1,-6,1,24,1,-8,1,-17,1,15,1,6,1,-15,1,-26,1,-21,1,-28,1
879,-21,1,-27,1,-6,1,24,1,-8,1,-17,1,15,1,6,1,-14,1,-25,1,-21,1,-27,1
880,-21,1,-28,1,-7,1,24,1,-7,1,-18,1,13,1,6,1,-14,1,-26,1,-21,1,-27,1
881,-21,1,-28,1,-7,1,24,1,-7,1,-18,1,13,1,6,1,-15,1,-27,1,-22,1,-28,1
882,-22,1,-28,1,-6,1,25,1,-8,1,-17,1,13,1,5,1,-15,1,-28,1,-22,1,-28,1
883,-23,1,-29,1,-6,1,26,1,-9,1,-18,1,12,1,4,1,-17,1,-28,1,-22,1,-29,1
884,-23,1,-29,1,-6,1,26,1,-9,1,-18,1,12,1,4,1,-18,1,-28,1,-22,1,-30,1
885,-21,1,-28,1,-7,1,24,1,-7,1,-18,1,13,1,4,1,-18,1,-28,1,-21,1,-29,1
886,-20,1,-27,1,-7,1,23,1,-7,1,-17,1,13,1,4,1,-19,1,-29,1,-21,1,-29,1
887,-20,1,-27,1,-7,1,23,1,-7,1,-17,1,13,1,4,1,-19,1,-29,1,-21,1,-28,1
888,-20,1,-27,1,-7,1,23,1,-7,1,-17,1,14,1,3,1,-19,1,-30,1,-21,1,-28,1
889,-20,1,-28,1,-8,1,24,1,-6,1,-18,1,14,1,3,1,-20,1,-31,1,-22,1,-29,1
890,-20,1,-28,1,-8,1,24,1,-6,1,-18,1,14,1,2,1,-20,1,-30,1,-22,1,-28,1
891,-19,1,-27,1,-8,1,23,1,-6,1,-18,1,14,1,2,1,-20,1,-30,1,-21,1,-28,1
892,-19,1,-27,1,-8,1,23,1,-6,1,-18,1,14,1,1,1,-21,1,-30,1,-21,1,-27,1
893,-19,1,-27,1,-8,1,23,1,-6,1,-18,1,14,1,1,1,-20,1,-30,1,-22,1,-26,1
894,-20,1,-27,1,-7,1,23,1,-7,1,-17,1,14,1,2,1,-20,1,-30,1,-21,1,-26,1
895,-20,1,-25,1,-5,1,22,1,-8,1,-15,1,14,1,2,1,-19,1,-30,1,-21,1,-26,1
896,-20,1,-25,1,-5,1,22,1,-8,1,-15,1,14,1,1,1,-18,1,-30,1,-21,1,-25,1
897,-21,1,-26,1,-5,1,23,1,-8,1,-16,1,15,1,1,1,-18,1,-30,1,-21,1,-25,1
898,-20,1,-25,1,-5,1,22,1,-8,1,-15,1,15,1,1,1,-18,1,-29,1,-21,1,-25,1
899,-21,1,-25,1,-4,1,23,1,-9,1,-15,1,16,1,1,1,-18,1,-29,1,-20,1,-25,1
900,-21,1,-25,1,-4,1,23,1,-9,1,-15,1,16,1,1,1,-18,1,-29,1,-20,1,-25,1
901,-22,1,-24,1,-2,1,23,1,-10,1,-13,1,17,1,1,1,-17,1,-29,1,-20,1,-26,1
902,-23,1,-25,1,-2,1,24,1,-11,1,-14,1,19,1,2,1,-17,1,-29,1,-20,1,-25,1
903,-25,1,-26,1,-1,1,25,1,-12,1,-14,1,21,1,2,1,-16,1,-29,1,-20,1,-26,1
904,-24,1,-25,1,-1,1,24,1,-12,1,-13,1,22,1,4,1,-15,1,-28,1,-20,1,-27,1
905,-22,1,-23,1,-1,1,22,1,-11,1,-12,1,23,1,6,1,-14,1,-26,1,-18,1,-26,1
906,-19,1,-21,1,-2,1,20,1,-9,1,-12,1,24,1,8,1,-13,1,-25,1,-18,1,-25,1
907,-15,1,-19,1,-4,1,17,1,-6,1,-12,1,23,1,9,1,-13,1,-25,1,-18,1,-25,1
908,-12,1,-18,1,-6,1,15,1,-3,1,-12,1,22,1,9,1,-13,1,-25,1,-18,1,-24,1
909,-9,1,-18,1,-9,1,13,1,0,1,-14,1,20,1,8,1,-13,1,-26,1,-18,1,-24,1
910,-7,1,-17,1,-10,1,12,1,1,1,-14,1,18,1,7,1,-14,1,-26,1,-17,1,-23,1
911,-4,1,-14,1,-10,1,9,1,3,1,-12,1,16,1,5,1,-14,1,-26,1,-16,1,-22,1
912,-1,1,-12,1,-11,1,6,1,5,1,-12,1,12,1,3,1,-15,1,-26,1,-16,1,-22,1
913,0,1,-12,1,-12,1,6,1,6,1,-12,1,7,1,-1,1,-16,1,-27,1,-16,1,-22,1
914,1,1,-12,1,-13,1,5,1,7,1,-12,1,4,1,-3,1,-17,1,-27,1,-17,1,-22,1
915,2,1,-12,1,-14,1,5,1,8,1,-13,1,2,1,-5,1,-19,1,-28,1,-17,1,-23,1
916,2,1,-12,1,-14,1,5,1,8,1,-13,1,0,1,-7,1,-19,1,-29,1,-18,1,-23,1
917,1,1,-14,1,-15,1,6,1,8,1,-14,1,-1,1,-9,1,-20,1,-29,1,-18,1,-23,1
918,2,1,-14,1,-16,1,6,1,9,1,-15,1,-2,1,-11,1,-21,1,-29,1,-19,1,-24,1
919,4,1,-14,1,-18,1,5,1,11,1,-16,1,-2,1,-11,1,-21,1,-29,1,-19,1,-24,1
920,4,1,-15,1,-19,1,5,1,11,1,-17,1,-1,1,-11,1,-23,1,-30,1,-20,1,-25,1
921,4,1,-16,1,-20,1,6,1,12,1,-18,1,-1,1,-10,1,-24,1,-30,1,-20,1,-26,1
922,7,1,-16,1,-23,1,4,1,15,1,-19,1,0,1,-9,1,-25,1,-30,1,-20,1,-25,1
923,9,1,-17,1,-26,1,4,1,17,1,-21,1,1,1,-9,1,-25,1,-31,1,-20,1,-25,1
924,10,1,-19,1,-29,1,4,1,19,1,-24,1,1,1,-8,1,-26,1,-30,1,-21,1,-26,1
925,11,1,-20,1,-31,1,4,1,21,1,-25,1,1,1,-8,1,-26,1,-30,1,-21,1,-27,1
926,11,1,-22,1,-33,1,5,1,22,1,-27,1,1,1,-8,1,-26,1,-30,1,-21,1,-27,1
927,10,1,-24,1,-34,1,7,1,22,1,-29,1,1,1,-9,1,-26,1,-30,1,-22,1,-28,1
928,8,1,-27,1,-35,1,9,1,21,1,-31,1,2,1,-9,1,-26,1,-31,1,-23,1,-29,1
929,7,1,-29,1,-36,1,11,1,21,1,-32,1,2,1,-8,1,-27,1,-32,1,-23,1,-29,1
930,7,1,-31,1,-38,1,12,1,22,1,-34,1,3,1,-8,1,-28,1,-33,1,-24,1,-30,1
931,7,1,-32,1,-39,1,12,1,23,1,-35,1,2,1,-10,1,-30,1,-35,1,-25,1,-33,1
932,6,1,-33,1,-39,1,13,1,22,1,-36,1,2,1,-12,1,-32,1,-37,1,-27,1,-34,1
933,5,1,-33,1,-38,1,14,1,21,1,-35,1,3,1,-14,1,-34,1,-38,1,-29,1,-35,1
934,4,1,-33,1,-37,1,14,1,20,1,-35,1,2,1,-15,1,-35,1,-40,1,-32,1,-37,1
935,2,1,-35,1,-37,1,16,1,19,1,-36,1,2,1,-16,1,-37,1,-42,1,-34,1,-37,1
936,2,1,-37,1,-39,1,17,1,20,1,-38,1,3,1,-17,1,-38,1,-43,1,-36,1,-38,1
937,1,1,-37,1,-38,1,18,1,19,1,-37,1,3,1,-18,1,-39,1,-45,1,-37,1,-38,1
938,1,1,-39,1,-40,1,19,1,20,1,-39,1,4,1,-18,1,-39,1,-47,1,-38,1,-39,1
939,1,1,-41,1,-42,1,20,1,21,1,-41,1,4,1,-18,1,-40,1,-48,1,-39,1,-40,1
940,1,1,-42,1,-43,1,20,1,22,1,-42,1,4,1,-19,1,-40,1,-48,1,-39,1,-41,1
941,2,1,-42,1,-44,1,20,1,23,1,-43,1,4,1,-19,1,-40,1,-49,1,-40,1,-41,1
942,1,1,-41,1,-42,1,20,1,21,1,-41,1,4,1,-19,1,-41,1,-50,1,-40,1,-42,1
943,0,1,-43,1,-43,1,21,1,21,1,-43,1,3,1,-19,1,-41,1,-50,1,-41,1,-42,1
944,-1,1,-44,1,-43,1,22,1,21,1,-44,1,3,1,-20,1,-41,1,-51,1,-41,1,-42,1
945,-2,1,-45,1,-43,1,23,1,20,1,-44,1,2,1,-20,1,-42,1,-50,1,-41,1,-42,1
946,-2,1,-46,1,-44,1,24,1,21,1,-45,1,1,1,-20,1,-43,1,-50,1,-40,1,-42,1
947,-2,1,-47,1,-45,1,24,1,21,1,-46,1,1,1,-20,1,-43,1,-50,1,-40,1,-43,1
948,-3,1,-48,1,-45,1,25,1,21,1,-47,1,1,1,-20,1,-43,1,-50,1,-41,1,-43,1
949,-3,1,-49,1,-46,1,26,1,21,1,-48,1,1,1,-19,1,-43,1,-50,1,-41,1,-43,1
950,-1,1,-47,1,-46,1,24,1,22,1,-47,1,1,1,-18,1,-42,1,-50,1,-41,1,-43,1
951,-1,1,-47,1,-46,1,24,1,22,1,-47,1,1,1,-17,1,-42,1,-50,1,-41,1,-43,1
952,-2,1,-47,1,-45,1,24,1,21,1,-46,1,1,1,-17,1,-42,1,-51,1,-42,1,-43,1
953,-2,1,-47,1,-45,1,24,1,21,1,-46,1,2,1,-17,1,-42,1,-51,1,-42,1,-43,1
954,-1,1,-48,1,-47,1,24,1,23,1,-48,1,2,1,-16,1,-42,1,-51,1,-41,1,-43,1
955,-1,1,-47,1,-46,1,24,1,22,1,-47,1,1,1,-16,1,-41,1,-50,1,-41,1,-42,1
956,0,1,-47,1,-47,1,23,1,23,1,-47,1,2,1,-16,1,-40,1,-49,1,-40,1,-42,1
957,0,1,-47,1,-47,1,23,1,23,1,-47,1,3,1,-15,1,-39,1,-48,1,-40,1,-42,1
958,0,1,-45,1,-45,1,22,1,22,1,-45,1,4,1,-15,1,-38,1,-48,1,-40,1,-41,1
959,0,1,-45,1,-45,1,22,1,22,1,-45,1,5,1,-13,1,-37,1,-48,1,-41,1,-41,1
960,-1,1,-45,1,-44,1,23,1,21,1,-45,1,8,1,-10,1,-35,1,-48,1,-42,1,-42,1
961,-3,1,-46,1,-43,1,24,1,20,1,-45,1,12,1,-5,1,-33,1,-48,1,-43,1,-44,1
962,-6,1,-46,1,-40,1,26,1,17,1,-43,1,17,1,2,1,-30,1,-49,1,-45,1,-45,1
963,-7,1,-45,1,-38,1,26,1,15,1,-42,1,24,1,13,1,-25,1,-48,1,-45,1,-46,1
964,-8,1,-43,1,-35,1,25,1,13,1,-39,1,32,1,29,1,-18,1,-46,1,-45,1,-47,1
965,-6,1,-42,1,-36,1,24,1,15,1,-39,1,41,1,50,1,-8,1,-43,1,-45,1,-47,1
966,-5,1,-41,1,-36,1,23,1,15,1,-39,1,50,1,69,1,2,1,-38,1,-43,1,-47,1
967,-2,1,-39,1,-37,1,20,1,17,1,-38,1,58,1,88,1,15,1,-29,1,-39,1,-46,1
968,2,1,-35,1,-37,1,16,1,19,1,-36,1,67,1,106,1,28,1,-17,1,-33,1,-42,1
969,8,1,-29,1,-37,1,10,1,22,1,-33,1,74,1,124,1,44,1,0,1,-22,1,-38,1
970,16,1,-23,1,-39,1,3,1,27,1,-31,1,82,1,147,1,64,1,22,1,-8,1,-32,1
971,26,1,-17,1,-43,1,-4,1,34,1,-30,1,88,1,172,1,87,1,48,1,9,1,-22,1
972,38,1,-5,1,-43,1,-16,1,40,1,-24,1,92,1,194,1,116,1,84,1,37,1,-5,1
973,52,1,14,1,-38,1,-33,1,45,1,-12,1,88,1,205,1,147,1,124,1,73,1,19,1
974,68,1,39,1,-29,1,-53,1,49,1,5,1,79,1,206,1,177,1,169,1,116,1,51,1
975,85,1,70,1,-15,1,-77,1,50,1,28,1,64,1,196,1,207,1,220,1,166,1,90,1
976,102,1,106,1,4,1,-104,1,49,1,55,1,41,1,170,1,235,1,274,1,219,1,131,1
977,118,1,143,1,25,1,-130,1,47,1,84,1,11,1,127,1,260,1,331,1,273,1,175,1
978,128,1,179,1,51,1,-153,1,39,1,115,1,-19,1,77,1,289,1,391,1,325,1,214,1
979,129,1,208,1,79,1,-168,1,25,1,144,1,-43,1,31,1,326,1,455,1,371,1,246,1
980,128,1,234,1,106,1,-181,1,11,1,170,1,-68,1,-20,1,363,1,514,1,412,1,273,1
981,124,1,253,1,129,1,-188,1,-2,1,191,1,-93,1,-82,1,387,1,557,1,443,1,293,1
982,116,1,261,1,145,1,-188,1,-14,1,203,1,-116,1,-138,1,398,1,577,1,456,1,301,1
983,101,1,256,1,155,1,-178,1,-27,1,206,1,-132,1,-185,1,386,1,565,1,446,1,296,1
984,80,1,237,1,157,1,-158,1,-38,1,197,1,-139,1,-231,1,337,1,506,1,406,1,274,1
985,54,1,209,1,155,1,-131,1,-50,1,182,1,-139,1,-269,1,256,1,402,1,338,1,237,1
986,28,1,171,1,143,1,-99,1,-57,1,157,1,-134,1,-287,1,166,1,284,1,257,1,192,1
987,4,1,128,1,124,1,-66,1,-60,1,126,1,-129,1,-292,1,83,1,172,1,174,1,141,1
988,-15,1,84,1,99,1,-34,1,-57,1,91,1,-124,1,-289,1,12,1,76,1,96,1,89,1
989,-27,1,41,1,68,1,-7,1,-47,1,54,1,-117,1,-278,1,-36,1,3,1,28,1,39,1
990,-34,1,7,1,41,1,13,1,-37,1,24,1,-111,1,-263,1,-66,1,-42,1,-19,1,1,1
991,-36,1,-14,1,22,1,25,1,-29,1,4,1,-108,1,-252,1,-86,1,-70,1,-46,1,-23,1
992,-35,1,-29,1,6,1,32,1,-21,1,-12,1,-107,1,-241,1,-96,1,-86,1,-62,1,-36,1
993,-31,1,-38,1,-7,1,34,1,-12,1,-23,1,-103,1,-224,1,-96,1,-92,1,-69,1,-44,1
994,-26,1,-44,1,-18,1,35,1,-4,1,-31,1,-97,1,-200,1,-89,1,-91,1,-69,1,-48,1
995,-20,1,-45,1,-25,1,32,1,2,1,-35,1,-90,1,-173,1,-80,1,-85,1,-66,1,-49,1
996,-15,1,-44,1,-29,1,29,1,7,1,-37,1,-83,1,-148,1,-73,1,-79,1,-63,1,-48,1
997,-11,1,-42,1,-31,1,26,1,10,1,-37,1,-74,1,-124,1,-67,1,-73,1,-59,1,-46,1
998,-7,1,-39,1,-32,1,23,1,12,1,-36,1,-63,1,-101,1,-60,1,-65,1,-54,1,-42,1
999,-3,1,-37,1,-34,1,20,1,15,1,-36,1,-50,1,-80,1,-53,1,-57,1,-51,1,-39,1
1000,-1,1,-37,1,-36,1,19,1,17,1,-37,1,-37,1,-62,1,-48,1,-50,1,-49,1,-38,1
1001,-1,1,-37,1,-36,1,19,1,17,1,-37,1,-26,1,-50,1,-45,1,-48,1,-48,1,-36,1
1002,0,1,-36,1,-36,1,18,1,18,1,-36,1,-17,1,-42,1,-43,1,-46,1,-47,1,-35,1
1003,0,1,-33,1,-33,1,16,1,16,1,-33,1,-10,1,-35,1,-39,1,-44,1,-45,1,-33,1
1004,0,1,-33,1,-33,1,16,1,16,1,-33,1,-6,1,-29,1,-36,1,-42,1,-43,1,-31,1
1005,-1,1,-32,1,-31,1,16,1,15,1,-32,1,-3,1,-21,1,-32,1,-40,1,-41,1,-30,1
1006,-1,1,-31,1,-30,1,16,1,14,1,-31,1,-1,1,-13,1,-29,1,-38,1,-40,1,-29,1
1007,0,1,-31,1,-31,1,15,1,15,1,-31,1,1,1,-6,1,-27,1,-37,1,-39,1,-29,1
1008,0,1,-31,1,-31,1,15,1,15,1,-31,1,2,1,-1,1,-26,1,-37,1,-39,1,-29,1
1009,0,1,-33,1,-33,1,16,1,16,1,-33,1,3,1,0,1,-26,1,-37,1,-40,1,-30,1
1010,0,1,-33,1,-33,1,16,1,16,1,-33,1,5,1,1,1,-27,1,-37,1,-40,1,-29,1
1011,0,1,-32,1,-32,1,16,1,16,1,-32,1,6,1,0,1,-27,1,-37,1,-41,1,-30,1
1012,0,1,-32,1,-32,1,16,1,16,1,-32,1,7,1,0,1,-28,1,-38,1,-41,1,-30,1
1013,2,1,-31,1,-33,1,14,1,17,1,-32,1,8,1,1,1,-28,1,-36,1,-40,1,-29,1
1014,3,1,-31,1,-34,1,14,1,18,1,-32,1,8,1,3,1,-28,1,-36,1,-39,1,-30,1
1015,3,1,-32,1,-35,1,14,1,19,1,-33,1,8,1,4,1,-28,1,-36,1,-39,1,-31,1
1016,3,1,-33,1,-36,1,15,1,19,1,-34,1,8,1,6,1,-29,1,-35,1,-39,1,-30,1
1017,2,1,-32,1,-34,1,15,1,18,1,-33,1,8,1,8,1,-28,1,-35,1,-38,1,-31,1
1018,3,1,-31,1,-34,1,14,1,18,1,-32,1,8,1,10,1,-27,1,-34,1,-38,1,-30,1
1019,4,1,-29,1,-33,1,12,1,18,1,-31,1,9,1,12,1,-26,1,-33,1,-37,1,-29,1
1020,5,1,-29,1,-34,1,12,1,19,1,-31,1,9,1,12,1,-26,1,-32,1,-37,1,-28,1
1021,5,1,-29,1,-34,1,12,1,19,1,-31,1,9,1,12,1,-25,1,-31,1,-37,1,-28,1
1022,6,1,-28,1,-34,1,11,1,20,1,-31,1,10,1,12,1,-24,1,-30,1,-37,1,-27,1
1023,6,1,-28,1,-34,1,11,1,20,1,-31,1,11,1,13,1,-24,1,-30,1,-35,1,-26,1
1024,7,1,-28,1,-35,1,10,1,21,1,-31,1,11,1,15,1,-23,1,-28,1,-34,1,-25,1
1025,7,1,-28,1,-35,1,10,1,21,1,-31,1,11,1,16,1,-23,1,-27,1,-33,1,-24,1
1026,7,1,-29,1,-36,1,11,1,21,1,-32,1,11,1,17,1,-22,1,-26,1,-32,1,-23,1
1027,7,1,-28,1,-35,1,10,1,21,1,-31,1,10,1,17,1,-22,1,-26,1,-32,1,-23,1
1028,7,1,-28,1,-35,1,10,1,21,1,-31,1,10,1,17,1,-21,1,-25,1,-31,1,-22,1
1029,7,1,-28,1,-35,1,10,1,21,1,-31,1,10,1,17,1,-21,1,-25,1,-31,1,-22,1
1030,7,1,-28,1,-35,1,10,1,21,1,-31,1,10,1,17,1,-20,1,-24,1,-30,1,-22,1
1031,8,1,-26,1,-34,1,9,1,21,1,-30,1,9,1,18,1,-19,1,-22,1,-30,1,-20,1
1032,8,1,-25,1,-33,1,8,1,20,1,-29,1,9,1,19,1,-18,1,-21,1,-29,1,-20,1
1033,9,1,-22,1,-31,1,6,1,20,1,-26,1,9,1,20,1,-18,1,-19,1,-28,1,-21,1
1034,10,1,-21,1,-31,1,5,1,20,1,-26,1,9,1,21,1,-17,1,-19,1,-28,1,-20,1
1035,11,1,-20,1,-31,1,4,1,21,1,-25,1,9,1,22,1,-17,1,-17,1,-27,1,-20,1
1036,11,1,-20,1,-31,1,4,1,21,1,-25,1,8,1,22,1,-16,1,-16,1,-26,1,-19,1
1037,12,1,-20,1,-32,1,4,1,22,1,-26,1,8,1,24,1,-15,1,-15,1,-25,1,-17,1
1038,12,1,-19,1,-31,1,3,1,21,1,-25,1,8,1,25,1,-15,1,-14,1,-25,1,-17,1
1039,12,1,-20,1,-32,1,4,1,22,1,-26,1,8,1,26,1,-14,1,-13,1,-24,1,-16,1
1040,12,1,-19,1,-31,1,3,1,21,1,-25,1,8,1,28,1,-13,1,-12,1,-22,1,-14,1
1041,13,1,-19,1,-32,1,3,1,22,1,-25,1,8,1,29,1,-12,1,-10,1,-21,1,-14,1
1042,14,1,-18,1,-32,1,2,1,23,1,-25,1,8,1,30,1,-11,1,-8,1,-20,1,-13,1
1043,13,1,-18,1,-31,1,2,1,22,1,-24,1,7,1,31,1,-11,1,-7,1,-19,1,-11,1
1044,14,1,-16,1,-30,1,1,1,22,1,-23,1,6,1,32,1,-9,1,-5,1,-18,1,-11,1
1045,14,1,-15,1,-29,1,0,1,21,1,-22,1,5,1,34,1,-7,1,-3,1,-17,1,-9,1
1046,15,1,-15,1,-30,1,0,1,22,1,-22,1,4,1,36,1,-5,1,-2,1,-15,1,-7,1
1047,16,1,-14,1,-30,1,-1,1,23,1,-22,1,3,1,37,1,-3,1,0,1,-14,1,-6,1
1048,17,1,-14,1,-31,1,-1,1,24,1,-22,1,2,1,39,1,-3,1,1,1,-12,1,-6,1
1049,17,1,-13,1,-30,1,-2,1,23,1,-21,1,2,1,40,1,-1,1,3,1,-11,1,-4,1
1050,18,1,-12,1,-30,1,-3,1,24,1,-21,1,2,1,41,1,0,1,6,1,-9,1,-3,1
1051,18,1,-11,1,-29,1,-3,1,23,1,-20,1,2,1,44,1,1,1,8,1,-8,1,-2,1
1052,20,1,-8,1,-28,1,-6,1,24,1,-18,1,1,1,46,1,2,1,11,1,-6,1,0,1
1053,23,1,-5,1,-28,1,-9,1,25,1,-16,1,0,1,48,1,5,1,13,1,-4,1,1,1
1054,24,1,-2,1,-26,1,-11,1,25,1,-14,1,0,1,50,1,7,1,16,1,-2,1,3,1
1055,25,1,-1,1,-26,1,-12,1,25,1,-13,1,-1,1,51,1,10,1,19,1,1,1,6,1
1056,27,1,2,1,-25,1,-14,1,26,1,-11,1,-2,1,53,1,13,1,23,1,6,1,8,1
1057,30,1,5,1,-25,1,-17,1,28,1,-10,1,-3,1,56,1,16,1,27,1,10,1,10,1
1058,33,1,8,1,-25,1,-20,1,29,1,-8,1,-4,1,58,1,18,1,30,1,13,1,13,1
1059,34,1,9,1,-25,1,-21,1,30,1,-8,1,-5,1,60,1,20,1,33,1,16,1,15,1
1060,34,1,9,1,-25,1,-21,1,30,1,-8,1,-7,1,62,1,21,1,36,1,18,1,17,1
1061,35,1,11,1,-24,1,-23,1,30,1,-6,1,-9,1,65,1,23,1,39,1,21,1,21,1
1062,36,1,12,1,-24,1,-24,1,30,1,-6,1,-11,1,67,1,24,1,42,1,24,1,23,1
1063,36,1,12,1,-24,1,-24,1,30,1,-6,1,-12,1,68,1,25,1,45,1,26,1,24,1
1064,37,1,12,1,-25,1,-24,1,31,1,-6,1,-14,1,70,1,26,1,48,1,30,1,28,1
1065,37,1,14,1,-23,1,-25,1,30,1,-4,1,-16,1,72,1,28,1,51,1,33,1,30,1
1066,37,1,15,1,-22,1,-26,1,30,1,-3,1,-19,1,73,1,29,1,53,1,35,1,32,1
1067,38,1,16,1,-22,1,-27,1,30,1,-3,1,-21,1,74,1,29,1,56,1,38,1,35,1
1068,42,1,20,1,-22,1,-31,1,32,1,-1,1,-23,1,76,1,31,1,60,1,41,1,38,1
1069,48,1,27,1,-21,1,-37,1,35,1,3,1,-23,1,79,1,32,1,63,1,45,1,40,1
1070,51,1,31,1,-20,1,-41,1,36,1,6,1,-24,1,80,1,33,1,65,1,48,1,43,1
1071,53,1,34,1,-19,1,-43,1,36,1,8,1,-26,1,81,1,32,1,66,1,49,1,44,1
1072,55,1,37,1,-18,1,-46,1,37,1,10,1,-27,1,81,1,31,1,67,1,50,1,45,1
1073,55,1,39,1,-16,1,-47,1,36,1,12,1,-28,1,81,1,31,1,69,1,52,1,47,1
1074,55,1,40,1,-15,1,-47,1,35,1,13,1,-28,1,81,1,30,1,69,1,53,1,49,1
1075,55,1,41,1,-14,1,-48,1,35,1,14,1,-28,1,81,1,29,1,70,1,54,1,50,1
1076,57,1,43,1,-14,1,-50,1,36,1,15,1,-29,1,80,1,27,1,70,1,55,1,52,1
1077,55,1,42,1,-13,1,-48,1,34,1,15,1,-30,1,80,1,26,1,70,1,56,1,52,1
1078,53,1,41,1,-12,1,-47,1,33,1,15,1,-30,1,80,1,24,1,69,1,57,1,52,1
1079,52,1,39,1,-13,1,-45,1,33,1,13,1,-31,1,79,1,22,1,68,1,56,1,53,1
1080,52,1,39,1,-13,1,-45,1,33,1,13,1,-32,1,77,1,21,1,67,1,56,1,53,1
1081,52,1,39,1,-13,1,-45,1,33,1,13,1,-32,1,76,1,19,1,66,1,56,1,52,1
1082,52,1,39,1,-13,1,-45,1,33,1,13,1,-32,1,75,1,17,1,65,1,56,1,53,1
1083,52,1,39,1,-13,1,-45,1,33,1,13,1,-32,1,73,1,15,1,64,1,56,1,53,1
1084,52,1,38,1,-14,1,-45,1,33,1,12,1,-32,1,72,1,12,1,62,1,55,1,52,1
1085,52,1,37,1,-15,1,-44,1,34,1,11,1,-32,1,70,1,10,1,60,1,53,1,51,1
1086,51,1,36,1,-15,1,-43,1,33,1,11,1,-31,1,68,1,8,1,58,1,51,1,49,1
1087,48,1,34,1,-14,1,-41,1,31,1,10,1,-30,1,66,1,5,1,56,1,49,1,48,1
1088,46,1,34,1,-12,1,-40,1,29,1,11,1,-29,1,65,1,3,1,53,1,47,1,46,1
1089,45,1,32,1,-13,1,-38,1,29,1,10,1,-27,1,63,1,1,1,50,1,44,1,44,1
1090,43,1,30,1,-13,1,-36,1,28,1,9,1,-25,1,60,1,-1,1,46,1,39,1,42,1
1091,41,1,28,1,-13,1,-34,1,27,1,8,1,-22,1,57,1,-5,1,42,1,35,1,40,1
1092,39,1,24,1,-15,1,-31,1,27,1,5,1,-20,1,55,1,-8,1,37,1,31,1,36,1
1093,35,1,20,1,-15,1,-27,1,25,1,3,1,-19,1,52,1,-11,1,32,1,28,1,32,1
1094,32,1,16,1,-16,1,-24,1,24,1,0,1,-17,1,50,1,-13,1,27,1,24,1,29,1
1095,31,1,13,1,-18,1,-22,1,25,1,-2,1,-15,1,48,1,-14,1,23,1,21,1,26,1
1096,29,1,10,1,-19,1,-19,1,24,1,-4,1,-13,1,46,1,-16,1,19,1,17,1,22,1
1097,27,1,8,1,-19,1,-17,1,23,1,-5,1,-10,1,44,1,-18,1,17,1,13,1,19,1
1098,25,1,7,1,-18,1,-16,1,22,1,-5,1,-7,1,42,1,-19,1,13,1,9,1,16,1
1099,21,1,4,1,-17,1,-12,1,19,1,-6,1,-4,1,39,1,-20,1,10,1,5,1,12,1
1100,18,1,0,1,-18,1,-9,1,18,1,-9,1,-1,1,37,1,-22,1,6,1,1,1,9,1
1101,16,1,-3,1,-19,1,-6,1,17,1,-11,1,0,1,35,1,-23,1,2,1,-3,1,5,1
1102,14,1,-6,1,-20,1,-4,1,17,1,-13,1,3,1,33,1,-24,1,-1,1,-7,1,2,1
1103,12,1,-10,1,-22,1,-1,1,17,1,-16,1,5,1,31,1,-24,1,-5,1,-11,1,-1,1
1104,10,1,-12,1,-22,1,1,1,16,1,-17,1,7,1,28,1,-26,1,-8,1,-14,1,-4,1
1105,9,1,-15,1,-24,1,3,1,16,1,-19,1,8,1,25,1,-27,1,-11,1,-16,1,-5,1
1106,8,1,-17,1,-25,1,4,1,16,1,-21,1,10,1,22,1,-28,1,-13,1,-19,1,-8,1
1107,7,1,-19,1,-26,1,6,1,16,1,-22,1,11,1,20,1,-28,1,-15,1,-21,1,-10,1
1108,5,1,-21,1,-26,1,8,1,15,1,-23,1,13,1,18,1,-29,1,-16,1,-24,1,-12,1
1109,2,1,-24,1,-26,1,11,1,14,1,-25,1,14,1,15,1,-30,1,-18,1,-27,1,-14,1
1110,0,1,-25,1,-25,1,12,1,12,1,-25,1,15,1,13,1,-30,1,-20,1,-29,1,-17,1
1111,-1,1,-25,1,-24,1,13,1,11,1,-25,1,16,1,11,1,-30,1,-22,1,-31,1,-18,1
1112,-1,1,-26,1,-25,1,13,1,12,1,-26,1,17,1,9,1,-30,1,-24,1,-34,1,-21,1
1113,-2,1,-28,1,-26,1,15,1,12,1,-27,1,18,1,8,1,-30,1,-27,1,-36,1,-23,1
1114,-1,1,-28,1,-27,1,14,1,13,1,-28,1,18,1,6,1,-30,1,-28,1,-37,1,-23,1
1115,0,1,-28,1,-28,1,14,1,14,1,-28,1,19,1,5,1,-29,1,-29,1,-37,1,-24,1
1116,-1,1,-29,1,-28,1,15,1,13,1,-29,1,20,1,3,1,-29,1,-30,1,-38,1,-24,1
1117,-2,1,-30,1,-28,1,16,1,13,1,-29,1,21,1,2,1,-29,1,-30,1,-38,1,-24,1
1118,-4,1,-32,1,-28,1,18,1,12,1,-30,1,21,1,1,1,-29,1,-31,1,-39,1,-25,1
1119,-5,1,-33,1,-28,1,19,1,11,1,-31,1,21,1,1,1,-29,1,-32,1,-40,1,-26,1
1120,-5,1,-34,1,-29,1,19,1,12,1,-32,1,21,1,0,1,-28,1,-33,1,-41,1,-26,1
1121,-6,1,-34,1,-28,1,20,1,11,1,-31,1,21,1,-1,1,-28,1,-34,1,-42,1,-27,1
1122,-8,1,-36,1,-28,1,22,1,10,1,-32,1,20,1,-3,1,-29,1,-35,1,-43,1,-29,1
1123,-9,1,-38,1,-29,1,23,1,10,1,-34,1,19,1,-4,1,-30,1,-35,1,-44,1,-30,1
1124,-10,1,-39,1,-29,1,24,1,9,1,-34,1,18,1,-5,1,-31,1,-36,1,-44,1,-31,1
1125,-10,1,-39,1,-29,1,24,1,9,1,-34,1,18,1,-7,1,-31,1,-37,1,-45,1,-30,1
1126,-10,1,-39,1,-29,1,24,1,9,1,-34,1,18,1,-7,1,-31,1,-37,1,-45,1,-31,1
1127,-10,1,-38,1,-28,1,24,1,9,1,-33,1,18,1,-8,1,-31,1,-36,1,-45,1,-31,1
1128,-10,1,-38,1,-28,1,24,1,9,1,-33,1,19,1,-9,1,-31,1,-36,1,-45,1,-30,1
1129,-9,1,-36,1,-27,1,22,1,9,1,-32,1,19,1,-9,1,-30,1,-36,1,-44,1,-30,1
1130,-6,1,-34,1,-28,1,20,1,11,1,-31,1,19,1,-10,1,-30,1,-36,1,-44,1,-30,1
1131,-4,1,-33,1,-29,1,18,1,12,1,-31,1,19,1,-10,1,-30,1,-36,1,-44,1,-30,1
1132,-2,1,-32,1,-30,1,17,1,14,1,-31,1,19,1,-10,1,-30,1,-37,1,-44,1,-30,1
1133,-1,1,-31,1,-30,1,16,1,14,1,-31,1,20,1,-9,1,-30,1,-37,1,-44,1,-31,1
1134,-2,1,-31,1,-29,1,16,1,13,1,-30,1,20,1,-9,1,-29,1,-36,1,-44,1,-30,1
1135,-3,1,-32,1,-29,1,17,1,13,1,-31,1,20,1,-8,1,-29,1,-36,1,-44,1,-30,1
1136,-4,1,-33,1,-29,1,18,1,12,1,-31,1,20,1,-8,1,-29,1,-36,1,-44,1,-30,1
1137,-6,1,-34,1,-28,1,20,1,11,1,-31,1,19,1,-8,1,-29,1,-36,1,-44,1,-29,1
1138,-7,1,-34,1,-27,1,20,1,10,1,-31,1,19,1,-8,1,-30,1,-36,1,-45,1,-30,1
1139,-8,1,-35,1,-27,1,21,1,9,1,-31,1,20,1,-9,1,-30,1,-36,1,-44,1,-30,1
1140,-9,1,-35,1,-26,1,22,1,8,1,-31,1,20,1,-9,1,-29,1,-36,1,-43,1,-29,1
1141,-9,1,-36,1,-27,1,22,1,9,1,-32,1,20,1,-8,1,-28,1,-35,1,-42,1,-29,1
1142,-7,1,-35,1,-28,1,21,1,10,1,-32,1,21,1,-7,1,-27,1,-35,1,-42,1,-29,1
1143,-6,1,-36,1,-30,1,21,1,12,1,-33,1,21,1,-6,1,-26,1,-33,1,-41,1,-28,1
1144,-5,1,-35,1,-30,1,20,1,12,1,-33,1,22,1,-6,1,-25,1,-32,1,-41,1,-28,1
1145,-5,1,-35,1,-30,1,20,1,12,1,-33,1,22,1,-6,1,-25,1,-32,1,-41,1,-28,1
1146,-5,1,-35,1,-30,1,20,1,12,1,-33,1,22,1,-5,1,-24,1,-32,1,-41,1,-28,1
1147,-4,1,-34,1,-30,1,19,1,13,1,-32,1,23,1,-5,1,-24,1,-31,1,-41,1,-28,1
1148,-5,1,-34,1,-29,1,19,1,12,1,-32,1,23,1,-4,1,-23,1,-31,1,-40,1,-28,1
1149,-6,1,-35,1,-29,1,20,1,11,1,-32,1,23,1,-4,1,-23,1,-31,1,-40,1,-27,1
1150,-8,1,-35,1,-27,1,21,1,9,1,-31,1,23,1,-3,1,-22,1,-31,1,-40,1,-27,1
1151,-9,1,-35,1,-26,1,22,1,8,1,-31,1,23,1,-3,1,-22,1,-30,1,-40,1,-28,1
1152,-8,1,-35,1,-27,1,21,1,9,1,-31,1,23,1,-3,1,-20,1,-30,1,-38,1,-27,1
1153,-7,1,-35,1,-28,1,21,1,10,1,-32,1,23,1,-2,1,-19,1,-29,1,-37,1,-27,1
1154,-8,1,-35,1,-27,1,21,1,9,1,-31,1,23,1,-2,1,-19,1,-28,1,-37,1,-27,1
1155,-8,1,-37,1,-29,1,22,1,10,1,-33,1,22,1,-3,1,-18,1,-28,1,-37,1,-27,1
1156,-8,1,-36,1,-28,1,22,1,10,1,-32,1,22,1,-2,1,-17,1,-28,1,-37,1,-27,1
1157,-7,1,-36,1,-29,1,21,1,11,1,-33,1,23,1,-2,1,-16,1,-27,1,-37,1,-28,1
1158,-6,1,-34,1,-28,1,20,1,11,1,-31,1,23,1,-1,1,-16,1,-27,1,-36,1,-27,1
1159,-5,1,-33,1,-28,1,19,1,11,1,-31,1,24,1,0,1,-15,1,-25,1,-35,1,-27,1
1160,-4,1,-32,1,-28,1,18,1,12,1,-30,1,24,1,0,1,-14,1,-25,1,-35,1,-27,1
1161,-4,1,-32,1,-28,1,18,1,12,1,-30,1,24,1,1,1,-13,1,-24,1,-34,1,-26,1
1162,-4,1,-31,1,-27,1,17,1,11,1,-29,1,24,1,1,1,-13,1,-23,1,-34,1,-27,1
1163,-4,1,-32,1,-28,1,18,1,12,1,-30,1,24,1,2,1,-13,1,-22,1,-34,1,-26,1
1164,-4,1,-32,1,-28,1,18,1,12,1,-30,1,24,1,2,1,-13,1,-22,1,-34,1,-26,1
1165,-4,1,-32,1,-28,1,18,1,12,1,-30,1,24,1,2,1,-13,1,-21,1,-34,1,-26,1
1166,-4,1,-32,1,-28,1,18,1,12,1,-30,1,24,1,2,1,-12,1,-21,1,-34,1,-26,1
1167,-4,1,-32,1,-28,1,18,1,12,1,-30,1,25,1,3,1,-12,1,-20,1,-33,1,-25,1
1168,-4,1,-32,1,-28,1,18,1,12,1,-30,1,25,1,3,1,-12,1,-21,1,-33,1,-26,1
1169,-5,1,-33,1,-28,1,19,1,11,1,-31,1,25,1,3,1,-12,1,-21,1,-33,1,-27,1
1170,-4,1,-33,1,-29,1,18,1,12,1,-31,1,25,1,3,1,-12,1,-21,1,-32,1,-26,1
1171,-4,1,-33,1,-29,1,18,1,12,1,-31,1,25,1,3,1,-11,1,-21,1,-32,1,-26,1
1172,-5,1,-32,1,-27,1,18,1,11,1,-30,1,25,1,3,1,-12,1,-21,1,-33,1,-26,1
1173,-6,1,-32,1,-26,1,19,1,10,1,-29,1,25,1,3,1,-11,1,-21,1,-33,1,-25,1
1174,-6,1,-31,1,-25,1,18,1,9,1,-28,1,25,1,3,1,-11,1,-20,1,-32,1,-25,1
1175,-6,1,-31,1,-25,1,18,1,9,1,-28,1,25,1,3,1,-10,1,-20,1,-31,1,-25,1
1176,-7,1,-32,1,-25,1,19,1,9,1,-29,1,25,1,3,1,-11,1,-20,1,-32,1,-24,1
1177,-7,1,-33,1,-26,1,20,1,9,1,-30,1,24,1,2,1,-11,1,-21,1,-32,1,-25,1
1178,-7,1,-34,1,-27,1,20,1,10,1,-31,1,24,1,2,1,-11,1,-20,1,-32,1,-24,1
1179,-7,1,-34,1,-27,1,20,1,10,1,-31,1,24,1,3,1,-11,1,-21,1,-33,1,-25,1
1180,-6,1,-33,1,-27,1,19,1,10,1,-30,1,23,1,3,1,-12,1,-22,1,-33,1,-25,1
1181,-5,1,-33,1,-28,1,19,1,11,1,-31,1,23,1,2,1,-12,1,-22,1,-33,1,-25,1
1182,-4,1,-32,1,-28,1,18,1,12,1,-30,1,23,1,2,1,-12,1,-23,1,-33,1,-25,1
1183,-3,1,-32,1,-29,1,17,1,13,1,-31,1,24,1,1,1,-12,1,-23,1,-33,1,-25,1
1184,-5,1,-33,1,-28,1,19,1,11,1,-31,1,23,1,0,1,-12,1,-23,1,-33,1,-24,1
1185,-7,1,-34,1,-27,1,20,1,10,1,-31,1,23,1,0,1,-12,1,-23,1,-33,1,-24,1
1186,-7,1,-34,1,-27,1,20,1,10,1,-31,1,22,1,-1,1,-13,1,-23,1,-32,1,-25,1
1187,-7,1,-34,1,-27,1,20,1,10,1,-31,1,22,1,-2,1,-13,1,-23,1,-31,1,-25,1
1188,-7,1,-34,1,-27,1,20,1,10,1,-31,1,22,1,-2,1,-13,1,-23,1,-31,1,-26,1
1189,-8,1,-36,1,-28,1,22,1,10,1,-32,1,22,1,-2,1,-14,1,-24,1,-32,1,-27,1
1190,-8,1,-37,1,-29,1,22,1,10,1,-33,1,22,1,-2,1,-14,1,-24,1,-32,1,-26,1
1191,-7,1,-36,1,-29,1,21,1,11,1,-33,1,23,1,-1,1,-14,1,-24,1,-33,1,-26,1
1192,-5,1,-34,1,-29,1,19,1,12,1,-32,1,24,1,0,1,-14,1,-24,1,-33,1,-25,1
1193,-4,1,-33,1,-29,1,18,1,12,1,-31,1,24,1,0,1,-14,1,-24,1,-34,1,-25,1
1194,-5,1,-33,1,-28,1,19,1,11,1,-31,1,24,1,-1,1,-15,1,-24,1,-35,1,-24,1
1195,-6,1,-34,1,-28,1,20,1,11,1,-31,1,24,1,-1,1,-15,1,-25,1,-35,1,-24,1
1196,-6,1,-34,1,-28,1,20,1,11,1,-31,1,24,1,-2,1,-15,1,-25,1,-36,1,-24,1
1197,-5,1,-33,1,-28,1,19,1,11,1,-31,1,24,1,-2,1,-16,1,-25,1,-36,1,-23,1
1198,-5,1,-33,1,-28,1,19,1,11,1,-31,1,24,1,-2,1,-16,1,-25,1,-37,1,-24,1
1199,-5,1,-33,1,-28,1,19,1,11,1,-31,1,25,1,-2,1,-16,1,-25,1,-36,1,-25,1
1200,-4,1,-31,1,-27,1,17,1,11,1,-29,1,26,1,-1,1,-16,1,-25,1,-36,1,-24,1
1201,-2,1,-30,1,-28,1,16,1,13,1,-29,1,26,1,0,1,-16,1,-25,1,-35,1,-24,1
1202,-2,1,-29,1,-27,1,15,1,12,1,-28,1,26,1,1,1,-16,1,-25,1,-34,1,-24,1
1203,-3,1,-31,1,-28,1,17,1,12,1,-30,1,26,1,0,1,-16,1,-25,1,-35,1,-24,1
1204,-5,1,-33,1,-28,1,19,1,11,1,-31,1,25,1,0,1,-16,1,-26,1,-35,1,-25,1
1205,-4,1,-31,1,-27,1,17,1,11,1,-29,1,25,1,0,1,-16,1,-26,1,-34,1,-25,1
1206,-3,1,-29,1,-26,1,16,1,11,1,-28,1,25,1,0,1,-15,1,-25,1,-33,1,-24,1
1207,-3,1,-28,1,-25,1,15,1,11,1,-27,1,26,1,0,1,-14,1,-24,1,-32,1,-24,1
1208,-2,1,-26,1,-24,1,14,1,11,1,-25,1,26,1,1,1,-13,1,-23,1,-32,1,-23,1
1209,-1,1,-25,1,-24,1,13,1,11,1,-25,1,27,1,1,1,-12,1,-23,1,-31,1,-22,1
1210,-2,1,-25,1,-23,1,13,1,10,1,-24,1,28,1,1,1,-12,1,-22,1,-31,1,-21,1
1211,-2,1,-25,1,-23,1,13,1,10,1,-24,1,30,1,2,1,-12,1,-21,1,-32,1,-21,1
1212,-1,1,-24,1,-23,1,12,1,11,1,-24,1,31,1,3,1,-12,1,-21,1,-32,1,-19,1
1213,-1,1,-23,1,-22,1,12,1,10,1,-23,1,33,1,4,1,-11,1,-20,1,-31,1,-19,1
1214,-1,1,-22,1,-21,1,11,1,10,1,-22,1,35,1,5,1,-10,1,-19,1,-29,1,-19,1
1215,-1,1,-20,1,-19,1,10,1,9,1,-20,1,37,1,6,1,-10,1,-19,1,-28,1,-18,1
1216,-1,1,-20,1,-19,1,10,1,9,1,-20,1,37,1,7,1,-10,1,-18,1,-28,1,-19,1
1217,0,1,-20,1,-20,1,10,1,10,1,-20,1,37,1,8,1,-10,1,-19,1,-27,1,-19,1
1218,0,1,-20,1,-20,1,10,1,10,1,-20,1,35,1,7,1,-10,1,-20,1,-27,1,-21,1
1219,0,1,-20,1,-20,1,10,1,10,1,-20,1,34,1,7,1,-10,1,-20,1,-27,1,-20,1
1220,1,1,-21,1,-22,1,10,1,11,1,-21,1,32,1,7,1,-10,1,-20,1,-27,1,-20,1
1221,0,1,-21,1,-21,1,10,1,10,1,-21,1,29,1,5,1,-10,1,-20,1,-26,1,-20,1
1222,0,1,-20,1,-20,1,10,1,10,1,-20,1,25,1,3,1,-10,1,-20,1,-26,1,-17,1
1223,1,1,-18,1,-19,1,8,1,10,1,-18,1,22,1,1,1,-10,1,-20,1,-26,1,-17,1
1224,1,1,-18,1,-19,1,8,1,10,1,-18,1,19,1,0,1,-11,1,-20,1,-26,1,-16,1
1225,1,1,-18,1,-19,1,8,1,10,1,-18,1,18,1,-1,1,-12,1,-20,1,-26,1,-15,1
1226,2,1,-16,1,-18,1,7,1,10,1,-17,1,17,1,-2,1,-12,1,-19,1,-26,1,-15,1
1227,3,1,-15,1,-18,1,6,1,10,1,-16,1,16,1,-3,1,-11,1,-19,1,-26,1,-15,1
1228,4,1,-15,1,-19,1,5,1,11,1,-17,1,16,1,-4,1,-11,1,-18,1,-24,1,-13,1
1229,5,1,-15,1,-20,1,5,1,12,1,-17,1,16,1,-4,1,-11,1,-19,1,-24,1,-14,1
1230,4,1,-15,1,-19,1,5,1,11,1,-17,1,15,1,-4,1,-13,1,-20,1,-25,1,-15,1
1231,4,1,-16,1,-20,1,6,1,12,1,-18,1,17,1,-4,1,-13,1,-19,1,-26,1,-15,1
1232,4,1,-17,1,-21,1,6,1,12,1,-19,1,17,1,-3,1,-13,1,-19,1,-26,1,-15,1
1233,5,1,-19,1,-24,1,7,1,14,1,-21,1,18,1,-1,1,-13,1,-19,1,-25,1,-16,1
1234,6,1,-20,1,-26,1,7,1,16,1,-23,1,19,1,-1,1,-13,1,-19,1,-25,1,-16,1
1235,5,1,-21,1,-26,1,8,1,15,1,-23,1,19,1,-1,1,-13,1,-19,1,-25,1,-16,1
1236,3,1,-23,1,-26,1,10,1,14,1,-24,1,18,1,-1,1,-14,1,-19,1,-26,1,-17,1
1237,2,1,-24,1,-26,1,11,1,14,1,-25,1,18,1,-1,1,-15,1,-20,1,-26,1,-17,1
1238,1,1,-25,1,-26,1,12,1,13,1,-25,1,18,1,-2,1,-15,1,-21,1,-27,1,-18,1
1239,0,1,-25,1,-25,1,12,1,12,1,-25,1,18,1,-2,1,-16,1,-21,1,-28,1,-19,1
1240,-1,1,-27,1,-26,1,14,1,12,1,-27,1,18,1,-2,1,-17,1,-22,1,-29,1,-21,1
1241,-1,1,-29,1,-28,1,15,1,13,1,-29,1,18,1,-3,1,-18,1,-23,1,-30,1,-22,1
1242,-2,1,-31,1,-29,1,16,1,13,1,-30,1,19,1,-4,1,-19,1,-25,1,-31,1,-23,1
1243,-2,1,-32,1,-30,1,17,1,14,1,-31,1,19,1,-6,1,-21,1,-27,1,-31,1,-24,1
1244,-4,1,-33,1,-29,1,18,1,12,1,-31,1,20,1,-8,1,-22,1,-29,1,-32,1,-25,1
1245,-6,1,-35,1,-29,1,20,1,11,1,-32,1,19,1,-10,1,-24,1,-31,1,-33,1,-26,1
1246,-8,1,-35,1,-27,1,21,1,9,1,-31,1,18,1,-12,1,-26,1,-32,1,-35,1,-27,1
1247,-11,1,-37,1,-26,1,24,1,7,1,-32,1,18,1,-13,1,-28,1,-34,1,-37,1,-27,1
1248,-10,1,-37,1,-27,1,23,1,8,1,-32,1,19,1,-13,1,-27,1,-33,1,-38,1,-27,1
1249,-9,1,-37,1,-28,1,23,1,9,1,-33,1,20,1,-14,1,-28,1,-34,1,-39,1,-28,1
1250,-8,1,-39,1,-31,1,23,1,11,1,-35,1,21,1,-14,1,-28,1,-35,1,-40,1,-28,1
1251,-8,1,-40,1,-32,1,24,1,12,1,-36,1,21,1,-14,1,-29,1,-36,1,-42,1,-29,1
1252,-8,1,-40,1,-32,1,24,1,12,1,-36,1,20,1,-15,1,-29,1,-36,1,-42,1,-30,1
1253,-8,1,-41,1,-33,1,24,1,12,1,-37,1,20,1,-15,1,-30,1,-36,1,-42,1,-30,1
1254,-8,1,-40,1,-32,1,24,1,12,1,-36,1,20,1,-16,1,-30,1,-36,1,-41,1,-30,1
1255,-8,1,-40,1,-32,1,24,1,12,1,-36,1,20,1,-16,1,-29,1,-36,1,-41,1,-30,1
1256,-8,1,-41,1,-33,1,24,1,12,1,-37,1,20,1,-16,1,-29,1,-36,1,-42,1,-29,1
1257,-9,1,-41,1,-32,1,25,1,11,1,-37,1,20,1,-15,1,-29,1,-35,1,-42,1,-29,1
1258,-9,1,-42,1,-33,1,25,1,12,1,-38,1,19,1,-15,1,-29,1,-36,1,-42,1,-30,1
1259,-10,1,-44,1,-34,1,27,1,12,1,-39,1,19,1,-15,1,-29,1,-36,1,-42,1,-29,1
1260,-11,1,-44,1,-33,1,27,1,11,1,-39,1,19,1,-15,1,-29,1,-35,1,-41,1,-29,1
1261,-11,1,-45,1,-34,1,28,1,11,1,-40,1,19,1,-15,1,-29,1,-35,1,-41,1,-30,1
1262,-11,1,-44,1,-33,1,27,1,11,1,-39,1,20,1,-15,1,-29,1,-34,1,-41,1,-29,1
1263,-12,1,-44,1,-32,1,28,1,10,1,-38,1,20,1,-15,1,-28,1,-34,1,-41,1,-30,1
1264,-13,1,-44,1,-31,1,28,1,9,1,-38,1,20,1,-15,1,-28,1,-34,1,-41,1,-31,1
1265,-12,1,-43,1,-31,1,27,1,9,1,-37,1,21,1,-15,1,-28,1,-34,1,-41,1,-30,1
1266,-13,1,-44,1,-31,1,28,1,9,1,-38,1,21,1,-14,1,-28,1,-34,1,-40,1,-31,1
1267,-13,1,-44,1,-31,1,28,1,9,1,-38,1,21,1,-14,1,-28,1,-35,1,-40,1,-31,1
1268,-14,1,-45,1,-31,1,29,1,8,1,-38,1,21,1,-13,1,-29,1,-35,1,-40,1,-31,1
1269,-14,1,-46,1,-32,1,30,1,9,1,-39,1,22,1,-12,1,-28,1,-35,1,-41,1,-32,1
1270,-15,1,-45,1,-30,1,30,1,7,1,-38,1,24,1,-9,1,-26,1,-34,1,-41,1,-32,1
1271,-17,1,-45,1,-28,1,31,1,5,1,-37,1,28,1,-4,1,-24,1,-33,1,-42,1,-33,1
1272,-18,1,-44,1,-26,1,31,1,4,1,-35,1,35,1,4,1,-20,1,-33,1,-43,1,-34,1
1273,-17,1,-42,1,-25,1,29,1,4,1,-34,1,42,1,16,1,-15,1,-32,1,-44,1,-36,1
1274,-15,1,-39,1,-24,1,27,1,4,1,-32,1,50,1,32,1,-8,1,-29,1,-44,1,-36,1
1275,-14,1,-37,1,-23,1,25,1,4,1,-30,1,60,1,53,1,2,1,-27,1,-43,1,-36,1
1276,-12,1,-34,1,-22,1,23,1,5,1,-28,1,68,1,73,1,13,1,-21,1,-41,1,-35,1
1277,-10,1,-31,1,-21,1,20,1,5,1,-26,1,76,1,91,1,26,1,-13,1,-38,1,-33,1
1278,-6,1,-27,1,-21,1,16,1,7,1,-24,1,86,1,109,1,39,1,-2,1,-32,1,-29,1
1279,-2,1,-23,1,-21,1,12,1,9,1,-22,1,92,1,126,1,54,1,13,1,-21,1,-25,1
1280,4,1,-20,1,-24,1,8,1,14,1,-22,1,99,1,148,1,73,1,34,1,-9,1,-18,1
1281,15,1,-15,1,-30,1,0,1,22,1,-22,1,106,1,172,1,96,1,60,1,8,1,-9,1
1282,28,1,-3,1,-31,1,-12,1,29,1,-17,1,110,1,196,1,123,1,95,1,35,1,5,1
1283,42,1,15,1,-27,1,-28,1,35,1,-6,1,107,1,209,1,153,1,135,1,70,1,27,1
1284,57,1,39,1,-18,1,-48,1,38,1,11,1,99,1,212,1,183,1,179,1,111,1,58,1
1285,73,1,69,1,-4,1,-71,1,39,1,33,1,85,1,204,1,213,1,229,1,161,1,95,1
1286,91,1,105,1,14,1,-98,1,39,1,60,1,63,1,180,1,242,1,283,1,216,1,137,1
1287,107,1,144,1,37,1,-125,1,35,1,91,1,32,1,137,1,267,1,339,1,271,1,181,1
1288,117,1,180,1,63,1,-148,1,27,1,122,1,2,1,86,1,295,1,397,1,324,1,222,1
1289,118,1,208,1,90,1,-163,1,14,1,149,1,-22,1,36,1,329,1,456,1,372,1,254,1
1290,118,1,232,1,114,1,-175,1,2,1,173,1,-46,1,-13,1,365,1,515,1,413,1,281,1
1291,114,1,252,1,138,1,-183,1,-12,1,195,1,-71,1,-76,1,392,1,560,1,446,1,302,1
1292,105,1,259,1,154,1,-182,1,-24,1,207,1,-94,1,-133,1,404,1,584,1,461,1,310,1
1293,90,1,255,1,165,1,-172,1,-37,1,210,1,-111,1,-181,1,396,1,577,1,453,1,304,1
1294,69,1,238,1,169,1,-153,1,-50,1,204,1,-119,1,-226,1,352,1,526,1,417,1,284,1
1295,44,1,213,1,169,1,-128,1,-62,1,191,1,-120,1,-266,1,276,1,429,1,354,1,250,1
1296,20,1,179,1,159,1,-99,1,-69,1,169,1,-117,1,-288,1,189,1,315,1,277,1,208,1
1297,-2,1,139,1,141,1,-68,1,-71,1,140,1,-112,1,-295,1,106,1,204,1,197,1,161,1
1298,-19,1,96,1,115,1,-38,1,-67,1,105,1,-108,1,-295,1,35,1,105,1,122,1,111,1
1299,-32,1,52,1,84,1,-10,1,-58,1,68,1,-101,1,-287,1,-17,1,28,1,53,1,61,1
1300,-38,1,16,1,54,1,11,1,-46,1,35,1,-95,1,-273,1,-49,1,-20,1,3,1,20,1
1301,-40,1,-10,1,30,1,25,1,-35,1,10,1,-91,1,-261,1,-68,1,-50,1,-27,1,-6,1
1302,-41,1,-27,1,14,1,34,1,-28,1,-7,1,-90,1,-249,1,-80,1,-68,1,-46,1,-23,1
1303,-40,1,-37,1,3,1,38,1,-22,1,-17,1,-88,1,-231,1,-82,1,-74,1,-55,1,-33,1
1304,-36,1,-42,1,-6,1,39,1,-15,1,-24,1,-82,1,-203,1,-73,1,-72,1,-56,1,-38,1
1305,-29,1,-43,1,-14,1,36,1,-8,1,-29,1,-74,1,-174,1,-64,1,-65,1,-53,1,-38,1
1306,-24,1,-42,1,-18,1,33,1,-3,1,-30,1,-67,1,-149,1,-57,1,-59,1,-48,1,-37,1
1307,-20,1,-40,1,-20,1,30,1,0,1,-30,1,-61,1,-127,1,-51,1,-53,1,-43,1,-34,1
1308,-17,1,-38,1,-21,1,27,1,2,1,-30,1,-52,1,-107,1,-46,1,-47,1,-39,1,-31,1
1309,-14,1,-37,1,-23,1,25,1,4,1,-30,1,-41,1,-89,1,-40,1,-40,1,-34,1,-28,1
1310,-14,1,-37,1,-23,1,25,1,4,1,-30,1,-27,1,-73,1,-34,1,-36,1,-31,1,-26,1
1311,-13,1,-36,1,-23,1,24,1,5,1,-30,1,-15,1,-58,1,-31,1,-31,1,-30,1,-25,1
1312,-11,1,-34,1,-23,1,22,1,6,1,-29,1,-4,1,-46,1,-28,1,-29,1,-29,1,-24,1
1313,-9,1,-30,1,-21,1,19,1,6,1,-26,1,3,1,-36,1,-25,1,-26,1,-27,1,-22,1
1314,-9,1,-28,1,-19,1,18,1,5,1,-24,1,9,1,-28,1,-21,1,-24,1,-26,1,-21,1
1315,-9,1,-27,1,-18,1,18,1,4,1,-23,1,12,1,-20,1,-17,1,-22,1,-24,1,-20,1
1316,-9,1,-27,1,-18,1,18,1,4,1,-23,1,14,1,-13,1,-15,1,-21,1,-23,1,-19,1
1317,-9,1,-28,1,-19,1,18,1,5,1,-24,1,15,1,-9,1,-13,1,-20,1,-23,1,-19,1
1318,-9,1,-29,1,-20,1,19,1,5,1,-25,1,16,1,-7,1,-12,1,-19,1,-21,1,-18,1
1319,-7,1,-28,1,-21,1,17,1,7,1,-25,1,17,1,-7,1,-11,1,-19,1,-21,1,-18,1
1320,-6,1,-28,1,-22,1,17,1,8,1,-25,1,18,1,-7,1,-12,1,-20,1,-21,1,-18,1
1321,-6,1,-28,1,-22,1,17,1,8,1,-25,1,19,1,-6,1,-13,1,-20,1,-22,1,-17,1
1322,-7,1,-28,1,-21,1,17,1,7,1,-25,1,20,1,-5,1,-14,1,-20,1,-22,1,-17,1
1323,-6,1,-28,1,-22,1,17,1,8,1,-25,1,21,1,-4,1,-14,1,-20,1,-23,1,-17,1
1324,-5,1,-27,1,-22,1,16,1,8,1,-25,1,22,1,-2,1,-14,1,-20,1,-23,1,-16,1
1325,-5,1,-27,1,-22,1,16,1,8,1,-25,1,22,1,0,1,-13,1,-19,1,-22,1,-16,1
1326,-4,1,-27,1,-23,1,15,1,9,1,-25,1,23,1,1,1,-13,1,-18,1,-21,1,-16,1
1327,-3,1,-25,1,-22,1,14,1,9,1,-24,1,22,1,2,1,-12,1,-17,1,-21,1,-15,1
1328,-3,1,-24,1,-21,1,13,1,9,1,-23,1,22,1,3,1,-12,1,-16,1,-20,1,-15,1
1329,-3,1,-24,1,-21,1,13,1,9,1,-23,1,23,1,4,1,-12,1,-16,1,-20,1,-16,1
1330,-3,1,-24,1,-21,1,13,1,9,1,-23,1,22,1,4,1,-12,1,-16,1,-20,1,-15,1
1331,-3,1,-25,1,-22,1,14,1,9,1,-24,1,22,1,5,1,-11,1,-15,1,-20,1,-15,1
1332,-3,1,-24,1,-21,1,13,1,9,1,-23,1,22,1,5,1,-11,1,-15,1,-20,1,-15,1
1333,-2,1,-23,1,-21,1,12,1,9,1,-22,1,23,1,5,1,-10,1,-14,1,-19,1,-14,1
1334,-1,1,-23,1,-22,1,12,1,10,1,-23,1,23,1,6,1,-9,1,-13,1,-18,1,-14,1
1335,-1,1,-23,1,-22,1,12,1,10,1,-23,1,22,1,6,1,-9,1,-12,1,-17,1,-14,1
1336,-1,1,-23,1,-22,1,12,1,10,1,-23,1,21,1,6,1,-9,1,-11,1,-17,1,-13,1
1337,-1,1,-22,1,-21,1,11,1,10,1,-22,1,21,1,6,1,-8,1,-10,1,-16,1,-13,1
1338,0,1,-21,1,-21,1,10,1,10,1,-21,1,21,1,7,1,-6,1,-9,1,-16,1,-12,1
1339,0,1,-20,1,-20,1,10,1,10,1,-20,1,21,1,7,1,-5,1,-8,1,-16,1,-11,1
1340,1,1,-20,1,-21,1,9,1,11,1,-20,1,20,1,8,1,-5,1,-8,1,-16,1,-11,1
1341,1,1,-20,1,-21,1,9,1,11,1,-20,1,20,1,8,1,-4,1,-8,1,-15,1,-10,1
1342,2,1,-20,1,-22,1,9,1,12,1,-21,1,20,1,9,1,-3,1,-7,1,-15,1,-9,1
1343,2,1,-20,1,-22,1,9,1,12,1,-21,1,19,1,10,1,-3,1,-6,1,-14,1,-8,1
1344,1,1,-18,1,-19,1,8,1,10,1,-18,1,19,1,11,1,-2,1,-5,1,-13,1,-7,1
1345,0,1,-19,1,-19,1,9,1,9,1,-19,1,19,1,12,1,-1,1,-3,1,-12,1,-6,1
1346,0,1,-19,1,-19,1,9,1,9,1,-19,1,19,1,12,1,0,1,-2,1,-11,1,-6,1
1347,0,1,-18,1,-18,1,9,1,9,1,-18,1,18,1,13,1,0,1,-1,1,-10,1,-5,1
1348,2,1,-16,1,-18,1,7,1,10,1,-17,1,18,1,14,1,2,1,0,1,-8,1,-4,1
1349,4,1,-16,1,-20,1,6,1,12,1,-18,1,18,1,15,1,4,1,2,1,-7,1,-3,1
1350,5,1,-15,1,-20,1,5,1,12,1,-17,1,18,1,16,1,5,1,4,1,-6,1,-2,1
1351,4,1,-15,1,-19,1,5,1,11,1,-17,1,17,1,16,1,5,1,5,1,-5,1,-2,1
1352,4,1,-14,1,-18,1,5,1,11,1,-16,1,16,1,17,1,6,1,6,1,-3,1,-1,1
1353,4,1,-12,1,-16,1,4,1,10,1,-14,1,15,1,18,1,8,1,8,1,-2,1,0,1
1354,6,1,-10,1,-16,1,2,1,11,1,-13,1,14,1,18,1,9,1,11,1,0,1,1,1
1355,7,1,-10,1,-17,1,1,1,12,1,-13,1,13,1,19,1,10,1,13,1,1,1,3,1
1356,6,1,-10,1,-16,1,2,1,11,1,-13,1,12,1,21,1,12,1,15,1,2,1,5,1
1357,6,1,-10,1,-16,1,2,1,11,1,-13,1,13,1,23,1,13,1,17,1,4,1,5,1
1358,7,1,-9,1,-16,1,1,1,11,1,-12,1,12,1,24,1,15,1,18,1,5,1,7,1
1359,8,1,-8,1,-16,1,0,1,12,1,-12,1,12,1,26,1,16,1,19,1,7,1,7,1
1360,10,1,-6,1,-16,1,-2,1,13,1,-11,1,11,1,29,1,18,1,21,1,10,1,8,1
1361,10,1,-3,1,-13,1,-3,1,11,1,-8,1,11,1,30,1,21,1,23,1,13,1,10,1
1362,12,1,-1,1,-13,1,-5,1,12,1,-7,1,10,1,32,1,23,1,26,1,15,1,11,1
1363,14,1,0,1,-14,1,-7,1,14,1,-7,1,9,1,34,1,24,1,28,1,18,1,13,1
1364,15,1,0,1,-15,1,-7,1,15,1,-7,1,7,1,35,1,25,1,31,1,20,1,15,1
1365,16,1,1,1,-15,1,-8,1,16,1,-7,1,5,1,36,1,27,1,34,1,22,1,16,1
1366,18,1,3,1,-15,1,-10,1,17,1,-6,1,4,1,38,1,30,1,37,1,25,1,20,1
1367,19,1,4,1,-15,1,-11,1,17,1,-5,1,2,1,41,1,32,1,41,1,28,1,22,1
1368,21,1,6,1,-15,1,-13,1,18,1,-4,1,0,1,43,1,34,1,44,1,32,1,23,1
1369,23,1,9,1,-14,1,-16,1,19,1,-2,1,-1,1,45,1,37,1,47,1,35,1,27,1
1370,23,1,11,1,-12,1,-17,1,18,1,0,1,-1,1,48,1,39,1,50,1,38,1,29,1
1371,24,1,12,1,-12,1,-18,1,18,1,0,1,-3,1,50,1,40,1,52,1,41,1,31,1
1372,26,1,14,1,-12,1,-20,1,19,1,1,1,-4,1,51,1,42,1,55,1,43,1,34,1
1373,29,1,18,1,-11,1,-23,1,20,1,4,1,-7,1,53,1,43,1,58,1,46,1,36,1
1374,31,1,21,1,-10,1,-26,1,21,1,6,1,-9,1,55,1,44,1,62,1,49,1,39,1
1375,32,1,23,1,-9,1,-27,1,21,1,7,1,-11,1,57,1,45,1,65,1,52,1,41,1
1376,33,1,25,1,-8,1,-29,1,21,1,9,1,-13,1,58,1,46,1,69,1,56,1,43,1
1377,33,1,25,1,-8,1,-29,1,21,1,9,1,-16,1,59,1,47,1,71,1,59,1,46,1
1378,34,1,27,1,-7,1,-30,1,21,1,10,1,-18,1,60,1,47,1,74,1,62,1,48,1
1379,39,1,32,1,-7,1,-35,1,23,1,13,1,-19,1,62,1,47,1,77,1,64,1,50,1
1380,41,1,35,1,-6,1,-38,1,24,1,15,1,-20,1,63,1,48,1,79,1,67,1,53,1
1381,43,1,38,1,-5,1,-40,1,24,1,17,1,-22,1,64,1,48,1,80,1,68,1,55,1
1382,45,1,39,1,-6,1,-42,1,26,1,17,1,-23,1,64,1,48,1,81,1,70,1,56,1
1383,46,1,41,1,-5,1,-43,1,26,1,18,1,-24,1,64,1,47,1,82,1,72,1,58,1
1384,45,1,40,1,-5,1,-42,1,25,1,18,1,-26,1,64,1,46,1,83,1,73,1,59,1
1385,43,1,39,1,-4,1,-41,1,24,1,18,1,-27,1,64,1,44,1,83,1,75,1,60,1
1386,42,1,39,1,-3,1,-40,1,23,1,18,1,-29,1,63,1,43,1,83,1,76,1,61,1
1387,40,1,38,1,-2,1,-39,1,21,1,18,1,-31,1,63,1,41,1,83,1,77,1,61,1
1388,38,1,37,1,-1,1,-37,1,20,1,18,1,-33,1,62,1,38,1,82,1,77,1,62,1
1389,38,1,37,1,-1,1,-37,1,20,1,18,1,-33,1,61,1,36,1,81,1,77,1,62,1
1390,41,1,39,1,-2,1,-40,1,22,1,19,1,-34,1,59,1,34,1,80,1,78,1,63,1
1391,44,1,41,1,-3,1,-42,1,24,1,19,1,-33,1,58,1,32,1,79,1,78,1,64,1
1392,46,1,43,1,-3,1,-44,1,25,1,20,1,-32,1,57,1,31,1,78,1,77,1,64,1
1393,46,1,44,1,-2,1,-45,1,24,1,21,1,-32,1,55,1,29,1,76,1,76,1,64,1
1394,46,1,44,1,-2,1,-45,1,24,1,21,1,-31,1,53,1,27,1,75,1,75,1,62,1
1395,46,1,46,1,0,1,-46,1,23,1,23,1,-31,1,51,1,26,1,74,1,74,1,61,1
1396,46,1,46,1,0,1,-46,1,23,1,23,1,-30,1,50,1,24,1,73,1,73,1,60,1
1397,45,1,46,1,1,1,-45,1,22,1,24,1,-29,1,48,1,22,1,70,1,72,1,59,1
1398,44,1,44,1,0,1,-44,1,22,1,22,1,-29,1,46,1,20,1,67,1,70,1,58,1
1399,43,1,42,1,-1,1,-42,1,22,1,21,1,-29,1,44,1,17,1,63,1,67,1,56,1
1400,40,1,39,1,-1,1,-39,1,21,1,19,1,-27,1,41,1,14,1,58,1,63,1,54,1
1401,36,1,34,1,-2,1,-35,1,19,1,16,1,-26,1,38,1,10,1,54,1,59,1,52,1
1402,32,1,30,1,-2,1,-31,1,17,1,14,1,-25,1,36,1,7,1,49,1,54,1,48,1
1403,28,1,26,1,-2,1,-27,1,15,1,12,1,-23,1,33,1,4,1,45,1,49,1,44,1
1404,26,1,23,1,-3,1,-24,1,15,1,10,1,-21,1,31,1,2,1,41,1,46,1,41,1
1405,24,1,20,1,-4,1,-22,1,14,1,8,1,-18,1,29,1,0,1,38,1,41,1,37,1
1406,23,1,18,1,-5,1,-20,1,14,1,7,1,-16,1,26,1,-1,1,35,1,37,1,33,1
1407,20,1,16,1,-4,1,-18,1,12,1,6,1,-13,1,24,1,-2,1,30,1,33,1,29,1
1408,17,1,14,1,-3,1,-15,1,10,1,6,1,-10,1,22,1,-3,1,26,1,29,1,26,1
1409,15,1,11,1,-4,1,-13,1,10,1,4,1,-8,1,19,1,-5,1,22,1,25,1,23,1
1410,13,1,8,1,-5,1,-10,1,9,1,2,1,-5,1,16,1,-6,1,19,1,20,1,19,1
1411,10,1,4,1,-6,1,-7,1,8,1,-1,1,-3,1,14,1,-7,1,15,1,16,1,15,1
1412,6,1,-1,1,-7,1,-2,1,6,1,-4,1,-2,1,11,1,-8,1,12,1,12,1,12,1
1413,3,1,-3,1,-6,1,0,1,4,1,-4,1,0,1,8,1,-9,1,9,1,7,1,9,1
1414,1,1,-6,1,-7,1,2,1,4,1,-6,1,1,1,6,1,-10,1,7,1,4,1,6,1
1415,0,1,-8,1,-8,1,4,1,4,1,-8,1,2,1,4,1,-11,1,4,1,0,1,3,1
1416,0,1,-10,1,-10,1,5,1,5,1,-10,1,5,1,2,1,-12,1,1,1,-2,1,2,1
1417,-1,1,-11,1,-10,1,6,1,4,1,-11,1,7,1,0,1,-13,1,-1,1,-5,1,0,1
1418,-1,1,-12,1,-11,1,6,1,5,1,-12,1,9,1,-2,1,-13,1,-4,1,-8,1,-2,1
1419,-2,1,-13,1,-11,1,7,1,4,1,-12,1,10,1,-4,1,-13,1,-6,1,-10,1,-3,1
1420,-4,1,-16,1,-12,1,10,1,4,1,-14,1,11,1,-6,1,-14,1,-8,1,-12,1,-5,1
1421,-6,1,-19,1,-13,1,12,1,3,1,-16,1,11,1,-8,1,-14,1,-10,1,-14,1,-7,1
1422,-8,1,-21,1,-13,1,14,1,2,1,-17,1,11,1,-10,1,-15,1,-12,1,-16,1,-8,1
1423,-10,1,-23,1,-13,1,16,1,1,1,-18,1,10,1,-12,1,-16,1,-14,1,-18,1,-10,1
1424,-12,1,-26,1,-14,1,19,1,1,1,-20,1,11,1,-14,1,-16,1,-14,1,-19,1,-11,1
1425,-12,1,-26,1,-14,1,19,1,1,1,-20,1,11,1,-16,1,-16,1,-16,1,-21,1,-13,1
1426,-12,1,-27,1,-15,1,19,1,1,1,-21,1,11,1,-18,1,-17,1,-17,1,-22,1,-15,1
1427,-14,1,-30,1,-16,1,22,1,1,1,-23,1,11,1,-20,1,-18,1,-19,1,-23,1,-15,1
1428,-15,1,-32,1,-17,1,23,1,1,1,-25,1,12,1,-21,1,-18,1,-20,1,-25,1,-16,1
1429,-16,1,-33,1,-17,1,24,1,0,1,-25,1,12,1,-23,1,-18,1,-21,1,-27,1,-16,1
1430,-15,1,-33,1,-18,1,24,1,1,1,-26,1,12,1,-23,1,-18,1,-22,1,-28,1,-16,1
1431,-12,1,-31,1,-19,1,21,1,3,1,-25,1,13,1,-23,1,-18,1,-21,1,-28,1,-16,1
1432,-11,1,-29,1,-18,1,20,1,3,1,-24,1,13,1,-24,1,-18,1,-21,1,-28,1,-15,1
1433,-11,1,-29,1,-18,1,20,1,3,1,-24,1,13,1,-25,1,-18,1,-22,1,-29,1,-16,1
1434,-11,1,-28,1,-17,1,19,1,3,1,-23,1,12,1,-25,1,-19,1,-22,1,-29,1,-15,1
1435,-11,1,-27,1,-16,1,19,1,2,1,-22,1,12,1,-26,1,-19,1,-23,1,-29,1,-15,1
1436,-10,1,-27,1,-17,1,18,1,3,1,-22,1,12,1,-27,1,-19,1,-23,1,-29,1,-15,1
1437,-10,1,-27,1,-17,1,18,1,3,1,-22,1,12,1,-27,1,-19,1,-23,1,-29,1,-15,1
1438,-11,1,-28,1,-17,1,19,1,3,1,-23,1,11,1,-27,1,-19,1,-23,1,-29,1,-15,1
1439,-11,1,-30,1,-19,1,20,1,4,1,-25,1,11,1,-29,1,-19,1,-23,1,-30,1,-16,1
1440,-11,1,-31,1,-20,1,21,1,4,1,-26,1,11,1,-29,1,-20,1,-23,1,-30,1,-16,1
1441,-11,1,-30,1,-19,1,20,1,4,1,-25,1,10,1,-30,1,-20,1,-23,1,-31,1,-16,1
1442,-13,1,-31,1,-18,1,22,1,2,1,-25,1,10,1,-30,1,-21,1,-24,1,-32,1,-16,1
1443,-15,1,-33,1,-18,1,24,1,1,1,-26,1,10,1,-31,1,-22,1,-25,1,-34,1,-17,1
1444,-15,1,-34,1,-19,1,24,1,2,1,-27,1,10,1,-32,1,-23,1,-25,1,-35,1,-16,1
1445,-16,1,-35,1,-19,1,25,1,1,1,-27,1,9,1,-33,1,-24,1,-26,1,-36,1,-17,1
1446,-17,1,-36,1,-19,1,26,1,1,1,-28,1,9,1,-33,1,-24,1,-26,1,-36,1,-17,1
1447,-16,1,-36,1,-20,1,26,1,2,1,-28,1,9,1,-33,1,-23,1,-24,1,-35,1,-16,1
1448,-15,1,-36,1,-21,1,25,1,3,1,-29,1,9,1,-33,1,-22,1,-24,1,-34,1,-16,1
1449,-15,1,-36,1,-21,1,25,1,3,1,-29,1,9,1,-33,1,-22,1,-24,1,-34,1,-17,1
1450,-15,1,-35,1,-20,1,25,1,2,1,-28,1,9,1,-32,1,-22,1,-24,1,-34,1,-17,1
1451,-14,1,-34,1,-20,1,24,1,3,1,-27,1,8,1,-30,1,-21,1,-24,1,-35,1,-17,1
1452,-13,1,-33,1,-20,1,23,1,3,1,-27,1,8,1,-30,1,-21,1,-23,1,-35,1,-17,1
1453,-12,1,-32,1,-20,1,22,1,4,1,-26,1,8,1,-29,1,-21,1,-22,1,-35,1,-17,1
1454,-12,1,-32,1,-20,1,22,1,4,1,-26,1,8,1,-28,1,-20,1,-22,1,-34,1,-17,1
1455,-12,1,-32,1,-20,1,22,1,4,1,-26,1,8,1,-28,1,-19,1,-21,1,-34,1,-16,1
1456,-12,1,-32,1,-20,1,22,1,4,1,-26,1,7,1,-28,1,-19,1,-20,1,-33,1,-16,1
1457,-12,1,-32,1,-20,1,22,1,4,1,-26,1,8,1,-27,1,-19,1,-20,1,-33,1,-15,1
1458,-11,1,-31,1,-20,1,21,1,4,1,-26,1,8,1,-27,1,-18,1,-20,1,-33,1,-15,1
1459,-10,1,-31,1,-21,1,20,1,5,1,-26,1,7,1,-26,1,-18,1,-20,1,-33,1,-16,1
1460,-11,1,-31,1,-20,1,21,1,4,1,-26,1,7,1,-26,1,-17,1,-20,1,-33,1,-15,1
1461,-12,1,-31,1,-19,1,21,1,3,1,-25,1,7,1,-26,1,-17,1,-20,1,-33,1,-15,1
1462,-13,1,-32,1,-19,1,22,1,3,1,-26,1,7,1,-26,1,-16,1,-20,1,-33,1,-14,1
1463,-12,1,-31,1,-19,1,21,1,3,1,-25,1,7,1,-26,1,-16,1,-20,1,-33,1,-14,1
1464,-12,1,-31,1,-19,1,21,1,3,1,-25,1,7,1,-27,1,-15,1,-20,1,-32,1,-14,1
1465,-12,1,-31,1,-19,1,21,1,3,1,-25,1,7,1,-28,1,-15,1,-19,1,-32,1,-14,1
1466,-11,1,-30,1,-19,1,20,1,4,1,-25,1,7,1,-27,1,-15,1,-19,1,-32,1,-14,1
1467,-11,1,-30,1,-19,1,20,1,4,1,-25,1,7,1,-27,1,-15,1,-18,1,-32,1,-14,1
1468,-11,1,-30,1,-19,1,20,1,4,1,-25,1,7,1,-27,1,-14,1,-17,1,-31,1,-14,1
1469,-12,1,-31,1,-19,1,21,1,3,1,-25,1,7,1,-26,1,-14,1,-16,1,-31,1,-15,1
1470,-12,1,-31,1,-19,1,21,1,3,1,-25,1,6,1,-25,1,-14,1,-17,1,-31,1,-14,1
1471,-13,1,-32,1,-19,1,22,1,3,1,-26,1,6,1,-26,1,-13,1,-17,1,-32,1,-15,1
1472,-14,1,-32,1,-18,1,23,1,2,1,-25,1,6,1,-25,1,-13,1,-17,1,-32,1,-15,1
1473,-13,1,-31,1,-18,1,22,1,2,1,-25,1,5,1,-26,1,-11,1,-17,1,-33,1,-16,1
1474,-13,1,-30,1,-17,1,21,1,2,1,-24,1,5,1,-26,1,-11,1,-17,1,-33,1,-16,1
1475,-13,1,-31,1,-18,1,22,1,2,1,-25,1,4,1,-26,1,-11,1,-16,1,-34,1,-15,1
1476,-12,1,-31,1,-19,1,21,1,3,1,-25,1,4,1,-26,1,-11,1,-16,1,-33,1,-15,1
1477,-11,1,-30,1,-19,1,20,1,4,1,-25,1,4,1,-26,1,-10,1,-14,1,-32,1,-14,1
1478,-11,1,-30,1,-19,1,20,1,4,1,-25,1,4,1,-25,1,-10,1,-14,1,-31,1,-14,1
1479,-11,1,-30,1,-19,1,20,1,4,1,-25,1,4,1,-25,1,-10,1,-14,1,-31,1,-14,1
1480,-10,1,-30,1,-20,1,20,1,5,1,-25,1,3,1,-25,1,-10,1,-15,1,-32,1,-14,1
1481,-9,1,-29,1,-20,1,19,1,5,1,-25,1,3,1,-24,1,-10,1,-15,1,-31,1,-15,1
1482,-8,1,-28,1,-20,1,18,1,6,1,-24,1,3,1,-24,1,-10,1,-15,1,-31,1,-15,1
1483,-7,1,-27,1,-20,1,17,1,6,1,-24,1,3,1,-24,1,-10,1,-15,1,-31,1,-15,1
1484,-7,1,-27,1,-20,1,17,1,6,1,-24,1,3,1,-25,1,-10,1,-14,1,-32,1,-15,1
1485,-8,1,-28,1,-20,1,18,1,6,1,-24,1,2,1,-25,1,-11,1,-14,1,-31,1,-14,1
1486,-9,1,-30,1,-21,1,19,1,6,1,-26,1,1,1,-25,1,-11,1,-15,1,-32,1,-14,1
1487,-11,1,-30,1,-19,1,20,1,4,1,-25,1,1,1,-26,1,-11,1,-16,1,-33,1,-14,1
1488,-11,1,-30,1,-19,1,20,1,4,1,-25,1,1,1,-26,1,-11,1,-17,1,-33,1,-13,1
1489,-11,1,-29,1,-18,1,20,1,3,1,-24,1,1,1,-26,1,-11,1,-17,1,-33,1,-14,1
1490,-12,1,-29,1,-17,1,20,1,2,1,-23,1,0,1,-26,1,-12,1,-18,1,-33,1,-14,1
1491,-11,1,-29,1,-18,1,20,1,3,1,-24,1,0,1,-27,1,-12,1,-17,1,-34,1,-14,1
1492,-11,1,-29,1,-18,1,20,1,3,1,-24,1,-1,1,-28,1,-13,1,-17,1,-34,1,-15,1
1493,-10,1,-28,1,-18,1,19,1,4,1,-23,1,-1,1,-28,1,-13,1,-16,1,-33,1,-14,1
1494,-9,1,-27,1,-18,1,18,1,4,1,-23,1,-1,1,-27,1,-13,1,-16,1,-33,1,-14,1
1495,-8,1,-27,1,-19,1,17,1,5,1,-23,1,0,1,-27,1,-14,1,-16,1,-33,1,-13,1
1496,-8,1,-28,1,-20,1,18,1,6,1,-24,1,-1,1,-27,1,-14,1,-17,1,-33,1,-13,1
1497,-8,1,-28,1,-20,1,18,1,6,1,-24,1,0,1,-27,1,-15,1,-18,1,-33,1,-14,1
1498,-7,1,-28,1,-21,1,17,1,7,1,-25,1,0,1,-28,1,-15,1,-18,1,-33,1,-14,1
1499,-7,1,-29,1,-22,1,18,1,7,1,-26,1,0,1,-29,1,-16,1,-18,1,-34,1,-15,1
1500,-8,1,-30,1,-22,1,19,1,7,1,-26,1,-1,1,-30,1,-17,1,-19,1,-35,1,-16,1
1501,-8,1,-30,1,-22,1,19,1,7,1,-26,1,-1,1,-30,1,-17,1,-19,1,-35,1,-15,1
1502,-7,1,-29,1,-22,1,18,1,7,1,-26,1,-1,1,-30,1,-18,1,-19,1,-35,1,-15,1
1503,-7,1,-29,1,-22,1,18,1,7,1,-26,1,-1,1,-31,1,-19,1,-19,1,-35,1,-15,1
1504,-8,1,-30,1,-22,1,19,1,7,1,-26,1,-1,1,-31,1,-20,1,-20,1,-34,1,-15,1
1505,-9,1,-31,1,-22,1,20,1,6,1,-27,1,-1,1,-32,1,-21,1,-20,1,-34,1,-15,1
1506,-9,1,-32,1,-23,1,20,1,7,1,-28,1,-1,1,-33,1,-22,1,-21,1,-34,1,-14,1
1507,-9,1,-32,1,-23,1,20,1,7,1,-28,1,-1,1,-33,1,-22,1,-21,1,-34,1,-15,1
1508,-10,1,-32,1,-22,1,21,1,6,1,-27,1,-1,1,-34,1,-22,1,-21,1,-35,1,-16,1
1509,-11,1,-33,1,-22,1,22,1,5,1,-28,1,-1,1,-34,1,-22,1,-22,1,-35,1,-16,1
1510,-10,1,-32,1,-22,1,21,1,6,1,-27,1,-1,1,-35,1,-22,1,-22,1,-36,1,-16,1
1511,-9,1,-31,1,-22,1,20,1,6,1,-27,1,-1,1,-35,1,-22,1,-22,1,-36,1,-15,1
1512,-9,1,-31,1,-22,1,20,1,6,1,-27,1,-1,1,-36,1,-22,1,-22,1,-36,1,-16,1
1513,-9,1,-31,1,-22,1,20,1,6,1,-27,1,-2,1,-36,1,-23,1,-23,1,-36,1,-17,1
1514,-8,1,-31,1,-23,1,19,1,7,1,-27,1,-2,1,-36,1,-23,1,-23,1,-35,1,-17,1
1515,-8,1,-31,1,-23,1,19,1,7,1,-27,1,-3,1,-36,1,-24,1,-23,1,-34,1,-17,1
1516,-8,1,-31,1,-23,1,19,1,7,1,-27,1,-3,1,-36,1,-23,1,-23,1,-33,1,-16,1
1517,-9,1,-31,1,-22,1,20,1,6,1,-27,1,-3,1,-36,1,-23,1,-23,1,-33,1,-15,1
1518,-9,1,-33,1,-24,1,21,1,7,1,-29,1,-3,1,-36,1,-23,1,-23,1,-33,1,-16,1
1519,-7,1,-31,1,-24,1,19,1,8,1,-28,1,-3,1,-36,1,-22,1,-23,1,-33,1,-15,1
1520,-7,1,-30,1,-23,1,18,1,8,1,-27,1,-3,1,-36,1,-22,1,-23,1,-33,1,-15,1
1521,-8,1,-30,1,-22,1,19,1,7,1,-26,1,-3,1,-36,1,-22,1,-23,1,-33,1,-15,1
1522,-7,1,-28,1,-21,1,17,1,7,1,-25,1,-2,1,-35,1,-21,1,-23,1,-33,1,-13,1
1523,-6,1,-27,1,-21,1,16,1,7,1,-24,1,-1,1,-35,1,-21,1,-22,1,-33,1,-13,1
1524,-6,1,-26,1,-20,1,16,1,7,1,-23,1,0,1,-34,1,-21,1,-21,1,-32,1,-13,1
1525,-6,1,-25,1,-19,1,15,1,6,1,-22,1,1,1,-33,1,-20,1,-20,1,-31,1,-12,1
1526,-6,1,-25,1,-19,1,15,1,6,1,-22,1,2,1,-32,1,-20,1,-19,1,-31,1,-12,1
1527,-4,1,-24,1,-20,1,14,1,8,1,-22,1,3,1,-31,1,-18,1,-18,1,-29,1,-12,1
1528,-2,1,-22,1,-20,1,12,1,9,1,-21,1,5,1,-29,1,-17,1,-17,1,-28,1,-11,1
1529,-1,1,-22,1,-21,1,11,1,10,1,-22,1,5,1,-28,1,-17,1,-17,1,-28,1,-11,1
1530,-1,1,-22,1,-21,1,11,1,10,1,-22,1,5,1,-27,1,-17,1,-17,1,-28,1,-11,1
1531,-1,1,-22,1,-21,1,11,1,10,1,-22,1,4,1,-27,1,-17,1,-17,1,-28,1,-11,1
1532,-2,1,-22,1,-20,1,12,1,9,1,-21,1,3,1,-27,1,-18,1,-16,1,-29,1,-12,1
1533,-2,1,-21,1,-19,1,11,1,8,1,-20,1,1,1,-28,1,-18,1,-16,1,-29,1,-11,1
1534,-1,1,-21,1,-20,1,11,1,9,1,-21,1,-1,1,-29,1,-19,1,-16,1,-29,1,-11,1
1535,-1,1,-20,1,-19,1,10,1,9,1,-20,1,-6,1,-32,1,-20,1,-17,1,-28,1,-11,1
1536,0,1,-19,1,-19,1,9,1,9,1,-19,1,-11,1,-35,1,-20,1,-17,1,-27,1,-10,1
1537,0,1,-19,1,-19,1,9,1,9,1,-19,1,-15,1,-37,1,-21,1,-18,1,-27,1,-11,1
1538,-1,1,-20,1,-19,1,10,1,9,1,-20,1,-17,1,-39,1,-21,1,-18,1,-28,1,-10,1
1539,-3,1,-21,1,-18,1,12,1,7,1,-20,1,-20,1,-40,1,-20,1,-18,1,-28,1,-11,1
1540,-2,1,-22,1,-20,1,12,1,9,1,-21,1,-22,1,-41,1,-20,1,-18,1,-28,1,-10,1
1541,0,1,-21,1,-21,1,10,1,10,1,-21,1,-23,1,-42,1,-21,1,-18,1,-28,1,-10,1
1542,1,1,-20,1,-21,1,9,1,11,1,-20,1,-22,1,-42,1,-21,1,-19,1,-28,1,-10,1
1543,2,1,-20,1,-22,1,9,1,12,1,-21,1,-21,1,-41,1,-21,1,-19,1,-28,1,-9,1
1544,2,1,-21,1,-23,1,9,1,12,1,-22,1,-19,1,-41,1,-21,1,-19,1,-28,1,-9,1
1545,2,1,-21,1,-23,1,9,1,12,1,-22,1,-18,1,-40,1,-22,1,-19,1,-27,1,-10,1
1546,2,1,-22,1,-24,1,10,1,13,1,-23,1,-17,1,-39,1,-22,1,-19,1,-27,1,-9,1
1547,4,1,-22,1,-26,1,9,1,15,1,-24,1,-17,1,-37,1,-22,1,-18,1,-26,1,-9,1
1548,5,1,-23,1,-28,1,9,1,16,1,-25,1,-17,1,-36,1,-22,1,-18,1,-27,1,-9,1
1549,7,1,-23,1,-30,1,8,1,18,1,-26,1,-17,1,-36,1,-22,1,-18,1,-27,1,-9,1
1550,6,1,-23,1,-29,1,8,1,17,1,-26,1,-18,1,-35,1,-23,1,-19,1,-28,1,-10,1
1551,5,1,-26,1,-31,1,10,1,18,1,-28,1,-18,1,-35,1,-24,1,-20,1,-30,1,-11,1
1552,2,1,-29,1,-31,1,13,1,16,1,-30,1,-17,1,-34,1,-24,1,-20,1,-31,1,-12,1
1553,0,1,-30,1,-30,1,15,1,15,1,-30,1,-17,1,-34,1,-25,1,-21,1,-31,1,-14,1
1554,-1,1,-32,1,-31,1,16,1,15,1,-32,1,-17,1,-35,1,-26,1,-21,1,-33,1,-15,1
1555,-3,1,-34,1,-31,1,18,1,14,1,-33,1,-17,1,-38,1,-28,1,-23,1,-34,1,-18,1
1556,-4,1,-35,1,-31,1,19,1,13,1,-33,1,-16,1,-40,1,-30,1,-25,1,-36,1,-20,1
1557,-6,1,-37,1,-31,1,21,1,12,1,-34,1,-16,1,-41,1,-32,1,-28,1,-37,1,-21,1
1558,-8,1,-39,1,-31,1,23,1,11,1,-35,1,-16,1,-43,1,-34,1,-31,1,-39,1,-23,1
1559,-10,1,-42,1,-32,1,26,1,11,1,-37,1,-16,1,-44,1,-36,1,-32,1,-41,1,-23,1
1560,-10,1,-42,1,-32,1,26,1,11,1,-37,1,-16,1,-45,1,-37,1,-34,1,-41,1,-24,1
1561,-8,1,-41,1,-33,1,24,1,12,1,-37,1,-15,1,-45,1,-37,1,-34,1,-42,1,-24,1
1562,-8,1,-41,1,-33,1,24,1,12,1,-37,1,-15,1,-45,1,-38,1,-33,1,-43,1,-24,1
1563,-7,1,-42,1,-35,1,24,1,14,1,-39,1,-15,1,-46,1,-37,1,-34,1,-44,1,-25,1
1564,-7,1,-43,1,-36,1,25,1,14,1,-40,1,-16,1,-46,1,-37,1,-34,1,-46,1,-25,1
1565,-8,1,-43,1,-35,1,25,1,13,1,-39,1,-16,1,-46,1,-37,1,-34,1,-46,1,-26,1
1566,-8,1,-44,1,-36,1,26,1,14,1,-40,1,-16,1,-46,1,-37,1,-35,1,-46,1,-26,1
1567,-9,1,-46,1,-37,1,27,1,14,1,-42,1,-17,1,-46,1,-37,1,-36,1,-46,1,-25,1
1568,-10,1,-47,1,-37,1,28,1,13,1,-42,1,-18,1,-46,1,-38,1,-37,1,-46,1,-26,1
1569,-10,1,-48,1,-38,1,29,1,14,1,-43,1,-18,1,-46,1,-38,1,-37,1,-46,1,-26,1
1570,-11,1,-49,1,-38,1,30,1,13,1,-44,1,-18,1,-47,1,-38,1,-37,1,-48,1,-25,1
1571,-12,1,-51,1,-39,1,31,1,13,1,-45,1,-19,1,-47,1,-39,1,-37,1,-48,1,-26,1
1572,-13,1,-52,1,-39,1,32,1,13,1,-46,1,-20,1,-48,1,-39,1,-37,1,-49,1,-27,1
1573,-14,1,-52,1,-38,1,33,1,12,1,-45,1,-20,1,-48,1,-39,1,-38,1,-50,1,-28,1
1574,-13,1,-51,1,-38,1,32,1,12,1,-45,1,-20,1,-48,1,-39,1,-38,1,-50,1,-28,1
1575,-12,1,-50,1,-38,1,31,1,13,1,-44,1,-19,1,-48,1,-39,1,-38,1,-50,1,-28,1
1576,-13,1,-50,1,-37,1,31,1,12,1,-44,1,-19,1,-48,1,-38,1,-38,1,-51,1,-28,1
1577,-11,1,-50,1,-39,1,30,1,14,1,-45,1,-18,1,-47,1,-38,1,-36,1,-51,1,-29,1
1578,-11,1,-50,1,-39,1,30,1,14,1,-45,1,-18,1,-48,1,-38,1,-36,1,-52,1,-29,1
1579,-10,1,-51,1,-41,1,30,1,15,1,-46,1,-17,1,-48,1,-38,1,-36,1,-52,1,-29,1
1580,-11,1,-51,1,-40,1,31,1,14,1,-46,1,-17,1,-47,1,-38,1,-36,1,-53,1,-29,1
1581,-12,1,-52,1,-40,1,32,1,14,1,-46,1,-17,1,-46,1,-38,1,-36,1,-54,1,-30,1
1582,-13,1,-52,1,-39,1,32,1,13,1,-46,1,-16,1,-44,1,-38,1,-36,1,-53,1,-30,1
1583,-13,1,-52,1,-39,1,32,1,13,1,-46,1,-15,1,-42,1,-37,1,-36,1,-54,1,-30,1
1584,-13,1,-51,1,-38,1,32,1,12,1,-45,1,-11,1,-37,1,-35,1,-35,1,-55,1,-31,1
1585,-15,1,-51,1,-36,1,33,1,10,1,-44,1,-6,1,-30,1,-32,1,-35,1,-56,1,-32,1
1586,-16,1,-51,1,-35,1,33,1,9,1,-43,1,0,1,-22,1,-28,1,-35,1,-58,1,-32,1
1587,-16,1,-49,1,-33,1,32,1,8,1,-41,1,8,1,-9,1,-22,1,-35,1,-58,1,-33,1
1588,-16,1,-48,1,-32,1,32,1,8,1,-40,1,16,1,8,1,-15,1,-32,1,-59,1,-34,1
1589,-15,1,-46,1,-31,1,30,1,8,1,-39,1,26,1,28,1,-5,1,-28,1,-57,1,-34,1
1590,-12,1,-43,1,-31,1,27,1,9,1,-37,1,34,1,46,1,6,1,-22,1,-55,1,-33,1
1591,-10,1,-40,1,-30,1,25,1,10,1,-35,1,42,1,64,1,19,1,-12,1,-50,1,-30,1
1592,-6,1,-37,1,-31,1,21,1,12,1,-34,1,50,1,82,1,33,1,2,1,-43,1,-28,1
1593,0,1,-33,1,-33,1,16,1,16,1,-33,1,57,1,103,1,51,1,20,1,-33,1,-23,1
1594,7,1,-28,1,-35,1,10,1,21,1,-31,1,63,1,128,1,72,1,42,1,-19,1,-16,1
1595,18,1,-21,1,-39,1,1,1,28,1,-30,1,70,1,154,1,96,1,71,1,0,1,-4,1
1596,31,1,-8,1,-39,1,-11,1,35,1,-23,1,70,1,173,1,124,1,108,1,29,1,14,1
1597,44,1,10,1,-34,1,-27,1,39,1,-12,1,65,1,180,1,153,1,148,1,65,1,40,1
1598,60,1,36,1,-24,1,-48,1,42,1,6,1,52,1,176,1,181,1,193,1,109,1,73,1
1599,80,1,70,1,-10,1,-75,1,45,1,30,1,34,1,160,1,209,1,245,1,161,1,112,1
1600,98,1,108,1,10,1,-103,1,44,1,59,1,9,1,127,1,235,1,299,1,217,1,156,1
1601,113,1,147,1,34,1,-130,1,40,1,91,1,-21,1,81,1,261,1,355,1,272,1,198,1
1602,118,1,181,1,63,1,-149,1,28,1,122,1,-49,1,32,1,292,1,414,1,323,1,235,1
1603,116,1,207,1,91,1,-161,1,13,1,149,1,-72,1,-13,1,328,1,473,1,368,1,264,1
1604,113,1,230,1,117,1,-171,1,-2,1,174,1,-98,1,-68,1,361,1,527,1,407,1,290,1
1605,107,1,246,1,139,1,-176,1,-16,1,193,1,-122,1,-129,1,381,1,562,1,431,1,306,1
1606,98,1,250,1,152,1,-174,1,-27,1,201,1,-142,1,-183,1,384,1,573,1,435,1,308,1
1607,82,1,241,1,159,1,-161,1,-38,1,200,1,-153,1,-230,1,360,1,548,1,415,1,296,1
1608,61,1,219,1,158,1,-140,1,-48,1,189,1,-157,1,-274,1,299,1,473,1,366,1,271,1
1609,36,1,189,1,153,1,-112,1,-58,1,171,1,-154,1,-308,1,216,1,366,1,295,1,232,1
1610,10,1,149,1,139,1,-79,1,-64,1,144,1,-150,1,-323,1,132,1,251,1,215,1,185,1
1611,-13,1,106,1,119,1,-46,1,-66,1,112,1,-146,1,-327,1,55,1,145,1,135,1,134,1
1612,-31,1,61,1,92,1,-15,1,-61,1,76,1,-144,1,-323,1,-7,1,56,1,61,1,83,1
1613,-42,1,20,1,62,1,11,1,-52,1,41,1,-140,1,-312,1,-47,1,-6,1,0,1,35,1
1614,-46,1,-10,1,36,1,28,1,-41,1,13,1,-136,1,-298,1,-72,1,-44,1,-40,1,2,1
1615,-46,1,-29,1,17,1,37,1,-32,1,-6,1,-135,1,-286,1,-88,1,-67,1,-64,1,-18,1
1616,-42,1,-41,1,1,1,41,1,-22,1,-20,1,-133,1,-272,1,-95,1,-79,1,-77,1,-30,1
1617,-37,1,-48,1,-11,1,42,1,-13,1,-30,1,-128,1,-250,1,-93,1,-81,1,-82,1,-36,1
1618,-33,1,-54,1,-21,1,43,1,-6,1,-38,1,-120,1,-223,1,-85,1,-77,1,-81,1,-39,1
1619,-29,1,-57,1,-28,1,43,1,-1,1,-43,1,-112,1,-199,1,-79,1,-72,1,-78,1,-41,1
1620,-26,1,-56,1,-30,1,41,1,2,1,-43,1,-104,1,-175,1,-74,1,-68,1,-75,1,-39,1
1621,-20,1,-50,1,-30,1,35,1,5,1,-40,1,-94,1,-151,1,-67,1,-62,1,-70,1,-36,1
1622,-12,1,-43,1,-31,1,27,1,9,1,-37,1,-83,1,-128,1,-60,1,-54,1,-65,1,-32,1
1623,-9,1,-42,1,-33,1,25,1,12,1,-38,1,-72,1,-108,1,-53,1,-47,1,-62,1,-29,1
1624,-7,1,-43,1,-36,1,25,1,14,1,-40,1,-60,1,-91,1,-48,1,-43,1,-59,1,-27,1
1625,-6,1,-43,1,-37,1,24,1,15,1,-40,1,-49,1,-78,1,-45,1,-39,1,-58,1,-25,1
1626,-5,1,-43,1,-38,1,24,1,16,1,-41,1,-41,1,-68,1,-41,1,-36,1,-56,1,-23,1
1627,-6,1,-43,1,-37,1,24,1,15,1,-40,1,-34,1,-60,1,-38,1,-35,1,-54,1,-22,1
1628,-6,1,-43,1,-37,1,24,1,15,1,-40,1,-29,1,-54,1,-36,1,-34,1,-54,1,-21,1
1629,-6,1,-43,1,-37,1,24,1,15,1,-40,1,-26,1,-48,1,-34,1,-33,1,-54,1,-21,1
1630,-7,1,-43,1,-36,1,25,1,14,1,-40,1,-23,1,-43,1,-32,1,-32,1,-54,1,-20,1
1631,-8,1,-43,1,-35,1,25,1,13,1,-39,1,-22,1,-38,1,-30,1,-32,1,-55,1,-20,1
1632,-8,1,-43,1,-35,1,25,1,13,1,-39,1,-21,1,-35,1,-29,1,-32,1,-55,1,-21,1
1633,-8,1,-44,1,-36,1,26,1,14,1,-40,1,-21,1,-35,1,-30,1,-33,1,-55,1,-20,1
1634,-8,1,-45,1,-37,1,26,1,14,1,-41,1,-21,1,-34,1,-30,1,-32,1,-56,1,-21,1
1635,-8,1,-46,1,-38,1,27,1,15,1,-42,1,-20,1,-35,1,-31,1,-32,1,-55,1,-20,1
1636,-7,1,-46,1,-39,1,26,1,16,1,-43,1,-19,1,-34,1,-31,1,-33,1,-55,1,-20,1
1637,-7,1,-46,1,-39,1,26,1,16,1,-43,1,-20,1,-32,1,-33,1,-34,1,-56,1,-21,1
1638,-7,1,-46,1,-39,1,26,1,16,1,-43,1,-20,1,-30,1,-33,1,-35,1,-56,1,-20,1
1639,-7,1,-46,1,-39,1,26,1,16,1,-43,1,-20,1,-28,1,-33,1,-35,1,-56,1,-21,1
1640,-7,1,-44,1,-37,1,25,1,15,1,-41,1,-19,1,-27,1,-33,1,-34,1,-56,1,-21,1
1641,-7,1,-44,1,-37,1,25,1,15,1,-41,1,-19,1,-26,1,-33,1,-34,1,-56,1,-21,1
1642,-7,1,-45,1,-38,1,26,1,15,1,-42,1,-19,1,-25,1,-32,1,-34,1,-56,1,-21,1
1643,-6,1,-45,1,-39,1,25,1,16,1,-42,1,-19,1,-24,1,-32,1,-34,1,-56,1,-21,1
1644,-5,1,-45,1,-40,1,25,1,17,1,-43,1,-19,1,-23,1,-32,1,-33,1,-56,1,-21,1
1645,-5,1,-44,1,-39,1,24,1,17,1,-42,1,-20,1,-23,1,-32,1,-32,1,-55,1,-21,1
1646,-4,1,-44,1,-40,1,24,1,18,1,-42,1,-20,1,-23,1,-32,1,-31,1,-55,1,-21,1
1647,-4,1,-43,1,-39,1,23,1,17,1,-41,1,-20,1,-22,1,-32,1,-30,1,-55,1,-21,1
1648,-3,1,-43,1,-40,1,23,1,18,1,-42,1,-20,1,-21,1,-31,1,-30,1,-55,1,-20,1
1649,-3,1,-43,1,-40,1,23,1,18,1,-42,1,-21,1,-21,1,-31,1,-30,1,-55,1,-20,1
1650,-3,1,-42,1,-39,1,22,1,18,1,-41,1,-21,1,-20,1,-30,1,-29,1,-55,1,-20,1
1651,-3,1,-41,1,-38,1,22,1,17,1,-40,1,-22,1,-19,1,-29,1,-28,1,-55,1,-19,1
1652,-2,1,-41,1,-39,1,21,1,18,1,-40,1,-22,1,-17,1,-29,1,-26,1,-55,1,-19,1
1653,-2,1,-40,1,-38,1,21,1,18,1,-39,1,-22,1,-16,1,-28,1,-25,1,-55,1,-19,1
1654,0,1,-38,1,-38,1,19,1,19,1,-38,1,-22,1,-15,1,-27,1,-23,1,-55,1,-19,1
1655,0,1,-37,1,-37,1,18,1,18,1,-37,1,-21,1,-14,1,-27,1,-22,1,-53,1,-18,1
1656,-1,1,-37,1,-36,1,19,1,17,1,-37,1,-21,1,-13,1,-26,1,-20,1,-53,1,-18,1
1657,-1,1,-36,1,-35,1,18,1,17,1,-36,1,-21,1,-11,1,-25,1,-18,1,-52,1,-17,1
1658,-1,1,-36,1,-35,1,18,1,17,1,-36,1,-21,1,-10,1,-24,1,-17,1,-51,1,-16,1
1659,0,1,-37,1,-37,1,18,1,18,1,-37,1,-22,1,-10,1,-23,1,-16,1,-50,1,-16,1
1660,1,1,-36,1,-37,1,17,1,19,1,-36,1,-24,1,-9,1,-22,1,-15,1,-50,1,-16,1
1661,2,1,-36,1,-38,1,17,1,20,1,-37,1,-24,1,-8,1,-22,1,-13,1,-49,1,-15,1
1662,2,1,-37,1,-39,1,17,1,20,1,-38,1,-25,1,-7,1,-21,1,-13,1,-49,1,-16,1
1663,2,1,-36,1,-38,1,17,1,20,1,-37,1,-26,1,-5,1,-20,1,-13,1,-47,1,-15,1
1664,3,1,-36,1,-39,1,16,1,21,1,-37,1,-26,1,-5,1,-18,1,-13,1,-46,1,-15,1
1665,3,1,-35,1,-38,1,16,1,20,1,-36,1,-26,1,-4,1,-17,1,-12,1,-45,1,-15,1
1666,3,1,-35,1,-38,1,16,1,20,1,-36,1,-26,1,-2,1,-16,1,-10,1,-43,1,-13,1
1667,4,1,-33,1,-37,1,14,1,20,1,-35,1,-26,1,-1,1,-15,1,-8,1,-42,1,-13,1
1668,5,1,-32,1,-37,1,13,1,21,1,-34,1,-27,1,0,1,-15,1,-6,1,-41,1,-12,1
1669,5,1,-32,1,-37,1,13,1,21,1,-34,1,-28,1,1,1,-14,1,-5,1,-39,1,-11,1
1670,6,1,-31,1,-37,1,12,1,21,1,-34,1,-29,1,3,1,-13,1,-4,1,-38,1,-10,1
1671,7,1,-30,1,-37,1,11,1,22,1,-33,1,-30,1,5,1,-12,1,-2,1,-37,1,-8,1
1672,8,1,-29,1,-37,1,10,1,22,1,-33,1,-31,1,7,1,-11,1,0,1,-35,1,-8,1
1673,8,1,-28,1,-36,1,10,1,22,1,-32,1,-32,1,9,1,-10,1,1,1,-34,1,-7,1
1674,8,1,-28,1,-36,1,10,1,22,1,-32,1,-33,1,10,1,-9,1,2,1,-33,1,-6,1
1675,9,1,-28,1,-37,1,9,1,23,1,-32,1,-34,1,11,1,-8,1,4,1,-32,1,-5,1
1676,9,1,-27,1,-36,1,9,1,22,1,-31,1,-35,1,14,1,-6,1,6,1,-29,1,-4,1
1677,10,1,-26,1,-36,1,8,1,23,1,-31,1,-36,1,16,1,-5,1,10,1,-27,1,-3,1
1678,11,1,-24,1,-35,1,6,1,23,1,-29,1,-37,1,18,1,-2,1,13,1,-25,1,-2,1
1679,14,1,-22,1,-36,1,4,1,25,1,-29,1,-38,1,21,1,0,1,16,1,-22,1,0,1
1680,15,1,-20,1,-35,1,2,1,25,1,-27,1,-39,1,23,1,2,1,18,1,-20,1,1,1
1681,16,1,-18,1,-34,1,1,1,25,1,-26,1,-40,1,26,1,3,1,21,1,-16,1,3,1
1682,19,1,-15,1,-34,1,-2,1,26,1,-24,1,-41,1,29,1,5,1,24,1,-13,1,5,1
1683,23,1,-11,1,-34,1,-6,1,28,1,-22,1,-42,1,31,1,8,1,29,1,-10,1,8,1
1684,25,1,-8,1,-33,1,-8,1,29,1,-20,1,-43,1,34,1,10,1,32,1,-7,1,11,1
1685,28,1,-6,1,-34,1,-11,1,31,1,-20,1,-44,1,36,1,12,1,35,1,-3,1,14,1
1686,30,1,-4,1,-34,1,-13,1,32,1,-19,1,-46,1,39,1,14,1,38,1,0,1,17,1
1687,32,1,-2,1,-34,1,-15,1,33,1,-18,1,-48,1,41,1,15,1,42,1,3,1,19,1
1688,33,1,-1,1,-34,1,-16,1,33,1,-17,1,-50,1,42,1,16,1,45,1,6,1,21,1
1689,35,1,0,1,-35,1,-17,1,35,1,-17,1,-52,1,44,1,17,1,47,1,9,1,24,1
1690,35,1,1,1,-34,1,-18,1,35,1,-16,1,-53,1,46,1,17,1,50,1,12,1,26,1
1691,36,1,3,1,-33,1,-19,1,35,1,-15,1,-54,1,48,1,17,1,51,1,14,1,29,1
1692,37,1,5,1,-32,1,-21,1,35,1,-13,1,-56,1,49,1,17,1,53,1,15,1,30,1
1693,37,1,6,1,-31,1,-21,1,34,1,-12,1,-57,1,51,1,17,1,55,1,16,1,31,1
1694,40,1,9,1,-31,1,-24,1,36,1,-11,1,-58,1,51,1,16,1,56,1,18,1,33,1
1695,42,1,11,1,-31,1,-26,1,37,1,-10,1,-59,1,52,1,16,1,57,1,20,1,34,1
1696,43,1,11,1,-32,1,-27,1,38,1,-10,1,-62,1,52,1,15,1,58,1,21,1,36,1
1697,43,1,11,1,-32,1,-27,1,38,1,-10,1,-64,1,52,1,13,1,59,1,23,1,37,1
1698,43,1,11,1,-32,1,-27,1,38,1,-10,1,-66,1,52,1,12,1,60,1,24,1,38,1
1699,43,1,12,1,-31,1,-27,1,37,1,-9,1,-68,1,52,1,10,1,59,1,24,1,38,1
1700,43,1,12,1,-31,1,-27,1,37,1,-9,1,-68,1,52,1,8,1,58,1,25,1,40,1
1701,44,1,14,1,-30,1,-29,1,37,1,-8,1,-67,1,52,1,6,1,58,1,25,1,41,1
1702,45,1,16,1,-29,1,-30,1,37,1,-6,1,-67,1,52,1,5,1,57,1,25,1,42,1
1703,45,1,16,1,-29,1,-30,1,37,1,-6,1,-67,1,51,1,3,1,57,1,25,1,41,1
1704,45,1,17,1,-28,1,-31,1,37,1,-5,1,-68,1,50,1,0,1,56,1,24,1,41,1
1705,45,1,17,1,-28,1,-31,1,37,1,-5,1,-68,1,48,1,-2,1,55,1,24,1,40,1
1706,46,1,17,1,-29,1,-31,1,38,1,-6,1,-69,1,47,1,-3,1,54,1,24,1,40,1
1707,48,1,17,1,-31,1,-32,1,40,1,-7,1,-70,1,46,1,-4,1,53,1,23,1,40,1
1708,48,1,16,1,-32,1,-32,1,40,1,-8,1,-70,1,44,1,-6,1,51,1,22,1,39,1
1709,45,1,14,1,-31,1,-29,1,38,1,-8,1,-69,1,42,1,-8,1,48,1,21,1,38,1
1710,42,1,12,1,-30,1,-27,1,36,1,-9,1,-67,1,41,1,-10,1,45,1,19,1,37,1
1711,40,1,10,1,-30,1,-25,1,35,1,-10,1,-66,1,38,1,-13,1,42,1,17,1,36,1
1712,38,1,8,1,-30,1,-23,1,34,1,-11,1,-65,1,37,1,-16,1,39,1,14,1,34,1
1713,37,1,6,1,-31,1,-21,1,34,1,-12,1,-64,1,36,1,-18,1,35,1,11,1,31,1
1714,36,1,4,1,-32,1,-20,1,34,1,-14,1,-62,1,35,1,-20,1,32,1,8,1,28,1
