TS,I,If,II,IIf,III,IIIf,aVR,aVRf,aVL,aVLf,aVF,aVFf,V1,V1f,V2,V2f,V3,V3f,V4,V4f,V5,V5f,V6,V6f
1,-34,1,-40,1,-6,1,37,1,-14,1,-23,1,-25,1,-48,1,-50,1,-34,1,-23,1,6,1
2,-35,1,-39,1,-4,1,37,1,-16,1,-22,1,-22,1,-47,1,-48,1,-34,1,-24,1,5,1
3,-35,1,-39,1,-4,1,37,1,-16,1,-22,1,-19,1,-47,1,-48,1,-34,1,-24,1,3,1
4,-37,1,-40,1,-3,1,38,1,-17,1,-22,1,-17,1,-47,1,-49,1,-35,1,-24,1,3,1
5,-37,1,-39,1,-2,1,38,1,-18,1,-21,1,-14,1,-48,1,-48,1,-35,1,-24,1,2,1
6,-36,1,-39,1,-3,1,37,1,-17,1,-21,1,-13,1,-47,1,-47,1,-34,1,-22,1,2,1
7,-37,1,-39,1,-2,1,38,1,-18,1,-21,1,-14,1,-47,1,-47,1,-34,1,-22,1,1,1
8,-36,1,-38,1,-2,1,37,1,-17,1,-20,1,-18,1,-48,1,-49,1,-33,1,-22,1,1,1
9,-32,1,-36,1,-4,1,34,1,-14,1,-20,1,-22,1,-48,1,-48,1,-34,1,-21,1,1,1
10,-30,1,-34,1,-4,1,32,1,-13,1,-19,1,-26,1,-48,1,-47,1,-33,1,-21,1,1,1
11,-27,1,-31,1,-4,1,29,1,-12,1,-18,1,-30,1,-48,1,-47,1,-32,1,-21,1,1,1
12,-26,1,-29,1,-3,1,27,1,-12,1,-16,1,-33,1,-50,1,-46,1,-32,1,-21,1,1,1
13,-25,1,-27,1,-2,1,26,1,-12,1,-15,1,-38,1,-50,1,-45,1,-31,1,-20,1,2,1
14,-27,1,-29,1,-2,1,28,1,-13,1,-16,1,-42,1,-50,1,-45,1,-32,1,-20,1,0,1
15,-29,1,-32,1,-3,1,30,1,-13,1,-18,1,-46,1,-51,1,-45,1,-32,1,-20,1,0,1
16,-30,1,-33,1,-3,1,31,1,-14,1,-18,1,-48,1,-51,1,-44,1,-32,1,-19,1,0,1
17,-31,1,-35,1,-4,1,33,1,-14,1,-20,1,-50,1,-50,1,-43,1,-31,1,-18,1,0,1
18,-30,1,-38,1,-8,1,34,1,-11,1,-23,1,-51,1,-50,1,-43,1,-31,1,-18,1,0,1
19,-27,1,-40,1,-13,1,33,1,-7,1,-27,1,-52,1,-49,1,-43,1,-31,1,-19,1,0,1
20,-25,1,-40,1,-15,1,32,1,-5,1,-28,1,-52,1,-47,1,-41,1,-29,1,-18,1,0,1
21,-25,1,-40,1,-15,1,32,1,-5,1,-28,1,-53,1,-45,1,-40,1,-28,1,-18,1,0,1
22,-25,1,-40,1,-15,1,32,1,-5,1,-28,1,-53,1,-43,1,-39,1,-27,1,-17,1,0,1
23,-25,1,-40,1,-15,1,32,1,-5,1,-28,1,-53,1,-43,1,-39,1,-27,1,-16,1,0,1
24,-25,1,-40,1,-15,1,32,1,-5,1,-28,1,-53,1,-43,1,-39,1,-27,1,-15,1,0,1
25,-22,1,-38,1,-16,1,30,1,-3,1,-27,1,-53,1,-42,1,-39,1,-27,1,-14,1,0,1
26,-20,1,-36,1,-16,1,28,1,-2,1,-26,1,-52,1,-41,1,-40,1,-26,1,-13,1,0,1
27,-19,1,-36,1,-17,1,27,1,-1,1,-27,1,-51,1,-41,1,-42,1,-26,1,-13,1,0,1
28,-19,1,-39,1,-20,1,29,1,0,1,-30,1,-52,1,-40,1,-44,1,-26,1,-13,1,0,1
29,-20,1,-39,1,-19,1,29,1,-1,1,-29,1,-51,1,-40,1,-46,1,-26,1,-13,1,0,1
30,-19,1,-39,1,-20,1,29,1,0,1,-30,1,-51,1,-41,1,-46,1,-26,1,-13,1,0,1
31,-19,1,-37,1,-18,1,28,1,-1,1,-28,1,-52,1,-41,1,-46,1,-26,1,-13,1,1,1
32,-20,1,-36,1,-16,1,28,1,-2,1,-26,1,-53,1,-41,1,-45,1,-25,1,-13,1,1,1
33,-20,1,-35,1,-15,1,27,1,-3,1,-25,1,-53,1,-41,1,-44,1,-25,1,-13,1,1,1
34,-18,1,-33,1,-15,1,25,1,-2,1,-24,1,-53,1,-41,1,-41,1,-24,1,-12,1,2,1
35,-16,1,-32,1,-16,1,24,1,0,1,-24,1,-53,1,-41,1,-39,1,-24,1,-11,1,2,1
36,-14,1,-31,1,-17,1,22,1,1,1,-24,1,-53,1,-42,1,-36,1,-23,1,-11,1,2,1
37,-13,1,-30,1,-17,1,21,1,2,1,-24,1,-52,1,-41,1,-33,1,-23,1,-10,1,3,1
38,-13,1,-30,1,-17,1,21,1,2,1,-24,1,-51,1,-41,1,-32,1,-23,1,-10,1,4,1
39,-13,1,-30,1,-17,1,21,1,2,1,-24,1,-50,1,-40,1,-31,1,-22,1,-9,1,4,1
40,-15,1,-30,1,-15,1,22,1,0,1,-23,1,-49,1,-40,1,-29,1,-21,1,-9,1,5,1
41,-16,1,-29,1,-13,1,22,1,-2,1,-21,1,-48,1,-39,1,-27,1,-20,1,-9,1,5,1
42,-19,1,-29,1,-10,1,24,1,-5,1,-20,1,-46,1,-38,1,-24,1,-20,1,-9,1,5,1
43,-20,1,-26,1,-6,1,23,1,-7,1,-16,1,-40,1,-34,1,-20,1,-19,1,-11,1,3,1
44,-22,1,-25,1,-3,1,23,1,-10,1,-14,1,-34,1,-28,1,-15,1,-18,1,-15,1,-1,1
45,-26,1,-24,1,2,1,25,1,-14,1,-11,1,-26,1,-20,1,-8,1,-16,1,-19,1,-7,1
46,-32,1,-24,1,8,1,28,1,-20,1,-8,1,-16,1,-8,1,3,1,-11,1,-21,1,-13,1
47,-39,1,-25,1,14,1,32,1,-27,1,-6,1,-6,1,7,1,18,1,-3,1,-21,1,-19,1
48,-47,1,-24,1,23,1,35,1,-35,1,-1,1,6,1,25,1,39,1,12,1,-16,1,-22,1
49,-52,1,-18,1,34,1,35,1,-43,1,8,1,21,1,49,1,68,1,35,1,-4,1,-22,1
50,-56,1,-11,1,45,1,33,1,-51,1,17,1,38,1,77,1,104,1,66,1,12,1,-20,1
51,-60,1,-6,1,54,1,33,1,-57,1,24,1,55,1,108,1,147,1,105,1,36,1,-17,1
52,-62,1,2,1,64,1,30,1,-63,1,33,1,72,1,145,1,198,1,155,1,65,1,-11,1
53,-62,1,9,1,71,1,26,1,-66,1,40,1,88,1,185,1,255,1,208,1,98,1,-4,1
54,-61,1,15,1,76,1,23,1,-68,1,45,1,103,1,231,1,316,1,264,1,133,1,2,1
55,-56,1,23,1,79,1,16,1,-67,1,51,1,117,1,280,1,382,1,322,1,168,1,10,1
56,-50,1,31,1,81,1,9,1,-65,1,56,1,129,1,332,1,450,1,382,1,207,1,18,1
57,-38,1,43,1,81,1,-2,1,-59,1,62,1,140,1,386,1,520,1,444,1,249,1,29,1
58,-22,1,61,1,83,1,-19,1,-52,1,72,1,150,1,441,1,591,1,506,1,293,1,44,1
59,-5,1,80,1,85,1,-37,1,-45,1,82,1,156,1,492,1,659,1,565,1,335,1,59,1
60,12,1,96,1,84,1,-54,1,-36,1,90,1,162,1,543,1,725,1,619,1,374,1,73,1
61,30,1,107,1,77,1,-68,1,-23,1,92,1,164,1,592,1,786,1,667,1,409,1,85,1
62,49,1,111,1,62,1,-80,1,-6,1,87,1,162,1,634,1,837,1,704,1,434,1,94,1
63,65,1,108,1,43,1,-86,1,11,1,76,1,158,1,671,1,868,1,716,1,443,1,100,1
64,71,1,99,1,28,1,-85,1,22,1,64,1,151,1,684,1,852,1,670,1,404,1,91,1
65,67,1,72,1,5,1,-69,1,31,1,39,1,140,1,665,1,764,1,528,1,278,1,49,1
66,57,1,32,1,-25,1,-44,1,41,1,4,1,129,1,617,1,613,1,315,1,103,1,-13,1
67,45,1,-13,1,-58,1,-16,1,51,1,-35,1,119,1,555,1,444,1,111,1,-52,1,-73,1
68,31,1,-50,1,-81,1,9,1,56,1,-65,1,109,1,485,1,285,1,-45,1,-157,1,-112,1
69,13,1,-73,1,-86,1,30,1,49,1,-79,1,96,1,411,1,150,1,-155,1,-221,1,-133,1
70,-2,1,-90,1,-88,1,46,1,43,1,-89,1,80,1,342,1,49,1,-218,1,-251,1,-140,1
71,-15,1,-104,1,-89,1,59,1,37,1,-97,1,65,1,277,1,-27,1,-253,1,-262,1,-141,1
72,-25,1,-111,1,-86,1,68,1,30,1,-99,1,53,1,219,1,-82,1,-268,1,-261,1,-137,1
73,-32,1,-113,1,-81,1,72,1,24,1,-97,1,40,1,166,1,-119,1,-266,1,-248,1,-127,1
74,-37,1,-107,1,-70,1,72,1,16,1,-89,1,24,1,113,1,-143,1,-255,1,-227,1,-113,1
75,-35,1,-96,1,-61,1,65,1,13,1,-79,1,6,1,64,1,-155,1,-235,1,-200,1,-94,1
76,-30,1,-85,1,-55,1,57,1,12,1,-70,1,-12,1,24,1,-155,1,-208,1,-168,1,-73,1
77,-24,1,-75,1,-51,1,49,1,13,1,-63,1,-26,1,-10,1,-151,1,-180,1,-136,1,-53,1
78,-19,1,-64,1,-45,1,41,1,13,1,-55,1,-34,1,-40,1,-149,1,-158,1,-111,1,-36,1
79,-15,1,-54,1,-39,1,34,1,12,1,-47,1,-40,1,-66,1,-146,1,-143,1,-94,1,-23,1
80,-13,1,-44,1,-31,1,28,1,9,1,-38,1,-46,1,-86,1,-141,1,-131,1,-83,1,-16,1
81,-10,1,-36,1,-26,1,23,1,8,1,-31,1,-49,1,-100,1,-137,1,-123,1,-77,1,-12,1
82,-11,1,-33,1,-22,1,22,1,5,1,-28,1,-52,1,-110,1,-133,1,-119,1,-74,1,-10,1
83,-13,1,-29,1,-16,1,21,1,1,1,-23,1,-53,1,-115,1,-130,1,-115,1,-72,1,-9,1
84,-14,1,-25,1,-11,1,19,1,-2,1,-18,1,-52,1,-117,1,-127,1,-111,1,-67,1,-5,1
85,-16,1,-21,1,-5,1,18,1,-6,1,-13,1,-50,1,-116,1,-124,1,-105,1,-62,1,-1,1
86,-15,1,-16,1,-1,1,15,1,-7,1,-9,1,-50,1,-115,1,-122,1,-100,1,-56,1,3,1
87,-16,1,-16,1,0,1,16,1,-8,1,-8,1,-50,1,-114,1,-121,1,-96,1,-52,1,5,1
88,-17,1,-18,1,-1,1,17,1,-8,1,-10,1,-50,1,-113,1,-120,1,-94,1,-49,1,7,1
89,-15,1,-19,1,-4,1,17,1,-6,1,-12,1,-49,1,-112,1,-118,1,-93,1,-49,1,7,1
90,-14,1,-20,1,-6,1,17,1,-4,1,-13,1,-48,1,-111,1,-116,1,-92,1,-50,1,6,1
91,-13,1,-21,1,-8,1,17,1,-3,1,-15,1,-47,1,-110,1,-113,1,-92,1,-51,1,5,1
92,-12,1,-20,1,-8,1,16,1,-2,1,-14,1,-45,1,-109,1,-111,1,-92,1,-52,1,4,1
93,-12,1,-20,1,-8,1,16,1,-2,1,-14,1,-44,1,-108,1,-111,1,-91,1,-52,1,4,1
94,-11,1,-21,1,-10,1,16,1,-1,1,-16,1,-44,1,-108,1,-111,1,-92,1,-53,1,2,1
95,-11,1,-23,1,-12,1,17,1,0,1,-18,1,-45,1,-109,1,-111,1,-92,1,-54,1,2,1
96,-13,1,-23,1,-10,1,18,1,-2,1,-17,1,-44,1,-106,1,-110,1,-91,1,-52,1,3,1
97,-13,1,-23,1,-10,1,18,1,-2,1,-17,1,-43,1,-105,1,-107,1,-90,1,-50,1,4,1
98,-14,1,-23,1,-9,1,18,1,-3,1,-16,1,-42,1,-103,1,-105,1,-89,1,-50,1,4,1
99,-13,1,-23,1,-10,1,18,1,-2,1,-17,1,-42,1,-103,1,-104,1,-90,1,-50,1,3,1
100,-10,1,-21,1,-11,1,15,1,0,1,-16,1,-40,1,-102,1,-102,1,-90,1,-51,1,3,1
101,-8,1,-20,1,-12,1,14,1,2,1,-16,1,-39,1,-101,1,-100,1,-90,1,-51,1,2,1
102,-6,1,-19,1,-13,1,12,1,3,1,-16,1,-38,1,-100,1,-98,1,-90,1,-51,1,2,1
103,-7,1,-19,1,-12,1,13,1,2,1,-16,1,-38,1,-100,1,-99,1,-89,1,-52,1,2,1
104,-8,1,-18,1,-10,1,13,1,1,1,-14,1,-38,1,-99,1,-97,1,-88,1,-53,1,2,1
105,-9,1,-19,1,-10,1,14,1,0,1,-15,1,-37,1,-98,1,-95,1,-87,1,-52,1,3,1
106,-8,1,-15,1,-7,1,11,1,-1,1,-11,1,-36,1,-97,1,-93,1,-85,1,-51,1,3,1
107,-4,1,-10,1,-6,1,7,1,1,1,-8,1,-34,1,-95,1,-90,1,-84,1,-50,1,4,1
108,-1,1,-7,1,-6,1,4,1,2,1,-7,1,-33,1,-94,1,-89,1,-84,1,-49,1,3,1
109,1,1,-5,1,-6,1,2,1,3,1,-5,1,-32,1,-93,1,-88,1,-84,1,-50,1,2,1
110,3,1,-6,1,-9,1,1,1,6,1,-7,1,-32,1,-93,1,-88,1,-84,1,-51,1,1,1
111,3,1,-6,1,-9,1,1,1,6,1,-7,1,-31,1,-93,1,-89,1,-84,1,-51,1,0,1
112,3,1,-4,1,-7,1,0,1,5,1,-5,1,-31,1,-92,1,-88,1,-85,1,-51,1,1,1
113,3,1,-3,1,-6,1,0,1,4,1,-4,1,-30,1,-91,1,-87,1,-84,1,-50,1,3,1
114,6,1,1,1,-5,1,-3,1,6,1,-2,1,-29,1,-91,1,-86,1,-84,1,-51,1,4,1
115,6,1,2,1,-4,1,-4,1,5,1,-1,1,-29,1,-90,1,-85,1,-86,1,-51,1,5,1
116,3,1,0,1,-3,1,-1,1,3,1,-1,1,-29,1,-91,1,-85,1,-87,1,-53,1,4,1
117,1,1,-1,1,-2,1,0,1,1,1,-1,1,-30,1,-91,1,-86,1,-88,1,-53,1,3,1
118,3,1,0,1,-3,1,-1,1,3,1,-1,1,-30,1,-90,1,-85,1,-87,1,-53,1,3,1
119,2,1,1,1,-1,1,-1,1,2,1,0,1,-30,1,-90,1,-84,1,-87,1,-53,1,2,1
120,2,1,1,1,-1,1,-1,1,2,1,0,1,-29,1,-89,1,-84,1,-88,1,-52,1,1,1
121,1,1,0,1,-1,1,0,1,1,1,0,1,-29,1,-89,1,-84,1,-88,1,-52,1,0,1
122,-2,1,-2,1,0,1,2,1,-1,1,-1,1,-29,1,-91,1,-84,1,-90,1,-52,1,0,1
123,-4,1,-4,1,0,1,4,1,-2,1,-2,1,-29,1,-93,1,-85,1,-92,1,-54,1,-1,1
124,-5,1,-4,1,1,1,4,1,-3,1,-2,1,-27,1,-93,1,-84,1,-92,1,-55,1,-2,1
125,-4,1,-2,1,2,1,3,1,-3,1,0,1,-25,1,-92,1,-82,1,-92,1,-55,1,-2,1
126,-2,1,1,1,3,1,0,1,-2,1,2,1,-23,1,-91,1,-80,1,-91,1,-55,1,-1,1
127,0,1,2,1,2,1,-1,1,-1,1,2,1,-22,1,-90,1,-79,1,-90,1,-56,1,0,1
128,1,1,4,1,3,1,-2,1,-1,1,4,1,-21,1,-90,1,-79,1,-90,1,-56,1,-1,1
129,2,1,6,1,4,1,-4,1,-1,1,5,1,-20,1,-89,1,-78,1,-90,1,-55,1,-1,1
130,2,1,3,1,1,1,-2,1,1,1,2,1,-19,1,-88,1,-77,1,-91,1,-55,1,-1,1
131,1,1,2,1,1,1,-1,1,0,1,2,1,-18,1,-89,1,-77,1,-91,1,-55,1,-2,1
132,0,1,2,1,2,1,-1,1,-1,1,2,1,-17,1,-88,1,-78,1,-91,1,-55,1,-1,1
133,1,1,0,1,-1,1,0,1,1,1,0,1,-17,1,-89,1,-81,1,-91,1,-55,1,-1,1
134,4,1,2,1,-2,1,-3,1,3,1,0,1,-15,1,-89,1,-83,1,-90,1,-56,1,-2,1
135,4,1,2,1,-2,1,-3,1,3,1,0,1,-16,1,-89,1,-84,1,-89,1,-56,1,-2,1
136,5,1,2,1,-3,1,-3,1,4,1,0,1,-17,1,-89,1,-86,1,-89,1,-58,1,-2,1
137,6,1,3,1,-3,1,-4,1,5,1,0,1,-19,1,-89,1,-87,1,-89,1,-58,1,-2,1
138,7,1,4,1,-3,1,-5,1,5,1,1,1,-21,1,-88,1,-85,1,-89,1,-57,1,-2,1
139,10,1,7,1,-3,1,-8,1,7,1,2,1,-22,1,-88,1,-83,1,-88,1,-56,1,-2,1
140,12,1,9,1,-3,1,-10,1,8,1,3,1,-24,1,-88,1,-82,1,-88,1,-56,1,-3,1
141,13,1,10,1,-3,1,-11,1,8,1,4,1,-26,1,-89,1,-82,1,-89,1,-56,1,-3,1
142,14,1,11,1,-3,1,-12,1,9,1,4,1,-29,1,-91,1,-81,1,-90,1,-57,1,-4,1
143,14,1,13,1,-1,1,-13,1,8,1,6,1,-33,1,-92,1,-79,1,-90,1,-57,1,-5,1
144,14,1,14,1,0,1,-14,1,7,1,7,1,-35,1,-93,1,-77,1,-89,1,-57,1,-5,1
145,12,1,16,1,4,1,-14,1,4,1,10,1,-36,1,-92,1,-75,1,-89,1,-58,1,-5,1
146,10,1,17,1,7,1,-13,1,2,1,12,1,-37,1,-93,1,-75,1,-90,1,-59,1,-6,1
147,8,1,17,1,9,1,-12,1,0,1,13,1,-38,1,-92,1,-74,1,-89,1,-59,1,-7,1
148,4,1,18,1,14,1,-11,1,-5,1,16,1,-37,1,-92,1,-72,1,-88,1,-59,1,-7,1
149,1,1,17,1,16,1,-9,1,-7,1,17,1,-37,1,-91,1,-72,1,-88,1,-59,1,-10,1
150,-2,1,13,1,15,1,-5,1,-8,1,14,1,-36,1,-90,1,-71,1,-87,1,-60,1,-13,1
151,-5,1,11,1,16,1,-3,1,-10,1,13,1,-34,1,-88,1,-69,1,-87,1,-60,1,-15,1
152,-4,1,10,1,14,1,-3,1,-9,1,12,1,-31,1,-85,1,-66,1,-86,1,-59,1,-15,1
153,-1,1,11,1,12,1,-5,1,-6,1,11,1,-28,1,-80,1,-61,1,-83,1,-58,1,-14,1
154,0,1,11,1,11,1,-5,1,-5,1,11,1,-26,1,-76,1,-56,1,-80,1,-56,1,-14,1
155,1,1,9,1,8,1,-5,1,-3,1,9,1,-24,1,-74,1,-53,1,-77,1,-54,1,-13,1
156,0,1,7,1,7,1,-3,1,-3,1,7,1,-23,1,-72,1,-50,1,-76,1,-54,1,-13,1
157,0,1,8,1,8,1,-4,1,-4,1,8,1,-21,1,-70,1,-47,1,-73,1,-52,1,-14,1
158,2,1,8,1,6,1,-5,1,-2,1,7,1,-20,1,-67,1,-43,1,-70,1,-51,1,-14,1
159,3,1,9,1,6,1,-6,1,-1,1,8,1,-19,1,-65,1,-39,1,-67,1,-49,1,-15,1
160,5,1,11,1,6,1,-8,1,0,1,9,1,-18,1,-63,1,-35,1,-65,1,-47,1,-17,1
161,5,1,12,1,7,1,-8,1,-1,1,10,1,-16,1,-61,1,-33,1,-61,1,-46,1,-19,1
162,5,1,12,1,7,1,-8,1,-1,1,10,1,-14,1,-58,1,-29,1,-57,1,-44,1,-20,1
163,5,1,13,1,8,1,-9,1,-1,1,11,1,-12,1,-57,1,-25,1,-52,1,-42,1,-20,1
164,7,1,14,1,7,1,-10,1,0,1,11,1,-9,1,-54,1,-20,1,-47,1,-40,1,-20,1
165,8,1,18,1,10,1,-13,1,-1,1,14,1,-7,1,-50,1,-16,1,-43,1,-36,1,-20,1
166,11,1,20,1,9,1,-15,1,1,1,15,1,-5,1,-47,1,-11,1,-39,1,-32,1,-19,1
167,12,1,21,1,9,1,-16,1,2,1,15,1,-4,1,-44,1,-7,1,-34,1,-27,1,-17,1
168,13,1,21,1,8,1,-17,1,3,1,15,1,-3,1,-41,1,-4,1,-29,1,-23,1,-16,1
169,11,1,20,1,9,1,-15,1,1,1,15,1,-2,1,-39,1,0,1,-24,1,-19,1,-15,1
170,8,1,20,1,12,1,-14,1,-2,1,16,1,-1,1,-35,1,4,1,-18,1,-15,1,-13,1
171,11,1,20,1,9,1,-15,1,1,1,15,1,0,1,-33,1,9,1,-13,1,-12,1,-12,1
172,13,1,20,1,7,1,-16,1,3,1,14,1,0,1,-31,1,13,1,-7,1,-9,1,-11,1
173,13,1,20,1,7,1,-16,1,3,1,14,1,1,1,-27,1,18,1,-2,1,-5,1,-10,1
174,15,1,21,1,6,1,-18,1,5,1,14,1,2,1,-24,1,24,1,3,1,-2,1,-9,1
175,17,1,22,1,5,1,-19,1,6,1,14,1,4,1,-21,1,28,1,8,1,1,1,-9,1
176,18,1,22,1,4,1,-20,1,7,1,13,1,6,1,-18,1,32,1,12,1,3,1,-9,1
177,21,1,24,1,3,1,-22,1,9,1,14,1,7,1,-15,1,35,1,17,1,7,1,-8,1
178,23,1,27,1,4,1,-25,1,10,1,16,1,9,1,-12,1,39,1,22,1,10,1,-8,1
179,27,1,30,1,3,1,-28,1,12,1,17,1,9,1,-9,1,43,1,27,1,13,1,-8,1
180,28,1,30,1,2,1,-29,1,13,1,16,1,10,1,-8,1,46,1,31,1,16,1,-8,1
181,27,1,29,1,2,1,-28,1,13,1,16,1,9,1,-7,1,48,1,34,1,17,1,-8,1
182,28,1,28,1,0,1,-28,1,14,1,14,1,9,1,-6,1,51,1,36,1,19,1,-8,1
183,29,1,28,1,-1,1,-28,1,15,1,14,1,11,1,-4,1,53,1,39,1,21,1,-7,1
184,29,1,28,1,-1,1,-28,1,15,1,14,1,11,1,-2,1,55,1,41,1,23,1,-7,1
185,30,1,28,1,-2,1,-29,1,16,1,13,1,12,1,-1,1,57,1,43,1,24,1,-5,1
186,30,1,28,1,-2,1,-29,1,16,1,13,1,12,1,0,1,59,1,44,1,26,1,-4,1
187,31,1,30,1,-1,1,-30,1,16,1,15,1,12,1,1,1,60,1,46,1,28,1,-3,1
188,32,1,32,1,0,1,-32,1,16,1,16,1,13,1,3,1,62,1,48,1,30,1,-2,1
189,35,1,33,1,-2,1,-34,1,19,1,16,1,12,1,3,1,64,1,49,1,31,1,-2,1
190,37,1,34,1,-3,1,-35,1,20,1,16,1,11,1,3,1,63,1,48,1,29,1,-4,1
191,39,1,36,1,-3,1,-37,1,21,1,17,1,11,1,3,1,63,1,49,1,29,1,-3,1
192,41,1,39,1,-2,1,-40,1,22,1,19,1,11,1,4,1,63,1,49,1,30,1,-2,1
193,42,1,39,1,-3,1,-40,1,23,1,18,1,9,1,2,1,62,1,48,1,29,1,-1,1
194,40,1,38,1,-2,1,-39,1,21,1,18,1,7,1,2,1,61,1,48,1,29,1,-1,1
195,41,1,38,1,-3,1,-39,1,22,1,18,1,5,1,1,1,61,1,47,1,29,1,0,1
196,44,1,38,1,-6,1,-41,1,25,1,16,1,2,1,0,1,61,1,46,1,29,1,0,1
197,44,1,40,1,-4,1,-42,1,24,1,18,1,0,1,-1,1,62,1,45,1,29,1,0,1
198,46,1,42,1,-4,1,-44,1,25,1,19,1,-2,1,-2,1,62,1,43,1,29,1,1,1
199,46,1,42,1,-4,1,-44,1,25,1,19,1,-6,1,-3,1,61,1,41,1,27,1,1,1
200,45,1,39,1,-6,1,-42,1,26,1,17,1,-10,1,-5,1,60,1,39,1,25,1,1,1
201,42,1,37,1,-5,1,-39,1,24,1,16,1,-16,1,-6,1,57,1,37,1,24,1,1,1
202,41,1,39,1,-2,1,-40,1,22,1,19,1,-19,1,-6,1,55,1,36,1,23,1,1,1
203,41,1,42,1,1,1,-41,1,20,1,22,1,-22,1,-6,1,54,1,36,1,22,1,0,1
204,42,1,42,1,0,1,-42,1,21,1,21,1,-24,1,-6,1,52,1,34,1,20,1,0,1
205,41,1,41,1,0,1,-41,1,21,1,21,1,-27,1,-6,1,51,1,33,1,19,1,-1,1
206,41,1,41,1,0,1,-41,1,21,1,21,1,-28,1,-6,1,50,1,31,1,19,1,-1,1
207,43,1,39,1,-4,1,-41,1,24,1,18,1,-30,1,-7,1,49,1,31,1,19,1,0,1
208,43,1,37,1,-6,1,-40,1,25,1,16,1,-32,1,-9,1,47,1,29,1,18,1,0,1
209,44,1,36,1,-8,1,-40,1,26,1,14,1,-33,1,-8,1,46,1,28,1,16,1,1,1
210,46,1,35,1,-11,1,-40,1,29,1,12,1,-34,1,-6,1,45,1,28,1,16,1,2,1
211,49,1,36,1,-13,1,-42,1,31,1,12,1,-35,1,-4,1,45,1,29,1,16,1,5,1
212,51,1,37,1,-14,1,-44,1,33,1,12,1,-35,1,-2,1,45,1,29,1,17,1,7,1
213,55,1,38,1,-17,1,-46,1,36,1,11,1,-36,1,0,1,45,1,30,1,18,1,8,1
214,58,1,41,1,-17,1,-49,1,38,1,12,1,-35,1,1,1,47,1,30,1,20,1,10,1
215,62,1,43,1,-19,1,-52,1,41,1,12,1,-36,1,2,1,48,1,31,1,21,1,11,1
216,66,1,44,1,-22,1,-55,1,44,1,11,1,-37,1,2,1,47,1,31,1,21,1,12,1
217,62,1,42,1,-20,1,-52,1,41,1,11,1,-37,1,1,1,45,1,30,1,20,1,11,1
218,59,1,42,1,-17,1,-50,1,38,1,13,1,-37,1,1,1,45,1,30,1,20,1,11,1
219,60,1,43,1,-17,1,-51,1,39,1,13,1,-36,1,2,1,45,1,31,1,21,1,11,1
220,62,1,43,1,-19,1,-52,1,41,1,12,1,-36,1,1,1,44,1,32,1,21,1,13,1
221,63,1,45,1,-18,1,-54,1,41,1,14,1,-36,1,0,1,44,1,32,1,22,1,14,1
222,64,1,44,1,-20,1,-54,1,42,1,12,1,-34,1,0,1,45,1,32,1,24,1,16,1
223,63,1,44,1,-19,1,-53,1,41,1,13,1,-32,1,1,1,46,1,32,1,25,1,18,1
224,63,1,44,1,-19,1,-53,1,41,1,13,1,-30,1,1,1,45,1,32,1,27,1,18,1
225,63,1,45,1,-18,1,-54,1,41,1,14,1,-28,1,2,1,45,1,32,1,27,1,19,1
226,61,1,46,1,-15,1,-53,1,38,1,16,1,-25,1,2,1,45,1,33,1,28,1,20,1
227,61,1,48,1,-13,1,-54,1,37,1,18,1,-22,1,3,1,46,1,33,1,27,1,20,1
228,59,1,50,1,-9,1,-54,1,34,1,21,1,-20,1,3,1,46,1,34,1,26,1,20,1
229,58,1,52,1,-6,1,-55,1,32,1,23,1,-18,1,3,1,46,1,34,1,25,1,19,1
230,56,1,50,1,-6,1,-53,1,31,1,22,1,-16,1,3,1,45,1,33,1,23,1,17,1
231,53,1,48,1,-5,1,-50,1,29,1,22,1,-14,1,3,1,44,1,32,1,20,1,15,1
232,50,1,46,1,-4,1,-48,1,27,1,21,1,-12,1,3,1,44,1,31,1,20,1,13,1
233,49,1,45,1,-4,1,-47,1,27,1,21,1,-9,1,5,1,45,1,30,1,19,1,11,1
234,48,1,45,1,-3,1,-46,1,26,1,21,1,-6,1,6,1,44,1,29,1,20,1,10,1
235,49,1,46,1,-3,1,-47,1,26,1,22,1,-3,1,6,1,44,1,29,1,20,1,10,1
236,48,1,46,1,-2,1,-47,1,25,1,22,1,-1,1,7,1,43,1,29,1,20,1,10,1
237,49,1,45,1,-4,1,-47,1,27,1,21,1,0,1,7,1,42,1,28,1,19,1,10,1
238,50,1,45,1,-5,1,-47,1,28,1,20,1,2,1,8,1,40,1,28,1,19,1,10,1
239,49,1,46,1,-3,1,-47,1,26,1,22,1,5,1,10,1,39,1,29,1,20,1,11,1
240,50,1,46,1,-4,1,-48,1,27,1,21,1,7,1,11,1,37,1,29,1,20,1,12,1
241,49,1,45,1,-4,1,-47,1,27,1,21,1,9,1,12,1,36,1,30,1,21,1,12,1
242,47,1,44,1,-3,1,-45,1,25,1,21,1,9,1,12,1,33,1,28,1,18,1,9,1
243,47,1,44,1,-3,1,-45,1,25,1,21,1,9,1,12,1,33,1,28,1,17,1,5,1
244,47,1,44,1,-3,1,-45,1,25,1,21,1,8,1,12,1,34,1,27,1,15,1,3,1
245,48,1,46,1,-2,1,-47,1,25,1,22,1,8,1,12,1,35,1,27,1,15,1,3,1
246,49,1,48,1,-1,1,-48,1,25,1,24,1,8,1,13,1,36,1,28,1,15,1,3,1
247,48,1,47,1,-1,1,-47,1,25,1,23,1,8,1,12,1,37,1,27,1,15,1,3,1
248,48,1,48,1,0,1,-48,1,24,1,24,1,8,1,12,1,37,1,27,1,15,1,3,1
249,49,1,50,1,1,1,-49,1,24,1,26,1,9,1,12,1,38,1,27,1,15,1,4,1
250,51,1,51,1,0,1,-51,1,26,1,26,1,11,1,12,1,39,1,27,1,15,1,4,1
251,51,1,51,1,0,1,-51,1,26,1,26,1,14,1,14,1,42,1,28,1,16,1,5,1
252,49,1,51,1,2,1,-50,1,24,1,27,1,17,1,13,1,44,1,27,1,16,1,5,1
253,47,1,50,1,3,1,-48,1,22,1,27,1,18,1,12,1,44,1,26,1,15,1,5,1
254,47,1,50,1,3,1,-48,1,22,1,27,1,18,1,10,1,44,1,26,1,15,1,5,1
255,46,1,50,1,4,1,-48,1,21,1,27,1,18,1,8,1,44,1,25,1,14,1,4,1
256,47,1,51,1,4,1,-49,1,22,1,28,1,17,1,6,1,43,1,25,1,14,1,3,1
257,46,1,49,1,3,1,-47,1,22,1,26,1,14,1,4,1,42,1,23,1,12,1,2,1
258,40,1,45,1,5,1,-42,1,18,1,25,1,8,1,0,1,39,1,20,1,9,1,0,1
259,39,1,43,1,4,1,-41,1,18,1,24,1,2,1,-3,1,38,1,18,1,9,1,0,1
260,39,1,42,1,3,1,-40,1,18,1,23,1,-3,1,-5,1,37,1,17,1,8,1,0,1
261,39,1,44,1,5,1,-41,1,17,1,25,1,-5,1,-7,1,37,1,18,1,9,1,0,1
262,42,1,46,1,4,1,-44,1,19,1,25,1,-7,1,-7,1,36,1,18,1,10,1,1,1
263,45,1,47,1,2,1,-46,1,22,1,25,1,-9,1,-8,1,36,1,19,1,11,1,1,1
264,46,1,48,1,2,1,-47,1,22,1,25,1,-11,1,-9,1,35,1,19,1,11,1,1,1
265,47,1,50,1,3,1,-48,1,22,1,27,1,-11,1,-10,1,34,1,19,1,10,1,1,1
266,48,1,50,1,2,1,-49,1,23,1,26,1,-10,1,-10,1,32,1,19,1,8,1,1,1
267,49,1,52,1,3,1,-50,1,23,1,28,1,-10,1,-8,1,32,1,18,1,9,1,1,1
268,49,1,54,1,5,1,-51,1,22,1,30,1,-10,1,-8,1,31,1,18,1,9,1,2,1
269,49,1,54,1,5,1,-51,1,22,1,30,1,-10,1,-8,1,31,1,18,1,9,1,2,1
270,49,1,54,1,5,1,-51,1,22,1,30,1,-11,1,-7,1,31,1,18,1,9,1,1,1
271,51,1,55,1,4,1,-53,1,24,1,30,1,-11,1,-7,1,31,1,19,1,11,1,2,1
272,53,1,55,1,2,1,-54,1,26,1,29,1,-11,1,-7,1,32,1,19,1,12,1,2,1
273,54,1,54,1,0,1,-54,1,27,1,27,1,-12,1,-7,1,32,1,19,1,13,1,2,1
274,55,1,54,1,-1,1,-54,1,28,1,27,1,-12,1,-6,1,32,1,19,1,13,1,2,1
275,53,1,53,1,0,1,-53,1,27,1,27,1,-12,1,-5,1,33,1,19,1,13,1,2,1
276,54,1,53,1,-1,1,-53,1,28,1,26,1,-11,1,-5,1,33,1,20,1,13,1,3,1
277,57,1,55,1,-2,1,-56,1,30,1,27,1,-11,1,-4,1,34,1,20,1,13,1,3,1
278,59,1,56,1,-3,1,-57,1,31,1,27,1,-10,1,-3,1,34,1,20,1,12,1,3,1
279,58,1,55,1,-3,1,-56,1,31,1,26,1,-9,1,-4,1,34,1,19,1,12,1,1,1
280,59,1,55,1,-4,1,-57,1,32,1,26,1,-8,1,-5,1,34,1,20,1,11,1,1,1
281,59,1,54,1,-5,1,-56,1,32,1,25,1,-8,1,-5,1,34,1,19,1,11,1,1,1
282,58,1,54,1,-4,1,-56,1,31,1,25,1,-7,1,-5,1,33,1,20,1,12,1,2,1
283,58,1,53,1,-5,1,-55,1,32,1,24,1,-6,1,-5,1,31,1,21,1,13,1,3,1
284,60,1,52,1,-8,1,-56,1,34,1,22,1,-5,1,-5,1,30,1,21,1,14,1,3,1
285,62,1,53,1,-9,1,-57,1,36,1,22,1,-2,1,-4,1,30,1,22,1,15,1,4,1
286,63,1,53,1,-10,1,-58,1,37,1,22,1,0,1,-3,1,31,1,23,1,16,1,6,1
287,66,1,53,1,-13,1,-59,1,40,1,20,1,1,1,-2,1,31,1,24,1,17,1,6,1
288,68,1,52,1,-16,1,-60,1,42,1,18,1,2,1,-2,1,31,1,23,1,17,1,6,1
289,66,1,50,1,-16,1,-58,1,41,1,17,1,2,1,-3,1,31,1,23,1,17,1,6,1
290,63,1,49,1,-14,1,-56,1,39,1,18,1,1,1,-3,1,30,1,24,1,17,1,6,1
291,64,1,49,1,-15,1,-56,1,40,1,17,1,1,1,-4,1,30,1,24,1,16,1,5,1
292,66,1,49,1,-17,1,-57,1,42,1,16,1,1,1,-3,1,31,1,24,1,16,1,5,1
293,67,1,49,1,-18,1,-58,1,43,1,16,1,1,1,-3,1,32,1,24,1,15,1,4,1
294,67,1,49,1,-18,1,-58,1,43,1,16,1,0,1,-3,1,32,1,24,1,14,1,4,1
295,68,1,50,1,-18,1,-59,1,43,1,16,1,-2,1,-4,1,33,1,23,1,14,1,3,1
296,66,1,48,1,-18,1,-57,1,42,1,15,1,-4,1,-5,1,33,1,21,1,13,1,3,1
297,65,1,46,1,-19,1,-55,1,42,1,14,1,-5,1,-5,1,33,1,21,1,14,1,4,1
298,66,1,47,1,-19,1,-56,1,43,1,14,1,-3,1,-5,1,34,1,22,1,16,1,5,1
299,69,1,50,1,-19,1,-59,1,44,1,16,1,-2,1,-3,1,36,1,24,1,18,1,7,1
300,72,1,52,1,-20,1,-62,1,46,1,16,1,0,1,-2,1,37,1,25,1,20,1,8,1
301,74,1,54,1,-20,1,-64,1,47,1,17,1,1,1,-2,1,38,1,26,1,21,1,9,1
302,74,1,56,1,-18,1,-65,1,46,1,19,1,3,1,-1,1,40,1,27,1,21,1,10,1
303,69,1,56,1,-13,1,-62,1,41,1,22,1,5,1,-2,1,40,1,27,1,21,1,10,1
304,65,1,56,1,-9,1,-60,1,37,1,24,1,7,1,-1,1,42,1,27,1,21,1,10,1
305,64,1,58,1,-6,1,-61,1,35,1,26,1,9,1,-1,1,44,1,28,1,22,1,11,1
306,63,1,58,1,-5,1,-60,1,34,1,27,1,10,1,-1,1,43,1,28,1,22,1,11,1
307,59,1,56,1,-3,1,-57,1,31,1,27,1,13,1,-1,1,42,1,27,1,21,1,12,1
308,55,1,54,1,-1,1,-54,1,28,1,27,1,15,1,-1,1,42,1,26,1,20,1,12,1
309,54,1,53,1,-1,1,-53,1,28,1,26,1,17,1,-2,1,41,1,26,1,19,1,10,1
310,56,1,54,1,-2,1,-55,1,29,1,26,1,17,1,-1,1,40,1,26,1,18,1,10,1
311,57,1,54,1,-3,1,-55,1,30,1,26,1,19,1,0,1,39,1,26,1,18,1,11,1
312,57,1,55,1,-2,1,-56,1,30,1,27,1,19,1,0,1,39,1,26,1,18,1,11,1
313,56,1,57,1,1,1,-56,1,28,1,29,1,20,1,0,1,38,1,27,1,18,1,11,1
314,57,1,58,1,1,1,-57,1,28,1,30,1,21,1,1,1,38,1,27,1,18,1,12,1
315,56,1,58,1,2,1,-57,1,27,1,30,1,20,1,0,1,36,1,26,1,17,1,11,1
316,54,1,59,1,5,1,-56,1,25,1,32,1,21,1,1,1,36,1,26,1,17,1,11,1
317,51,1,59,1,8,1,-55,1,22,1,34,1,22,1,1,1,36,1,26,1,18,1,12,1
318,50,1,60,1,10,1,-55,1,20,1,35,1,22,1,2,1,36,1,26,1,19,1,12,1
319,50,1,62,1,12,1,-56,1,19,1,37,1,22,1,2,1,36,1,26,1,19,1,11,1
320,51,1,64,1,13,1,-57,1,19,1,39,1,22,1,1,1,37,1,27,1,20,1,10,1
321,51,1,64,1,13,1,-57,1,19,1,39,1,21,1,1,1,40,1,28,1,20,1,10,1
322,48,1,63,1,15,1,-55,1,17,1,39,1,22,1,2,1,44,1,28,1,19,1,10,1
323,44,1,61,1,17,1,-52,1,14,1,39,1,25,1,6,1,48,1,29,1,16,1,8,1
324,38,1,59,1,21,1,-48,1,9,1,40,1,28,1,11,1,55,1,30,1,14,1,4,1
325,34,1,58,1,24,1,-46,1,5,1,41,1,33,1,19,1,64,1,34,1,11,1,1,1
326,28,1,59,1,31,1,-43,1,-1,1,45,1,37,1,31,1,76,1,40,1,11,1,-4,1
327,23,1,62,1,39,1,-42,1,-8,1,51,1,45,1,47,1,94,1,52,1,17,1,-6,1
328,20,1,68,1,48,1,-44,1,-14,1,58,1,54,1,66,1,119,1,73,1,27,1,-7,1
329,15,1,74,1,59,1,-44,1,-22,1,67,1,65,1,90,1,150,1,102,1,43,1,-6,1
330,10,1,79,1,69,1,-44,1,-29,1,74,1,77,1,117,1,188,1,139,1,67,1,-2,1
331,4,1,82,1,78,1,-43,1,-37,1,80,1,90,1,150,1,235,1,188,1,99,1,4,1
332,3,1,87,1,84,1,-45,1,-40,1,86,1,102,1,188,1,291,1,247,1,140,1,14,1
333,7,1,96,1,89,1,-51,1,-41,1,93,1,113,1,231,1,352,1,310,1,186,1,25,1
334,12,1,106,1,94,1,-59,1,-41,1,100,1,123,1,277,1,415,1,372,1,230,1,36,1
335,17,1,116,1,99,1,-66,1,-41,1,108,1,131,1,328,1,480,1,434,1,273,1,45,1
336,24,1,125,1,101,1,-74,1,-38,1,113,1,138,1,381,1,550,1,499,1,320,1,56,1
337,37,1,137,1,100,1,-87,1,-31,1,119,1,141,1,436,1,622,1,568,1,369,1,69,1
338,55,1,152,1,97,1,-103,1,-21,1,125,1,144,1,491,1,693,1,637,1,419,1,86,1
339,73,1,166,1,93,1,-119,1,-10,1,130,1,142,1,543,1,762,1,702,1,464,1,102,1
340,94,1,179,1,85,1,-136,1,5,1,132,1,140,1,595,1,827,1,762,1,505,1,117,1
341,116,1,189,1,73,1,-152,1,22,1,131,1,137,1,648,1,888,1,816,1,544,1,130,1
342,139,1,196,1,57,1,-167,1,41,1,127,1,129,1,694,1,938,1,857,1,572,1,141,1
343,155,1,193,1,38,1,-174,1,59,1,116,1,117,1,726,1,960,1,864,1,576,1,142,1
344,161,1,186,1,25,1,-173,1,68,1,106,1,103,1,738,1,943,1,819,1,536,1,132,1
345,154,1,168,1,14,1,-161,1,70,1,91,1,93,1,718,1,853,1,677,1,400,1,85,1
346,137,1,137,1,0,1,-137,1,69,1,69,1,83,1,667,1,690,1,453,1,198,1,15,1
347,118,1,97,1,-21,1,-107,1,70,1,38,1,76,1,602,1,501,1,224,1,10,1,-53,1
348,100,1,60,1,-40,1,-80,1,70,1,10,1,70,1,530,1,322,1,47,1,-119,1,-99,1
349,80,1,35,1,-45,1,-57,1,63,1,-5,1,63,1,449,1,158,1,-81,1,-198,1,-123,1
350,63,1,17,1,-46,1,-40,1,55,1,-14,1,53,1,370,1,25,1,-162,1,-240,1,-133,1
351,51,1,1,1,-50,1,-26,1,51,1,-24,1,44,1,299,1,-78,1,-211,1,-258,1,-138,1
352,40,1,-10,1,-50,1,-15,1,45,1,-30,1,37,1,236,1,-154,1,-238,1,-261,1,-139,1
353,28,1,-18,1,-46,1,-5,1,37,1,-32,1,32,1,183,1,-203,1,-246,1,-251,1,-136,1
354,19,1,-21,1,-40,1,1,1,29,1,-30,1,26,1,132,1,-233,1,-243,1,-232,1,-127,1
355,17,1,-16,1,-33,1,0,1,25,1,-24,1,17,1,80,1,-251,1,-230,1,-206,1,-113,1
356,20,1,-10,1,-30,1,-5,1,25,1,-20,1,6,1,40,1,-253,1,-207,1,-175,1,-96,1
357,27,1,-3,1,-30,1,-12,1,28,1,-16,1,-8,1,7,1,-248,1,-179,1,-143,1,-78,1
358,28,1,-2,1,-30,1,-13,1,29,1,-16,1,-22,1,-21,1,-241,1,-153,1,-118,1,-63,1
359,30,1,0,1,-30,1,-15,1,30,1,-15,1,-31,1,-40,1,-233,1,-130,1,-100,1,-51,1
360,35,1,9,1,-26,1,-22,1,31,1,-8,1,-32,1,-50,1,-222,1,-112,1,-87,1,-41,1
361,37,1,16,1,-21,1,-26,1,29,1,-2,1,-32,1,-57,1,-212,1,-97,1,-79,1,-36,1
362,37,1,23,1,-14,1,-30,1,26,1,5,1,-32,1,-62,1,-202,1,-86,1,-71,1,-33,1
363,39,1,31,1,-8,1,-35,1,24,1,12,1,-33,1,-66,1,-194,1,-78,1,-63,1,-29,1
364,43,1,38,1,-5,1,-40,1,24,1,17,1,-34,1,-68,1,-188,1,-72,1,-55,1,-25,1
365,45,1,44,1,-1,1,-44,1,23,1,22,1,-34,1,-67,1,-183,1,-67,1,-45,1,-19,1
366,46,1,46,1,0,1,-46,1,23,1,23,1,-35,1,-65,1,-178,1,-61,1,-36,1,-13,1
367,46,1,47,1,1,1,-46,1,23,1,24,1,-36,1,-64,1,-176,1,-55,1,-29,1,-9,1
368,46,1,49,1,3,1,-47,1,22,1,26,1,-36,1,-62,1,-175,1,-52,1,-26,1,-6,1
369,48,1,50,1,2,1,-49,1,23,1,26,1,-35,1,-62,1,-174,1,-48,1,-26,1,-6,1
370,50,1,51,1,1,1,-50,1,25,1,26,1,-34,1,-62,1,-173,1,-47,1,-29,1,-6,1
371,48,1,51,1,3,1,-49,1,23,1,27,1,-33,1,-62,1,-173,1,-47,1,-31,1,-8,1
372,47,1,49,1,2,1,-48,1,23,1,26,1,-33,1,-62,1,-173,1,-47,1,-34,1,-9,1
373,47,1,48,1,1,1,-47,1,23,1,25,1,-32,1,-64,1,-174,1,-49,1,-36,1,-10,1
374,47,1,47,1,0,1,-47,1,24,1,24,1,-33,1,-65,1,-173,1,-50,1,-35,1,-10,1
375,46,1,46,1,0,1,-46,1,23,1,23,1,-33,1,-66,1,-172,1,-51,1,-33,1,-9,1
376,48,1,46,1,-2,1,-47,1,25,1,22,1,-33,1,-67,1,-171,1,-50,1,-31,1,-7,1
377,49,1,48,1,-1,1,-48,1,25,1,24,1,-33,1,-66,1,-170,1,-49,1,-29,1,-6,1
378,50,1,48,1,-2,1,-49,1,26,1,23,1,-34,1,-66,1,-171,1,-49,1,-29,1,-6,1
379,50,1,48,1,-2,1,-49,1,26,1,23,1,-34,1,-66,1,-172,1,-49,1,-30,1,-8,1
380,49,1,47,1,-2,1,-48,1,26,1,23,1,-34,1,-66,1,-172,1,-48,1,-31,1,-9,1
381,45,1,47,1,2,1,-46,1,22,1,25,1,-35,1,-66,1,-173,1,-49,1,-32,1,-11,1
382,44,1,47,1,3,1,-45,1,21,1,25,1,-35,1,-67,1,-174,1,-49,1,-34,1,-12,1
383,45,1,47,1,2,1,-46,1,22,1,25,1,-36,1,-70,1,-175,1,-51,1,-36,1,-14,1
384,45,1,48,1,3,1,-46,1,21,1,26,1,-35,1,-71,1,-175,1,-52,1,-35,1,-13,1
385,45,1,49,1,4,1,-47,1,21,1,27,1,-35,1,-73,1,-174,1,-52,1,-34,1,-11,1
386,47,1,52,1,5,1,-49,1,21,1,29,1,-34,1,-73,1,-172,1,-51,1,-33,1,-9,1
387,47,1,55,1,8,1,-51,1,20,1,32,1,-31,1,-73,1,-171,1,-50,1,-32,1,-8,1
388,46,1,56,1,10,1,-51,1,18,1,33,1,-30,1,-73,1,-170,1,-50,1,-33,1,-7,1
389,44,1,56,1,12,1,-50,1,16,1,34,1,-28,1,-74,1,-171,1,-51,1,-35,1,-10,1
390,42,1,57,1,15,1,-49,1,14,1,36,1,-26,1,-76,1,-172,1,-53,1,-38,1,-13,1
391,40,1,58,1,18,1,-49,1,11,1,38,1,-25,1,-77,1,-174,1,-55,1,-40,1,-15,1
392,38,1,59,1,21,1,-48,1,9,1,40,1,-24,1,-79,1,-175,1,-57,1,-41,1,-16,1
393,36,1,60,1,24,1,-48,1,6,1,42,1,-25,1,-80,1,-175,1,-58,1,-41,1,-15,1
394,33,1,58,1,25,1,-45,1,4,1,42,1,-26,1,-82,1,-178,1,-60,1,-43,1,-15,1
395,28,1,55,1,27,1,-41,1,1,1,41,1,-29,1,-86,1,-180,1,-63,1,-45,1,-16,1
396,27,1,54,1,27,1,-40,1,0,1,41,1,-31,1,-88,1,-181,1,-64,1,-47,1,-16,1
397,26,1,55,1,29,1,-40,1,-1,1,42,1,-33,1,-89,1,-181,1,-66,1,-48,1,-18,1
398,25,1,54,1,29,1,-39,1,-2,1,42,1,-37,1,-92,1,-183,1,-67,1,-50,1,-20,1
399,25,1,52,1,27,1,-38,1,-1,1,40,1,-42,1,-94,1,-184,1,-68,1,-51,1,-21,1
400,25,1,52,1,27,1,-38,1,-1,1,40,1,-46,1,-95,1,-184,1,-69,1,-52,1,-21,1
401,27,1,51,1,24,1,-39,1,2,1,38,1,-50,1,-96,1,-183,1,-69,1,-51,1,-20,1
402,27,1,50,1,23,1,-38,1,2,1,37,1,-52,1,-96,1,-181,1,-69,1,-50,1,-19,1
403,27,1,50,1,23,1,-38,1,2,1,37,1,-55,1,-96,1,-181,1,-69,1,-51,1,-19,1
404,28,1,52,1,24,1,-40,1,2,1,38,1,-57,1,-94,1,-180,1,-68,1,-51,1,-19,1
405,30,1,54,1,24,1,-42,1,3,1,39,1,-58,1,-93,1,-179,1,-68,1,-51,1,-19,1
406,31,1,56,1,25,1,-43,1,3,1,41,1,-57,1,-92,1,-178,1,-68,1,-51,1,-20,1
407,29,1,55,1,26,1,-42,1,2,1,41,1,-56,1,-91,1,-177,1,-69,1,-53,1,-23,1
408,28,1,53,1,25,1,-40,1,2,1,39,1,-55,1,-90,1,-175,1,-68,1,-55,1,-25,1
409,30,1,52,1,22,1,-41,1,4,1,37,1,-53,1,-88,1,-172,1,-68,1,-56,1,-26,1
410,29,1,50,1,21,1,-39,1,4,1,36,1,-51,1,-86,1,-169,1,-67,1,-56,1,-26,1
411,28,1,48,1,20,1,-38,1,4,1,34,1,-50,1,-84,1,-167,1,-67,1,-56,1,-25,1
412,29,1,48,1,19,1,-38,1,5,1,34,1,-48,1,-83,1,-163,1,-66,1,-56,1,-25,1
413,29,1,46,1,17,1,-37,1,6,1,32,1,-46,1,-80,1,-156,1,-66,1,-56,1,-25,1
414,28,1,43,1,15,1,-35,1,7,1,29,1,-46,1,-77,1,-146,1,-66,1,-55,1,-26,1
415,29,1,40,1,11,1,-34,1,9,1,26,1,-46,1,-75,1,-136,1,-65,1,-55,1,-26,1
416,31,1,40,1,9,1,-35,1,11,1,25,1,-45,1,-73,1,-127,1,-64,1,-54,1,-27,1
417,31,1,38,1,7,1,-34,1,12,1,23,1,-44,1,-70,1,-119,1,-62,1,-53,1,-28,1
418,31,1,37,1,6,1,-34,1,13,1,22,1,-44,1,-69,1,-111,1,-62,1,-53,1,-28,1
419,31,1,37,1,6,1,-34,1,13,1,22,1,-42,1,-69,1,-104,1,-63,1,-53,1,-27,1
420,29,1,36,1,7,1,-32,1,11,1,22,1,-41,1,-69,1,-97,1,-63,1,-53,1,-28,1
421,31,1,36,1,5,1,-33,1,13,1,21,1,-40,1,-68,1,-91,1,-63,1,-54,1,-28,1
422,32,1,38,1,6,1,-35,1,13,1,22,1,-38,1,-67,1,-87,1,-63,1,-54,1,-28,1
423,29,1,35,1,6,1,-32,1,12,1,21,1,-38,1,-66,1,-83,1,-63,1,-56,1,-29,1
424,27,1,33,1,6,1,-30,1,11,1,20,1,-38,1,-64,1,-80,1,-63,1,-57,1,-31,1
425,26,1,31,1,5,1,-28,1,11,1,18,1,-38,1,-62,1,-76,1,-62,1,-58,1,-32,1
426,26,1,31,1,5,1,-28,1,11,1,18,1,-36,1,-60,1,-74,1,-60,1,-57,1,-32,1
427,27,1,30,1,3,1,-28,1,12,1,17,1,-35,1,-57,1,-70,1,-58,1,-55,1,-32,1
428,27,1,33,1,6,1,-30,1,11,1,20,1,-32,1,-55,1,-67,1,-57,1,-54,1,-31,1
429,29,1,35,1,6,1,-32,1,12,1,21,1,-30,1,-54,1,-63,1,-56,1,-53,1,-31,1
430,30,1,37,1,7,1,-33,1,12,1,22,1,-30,1,-53,1,-59,1,-56,1,-53,1,-31,1
431,30,1,37,1,7,1,-33,1,12,1,22,1,-28,1,-53,1,-57,1,-55,1,-52,1,-32,1
432,30,1,37,1,7,1,-33,1,12,1,22,1,-26,1,-51,1,-53,1,-52,1,-50,1,-32,1
433,31,1,37,1,6,1,-34,1,13,1,22,1,-23,1,-49,1,-48,1,-49,1,-48,1,-32,1
434,30,1,37,1,7,1,-33,1,12,1,22,1,-23,1,-48,1,-44,1,-46,1,-48,1,-32,1
435,29,1,37,1,8,1,-33,1,11,1,23,1,-22,1,-46,1,-41,1,-45,1,-46,1,-32,1
436,28,1,37,1,9,1,-32,1,10,1,23,1,-21,1,-45,1,-39,1,-43,1,-45,1,-32,1
437,28,1,37,1,9,1,-32,1,10,1,23,1,-20,1,-43,1,-36,1,-41,1,-43,1,-33,1
438,28,1,36,1,8,1,-32,1,10,1,22,1,-18,1,-40,1,-33,1,-38,1,-41,1,-32,1
439,29,1,36,1,7,1,-32,1,11,1,22,1,-17,1,-38,1,-29,1,-35,1,-39,1,-32,1
440,29,1,35,1,6,1,-32,1,12,1,21,1,-17,1,-36,1,-25,1,-31,1,-36,1,-31,1
441,31,1,34,1,3,1,-32,1,14,1,19,1,-16,1,-34,1,-19,1,-26,1,-32,1,-30,1
442,33,1,34,1,1,1,-33,1,16,1,18,1,-15,1,-32,1,-14,1,-21,1,-28,1,-29,1
443,36,1,35,1,-1,1,-35,1,19,1,17,1,-14,1,-29,1,-8,1,-16,1,-24,1,-27,1
444,40,1,39,1,-1,1,-39,1,21,1,19,1,-14,1,-26,1,-2,1,-10,1,-20,1,-27,1
445,43,1,42,1,-1,1,-42,1,22,1,21,1,-15,1,-24,1,1,1,-6,1,-16,1,-27,1
446,44,1,45,1,1,1,-44,1,22,1,23,1,-15,1,-22,1,2,1,-1,1,-13,1,-27,1
447,46,1,47,1,1,1,-46,1,23,1,24,1,-15,1,-21,1,3,1,3,1,-10,1,-27,1
448,46,1,49,1,3,1,-47,1,22,1,26,1,-15,1,-20,1,5,1,7,1,-6,1,-26,1
449,47,1,51,1,4,1,-49,1,22,1,28,1,-14,1,-19,1,8,1,12,1,-2,1,-25,1
450,49,1,53,1,4,1,-51,1,23,1,29,1,-14,1,-16,1,13,1,17,1,2,1,-24,1
451,50,1,54,1,4,1,-52,1,23,1,29,1,-13,1,-14,1,17,1,22,1,6,1,-23,1
452,51,1,55,1,4,1,-53,1,24,1,30,1,-13,1,-12,1,22,1,29,1,12,1,-21,1
453,56,1,56,1,0,1,-56,1,28,1,28,1,-13,1,-10,1,26,1,35,1,17,1,-20,1
454,58,1,57,1,-1,1,-57,1,30,1,28,1,-14,1,-9,1,29,1,40,1,20,1,-19,1
455,58,1,56,1,-2,1,-57,1,30,1,27,1,-15,1,-9,1,33,1,44,1,24,1,-17,1
456,62,1,59,1,-3,1,-60,1,33,1,28,1,-17,1,-8,1,37,1,48,1,28,1,-15,1
457,65,1,63,1,-2,1,-64,1,34,1,31,1,-18,1,-6,1,43,1,53,1,33,1,-12,1
458,68,1,65,1,-3,1,-66,1,36,1,31,1,-19,1,-4,1,49,1,57,1,38,1,-9,1
459,71,1,65,1,-6,1,-68,1,39,1,30,1,-19,1,-3,1,52,1,61,1,42,1,-6,1
460,73,1,65,1,-8,1,-69,1,41,1,29,1,-19,1,-2,1,55,1,65,1,45,1,-5,1
461,76,1,67,1,-9,1,-71,1,43,1,29,1,-19,1,-1,1,57,1,69,1,48,1,-4,1
462,84,1,73,1,-11,1,-78,1,48,1,31,1,-17,1,0,1,59,1,73,1,52,1,-2,1
463,86,1,75,1,-11,1,-80,1,49,1,32,1,-16,1,1,1,61,1,78,1,56,1,-1,1
464,82,1,74,1,-8,1,-78,1,45,1,33,1,-15,1,1,1,62,1,81,1,58,1,0,1
465,79,1,74,1,-5,1,-76,1,42,1,35,1,-14,1,1,1,62,1,83,1,60,1,0,1
466,78,1,76,1,-2,1,-77,1,40,1,37,1,-12,1,2,1,62,1,84,1,61,1,1,1
467,76,1,78,1,2,1,-77,1,37,1,40,1,-11,1,1,1,62,1,84,1,62,1,1,1
468,73,1,79,1,6,1,-76,1,34,1,43,1,-10,1,1,1,62,1,84,1,62,1,1,1
469,73,1,80,1,7,1,-76,1,33,1,44,1,-11,1,0,1,61,1,84,1,61,1,2,1
470,72,1,82,1,10,1,-77,1,31,1,46,1,-11,1,-1,1,59,1,83,1,61,1,2,1
471,71,1,82,1,11,1,-76,1,30,1,47,1,-15,1,-2,1,57,1,82,1,59,1,2,1
472,69,1,81,1,12,1,-75,1,29,1,47,1,-19,1,-4,1,54,1,80,1,59,1,3,1
473,67,1,79,1,12,1,-73,1,28,1,46,1,-23,1,-6,1,50,1,78,1,57,1,2,1
474,66,1,76,1,10,1,-71,1,28,1,43,1,-28,1,-9,1,46,1,75,1,54,1,1,1
475,64,1,75,1,11,1,-69,1,27,1,43,1,-33,1,-11,1,42,1,73,1,53,1,1,1
476,62,1,75,1,13,1,-68,1,25,1,44,1,-37,1,-13,1,40,1,71,1,51,1,1,1
477,62,1,75,1,13,1,-68,1,25,1,44,1,-39,1,-15,1,38,1,68,1,49,1,0,1
478,64,1,77,1,13,1,-70,1,26,1,45,1,-41,1,-16,1,35,1,66,1,47,1,0,1
479,63,1,77,1,14,1,-70,1,25,1,46,1,-41,1,-17,1,33,1,64,1,46,1,0,1
480,66,1,78,1,12,1,-72,1,27,1,45,1,-42,1,-17,1,31,1,62,1,44,1,0,1
481,65,1,75,1,10,1,-70,1,28,1,43,1,-42,1,-18,1,29,1,59,1,41,1,-2,1
482,63,1,71,1,8,1,-67,1,28,1,40,1,-42,1,-18,1,26,1,56,1,39,1,-5,1
483,62,1,69,1,7,1,-65,1,28,1,38,1,-43,1,-18,1,24,1,52,1,35,1,-8,1
484,62,1,68,1,6,1,-65,1,28,1,37,1,-41,1,-18,1,23,1,49,1,33,1,-9,1
485,62,1,67,1,5,1,-64,1,29,1,36,1,-39,1,-18,1,22,1,47,1,31,1,-9,1
486,61,1,66,1,5,1,-63,1,28,1,36,1,-37,1,-17,1,20,1,44,1,28,1,-11,1
487,60,1,63,1,3,1,-61,1,29,1,33,1,-36,1,-17,1,19,1,41,1,26,1,-11,1
488,58,1,59,1,1,1,-58,1,29,1,30,1,-36,1,-17,1,18,1,37,1,23,1,-12,1
489,58,1,57,1,-1,1,-57,1,30,1,28,1,-36,1,-16,1,17,1,35,1,23,1,-12,1
490,59,1,55,1,-4,1,-57,1,32,1,26,1,-37,1,-15,1,17,1,34,1,22,1,-12,1
491,57,1,51,1,-6,1,-54,1,32,1,23,1,-36,1,-15,1,15,1,32,1,20,1,-13,1
492,53,1,46,1,-7,1,-49,1,30,1,20,1,-37,1,-17,1,13,1,31,1,18,1,-14,1
493,53,1,43,1,-10,1,-48,1,32,1,17,1,-36,1,-17,1,12,1,29,1,16,1,-15,1
494,52,1,41,1,-11,1,-46,1,32,1,15,1,-35,1,-16,1,11,1,26,1,14,1,-16,1
495,53,1,40,1,-13,1,-46,1,33,1,14,1,-34,1,-16,1,10,1,24,1,12,1,-16,1
496,52,1,39,1,-13,1,-45,1,33,1,13,1,-34,1,-16,1,9,1,21,1,11,1,-17,1
497,52,1,39,1,-13,1,-45,1,33,1,13,1,-34,1,-16,1,9,1,19,1,10,1,-16,1
498,53,1,39,1,-14,1,-46,1,34,1,13,1,-33,1,-15,1,8,1,18,1,10,1,-16,1
499,55,1,40,1,-15,1,-47,1,35,1,13,1,-34,1,-14,1,8,1,18,1,9,1,-15,1
500,53,1,37,1,-16,1,-45,1,35,1,11,1,-35,1,-14,1,7,1,16,1,8,1,-15,1
501,50,1,32,1,-18,1,-41,1,34,1,7,1,-37,1,-15,1,4,1,14,1,6,1,-16,1
502,47,1,27,1,-20,1,-37,1,34,1,4,1,-38,1,-16,1,3,1,12,1,4,1,-16,1
503,47,1,23,1,-24,1,-35,1,36,1,0,1,-38,1,-16,1,3,1,10,1,4,1,-16,1
504,47,1,23,1,-24,1,-35,1,36,1,0,1,-37,1,-16,1,4,1,10,1,4,1,-15,1
505,47,1,22,1,-25,1,-34,1,36,1,-1,1,-37,1,-16,1,3,1,10,1,4,1,-15,1
506,48,1,23,1,-25,1,-35,1,37,1,-1,1,-38,1,-16,1,3,1,10,1,5,1,-14,1
507,48,1,23,1,-25,1,-35,1,37,1,-1,1,-39,1,-16,1,1,1,8,1,4,1,-15,1
508,46,1,20,1,-26,1,-33,1,36,1,-3,1,-39,1,-17,1,0,1,6,1,3,1,-15,1
509,45,1,19,1,-26,1,-32,1,36,1,-3,1,-40,1,-18,1,-2,1,3,1,1,1,-15,1
510,45,1,18,1,-27,1,-31,1,36,1,-4,1,-40,1,-19,1,-4,1,1,1,0,1,-15,1
511,49,1,19,1,-30,1,-34,1,40,1,-5,1,-39,1,-19,1,-4,1,1,1,-1,1,-15,1
512,51,1,20,1,-31,1,-35,1,41,1,-5,1,-37,1,-19,1,-4,1,0,1,-2,1,-15,1
513,51,1,20,1,-31,1,-35,1,41,1,-5,1,-36,1,-19,1,-5,1,0,1,-3,1,-15,1
514,52,1,24,1,-28,1,-38,1,40,1,-2,1,-34,1,-19,1,-6,1,-1,1,-4,1,-15,1
515,49,1,23,1,-26,1,-36,1,38,1,-1,1,-33,1,-19,1,-8,1,-2,1,-5,1,-16,1
516,46,1,22,1,-24,1,-34,1,35,1,-1,1,-31,1,-20,1,-9,1,-3,1,-6,1,-16,1
517,46,1,22,1,-24,1,-34,1,35,1,-1,1,-31,1,-21,1,-9,1,-2,1,-6,1,-15,1
518,47,1,21,1,-26,1,-34,1,37,1,-2,1,-30,1,-21,1,-11,1,-3,1,-6,1,-14,1
519,48,1,22,1,-26,1,-35,1,37,1,-2,1,-31,1,-21,1,-12,1,-5,1,-6,1,-13,1
520,51,1,24,1,-27,1,-37,1,39,1,-1,1,-30,1,-21,1,-11,1,-5,1,-6,1,-11,1
521,51,1,26,1,-25,1,-38,1,38,1,1,1,-29,1,-21,1,-12,1,-6,1,-6,1,-11,1
522,52,1,28,1,-24,1,-40,1,38,1,2,1,-28,1,-22,1,-12,1,-6,1,-6,1,-10,1
523,53,1,30,1,-23,1,-41,1,38,1,4,1,-28,1,-23,1,-12,1,-6,1,-6,1,-10,1
524,49,1,26,1,-23,1,-37,1,36,1,2,1,-28,1,-24,1,-13,1,-7,1,-8,1,-11,1
525,47,1,24,1,-23,1,-35,1,35,1,1,1,-27,1,-26,1,-15,1,-9,1,-9,1,-10,1
526,45,1,23,1,-22,1,-34,1,34,1,1,1,-26,1,-27,1,-15,1,-9,1,-10,1,-9,1
527,44,1,23,1,-21,1,-33,1,33,1,1,1,-25,1,-28,1,-14,1,-10,1,-10,1,-8,1
528,46,1,23,1,-23,1,-34,1,35,1,0,1,-24,1,-27,1,-13,1,-10,1,-9,1,-6,1
529,46,1,23,1,-23,1,-34,1,35,1,0,1,-24,1,-26,1,-13,1,-10,1,-9,1,-5,1
530,44,1,21,1,-23,1,-32,1,34,1,-1,1,-25,1,-27,1,-14,1,-11,1,-9,1,-6,1
531,43,1,21,1,-22,1,-32,1,33,1,0,1,-25,1,-27,1,-15,1,-11,1,-9,1,-6,1
532,44,1,22,1,-22,1,-33,1,33,1,0,1,-24,1,-26,1,-15,1,-11,1,-8,1,-5,1
533,46,1,23,1,-23,1,-34,1,35,1,0,1,-22,1,-26,1,-16,1,-11,1,-8,1,-4,1
534,48,1,24,1,-24,1,-36,1,36,1,0,1,-20,1,-26,1,-17,1,-10,1,-7,1,-2,1
535,50,1,28,1,-22,1,-39,1,36,1,3,1,-17,1,-26,1,-16,1,-10,1,-7,1,0,1
536,53,1,31,1,-22,1,-42,1,38,1,5,1,-14,1,-26,1,-16,1,-9,1,-6,1,1,1
537,55,1,34,1,-21,1,-44,1,38,1,7,1,-12,1,-27,1,-16,1,-9,1,-5,1,3,1
538,55,1,36,1,-19,1,-45,1,37,1,9,1,-9,1,-27,1,-16,1,-9,1,-4,1,5,1
539,53,1,37,1,-16,1,-45,1,35,1,11,1,-9,1,-28,1,-18,1,-9,1,-4,1,6,1
540,49,1,35,1,-14,1,-42,1,32,1,11,1,-9,1,-31,1,-20,1,-12,1,-5,1,5,1
541,47,1,36,1,-11,1,-41,1,29,1,13,1,-8,1,-33,1,-22,1,-12,1,-6,1,5,1
542,45,1,37,1,-8,1,-41,1,27,1,15,1,-8,1,-34,1,-22,1,-12,1,-6,1,6,1
543,44,1,41,1,-3,1,-42,1,24,1,19,1,-9,1,-37,1,-22,1,-12,1,-5,1,7,1
544,42,1,43,1,1,1,-42,1,21,1,22,1,-13,1,-40,1,-22,1,-11,1,-5,1,8,1
545,40,1,45,1,5,1,-42,1,18,1,25,1,-16,1,-42,1,-22,1,-11,1,-6,1,9,1
546,38,1,46,1,8,1,-42,1,15,1,27,1,-18,1,-43,1,-23,1,-11,1,-6,1,10,1
547,37,1,47,1,10,1,-42,1,14,1,29,1,-21,1,-45,1,-23,1,-12,1,-6,1,11,1
548,37,1,47,1,10,1,-42,1,14,1,29,1,-23,1,-47,1,-23,1,-13,1,-6,1,13,1
549,36,1,46,1,10,1,-41,1,13,1,28,1,-25,1,-47,1,-21,1,-13,1,-6,1,15,1
550,36,1,46,1,10,1,-41,1,13,1,28,1,-27,1,-48,1,-21,1,-14,1,-7,1,15,1
551,35,1,45,1,10,1,-40,1,13,1,28,1,-28,1,-49,1,-23,1,-16,1,-7,1,16,1
552,34,1,46,1,12,1,-40,1,11,1,29,1,-27,1,-49,1,-26,1,-15,1,-7,1,17,1
553,34,1,44,1,10,1,-39,1,12,1,27,1,-26,1,-49,1,-29,1,-15,1,-7,1,17,1
554,33,1,42,1,9,1,-37,1,12,1,26,1,-25,1,-48,1,-32,1,-16,1,-8,1,17,1
555,32,1,39,1,7,1,-35,1,13,1,23,1,-24,1,-46,1,-34,1,-16,1,-9,1,16,1
556,32,1,38,1,6,1,-35,1,13,1,22,1,-22,1,-44,1,-34,1,-15,1,-10,1,15,1
557,33,1,37,1,4,1,-35,1,15,1,21,1,-20,1,-42,1,-33,1,-15,1,-10,1,14,1
558,33,1,37,1,4,1,-35,1,15,1,21,1,-17,1,-38,1,-31,1,-13,1,-10,1,13,1
559,35,1,38,1,3,1,-36,1,16,1,21,1,-13,1,-32,1,-28,1,-10,1,-9,1,13,1
560,32,1,38,1,6,1,-35,1,13,1,22,1,-6,1,-24,1,-22,1,-8,1,-9,1,12,1
561,26,1,35,1,9,1,-30,1,9,1,22,1,0,1,-14,1,-13,1,-5,1,-9,1,10,1
562,22,1,34,1,12,1,-28,1,5,1,23,1,6,1,-1,1,-1,1,0,1,-10,1,7,1
563,13,1,29,1,16,1,-21,1,-1,1,23,1,17,1,14,1,16,1,7,1,-9,1,3,1
564,5,1,26,1,21,1,-15,1,-8,1,24,1,29,1,31,1,38,1,22,1,-3,1,0,1
565,-1,1,28,1,29,1,-13,1,-15,1,28,1,43,1,53,1,68,1,46,1,8,1,0,1
566,-6,1,30,1,36,1,-12,1,-21,1,33,1,58,1,80,1,106,1,78,1,26,1,1,1
567,-11,1,32,1,43,1,-10,1,-27,1,37,1,72,1,111,1,150,1,118,1,50,1,5,1
568,-12,1,36,1,48,1,-12,1,-30,1,42,1,87,1,146,1,200,1,167,1,82,1,10,1
569,-12,1,40,1,52,1,-14,1,-32,1,46,1,101,1,186,1,255,1,224,1,120,1,17,1
570,-8,1,48,1,56,1,-20,1,-32,1,52,1,115,1,233,1,318,1,285,1,165,1,27,1
571,-3,1,56,1,59,1,-26,1,-31,1,57,1,129,1,284,1,383,1,348,1,207,1,37,1
572,6,1,65,1,59,1,-35,1,-26,1,62,1,143,1,339,1,453,1,413,1,251,1,49,1
573,14,1,74,1,60,1,-44,1,-23,1,67,1,154,1,395,1,526,1,480,1,297,1,61,1
574,26,1,85,1,59,1,-55,1,-16,1,72,1,162,1,452,1,600,1,546,1,342,1,74,1
575,44,1,102,1,58,1,-73,1,-7,1,80,1,167,1,507,1,674,1,613,1,388,1,89,1
576,62,1,118,1,56,1,-90,1,3,1,87,1,168,1,561,1,746,1,676,1,429,1,104,1
577,80,1,128,1,48,1,-104,1,16,1,88,1,167,1,616,1,812,1,731,1,466,1,117,1
578,97,1,132,1,35,1,-114,1,31,1,84,1,164,1,667,1,869,1,779,1,499,1,128,1
579,114,1,131,1,17,1,-122,1,49,1,74,1,156,1,710,1,910,1,809,1,519,1,136,1
580,130,1,127,1,-3,1,-128,1,67,1,62,1,148,1,739,1,922,1,805,1,518,1,139,1
581,135,1,116,1,-19,1,-125,1,77,1,49,1,137,1,737,1,881,1,731,1,452,1,121,1
582,125,1,92,1,-33,1,-108,1,79,1,30,1,124,1,698,1,768,1,556,1,292,1,67,1
583,107,1,54,1,-53,1,-80,1,80,1,1,1,111,1,632,1,602,1,321,1,96,1,0,1
584,87,1,11,1,-76,1,-49,1,82,1,-32,1,97,1,554,1,423,1,109,1,-67,1,-57,1
585,67,1,-19,1,-86,1,-24,1,76,1,-52,1,84,1,472,1,263,1,-47,1,-171,1,-88,1
586,49,1,-36,1,-85,1,-6,1,67,1,-60,1,66,1,387,1,125,1,-154,1,-230,1,-103,1
587,38,1,-47,1,-85,1,4,1,61,1,-66,1,45,1,307,1,19,1,-219,1,-259,1,-108,1
588,28,1,-57,1,-85,1,14,1,56,1,-71,1,27,1,236,1,-61,1,-254,1,-268,1,-108,1
589,16,1,-63,1,-79,1,23,1,47,1,-71,1,16,1,177,1,-117,1,-268,1,-262,1,-104,1
590,6,1,-63,1,-69,1,28,1,37,1,-66,1,6,1,123,1,-152,1,-265,1,-246,1,-95,1
591,1,1,-56,1,-57,1,27,1,29,1,-56,1,-6,1,67,1,-177,1,-255,1,-225,1,-84,1
592,2,1,-48,1,-50,1,23,1,26,1,-49,1,-21,1,21,1,-186,1,-234,1,-196,1,-67,1
593,7,1,-39,1,-46,1,16,1,26,1,-42,1,-33,1,-13,1,-180,1,-207,1,-164,1,-48,1
594,13,1,-30,1,-43,1,8,1,28,1,-36,1,-42,1,-39,1,-170,1,-181,1,-135,1,-29,1
595,18,1,-22,1,-40,1,2,1,29,1,-31,1,-45,1,-56,1,-158,1,-158,1,-113,1,-14,1
596,20,1,-15,1,-35,1,-2,1,27,1,-25,1,-47,1,-67,1,-146,1,-140,1,-98,1,-4,1
597,21,1,-11,1,-32,1,-5,1,26,1,-21,1,-50,1,-76,1,-137,1,-128,1,-89,1,0,1
598,23,1,-6,1,-29,1,-8,1,26,1,-17,1,-51,1,-84,1,-130,1,-120,1,-83,1,3,1
599,21,1,-2,1,-23,1,-9,1,22,1,-12,1,-50,1,-89,1,-127,1,-113,1,-78,1,5,1
600,19,1,-1,1,-20,1,-9,1,19,1,-10,1,-48,1,-92,1,-127,1,-109,1,-73,1,7,1
601,16,1,1,1,-15,1,-8,1,16,1,-7,1,-45,1,-92,1,-125,1,-105,1,-67,1,11,1
602,16,1,5,1,-11,1,-10,1,14,1,-3,1,-41,1,-92,1,-124,1,-100,1,-60,1,16,1
603,17,1,8,1,-9,1,-12,1,13,1,0,1,-38,1,-92,1,-121,1,-96,1,-56,1,20,1
604,17,1,9,1,-8,1,-13,1,13,1,1,1,-35,1,-91,1,-118,1,-93,1,-52,1,23,1
605,17,1,9,1,-8,1,-13,1,13,1,1,1,-34,1,-91,1,-117,1,-92,1,-52,1,24,1
606,16,1,8,1,-8,1,-12,1,12,1,0,1,-34,1,-90,1,-115,1,-91,1,-53,1,23,1
607,17,1,5,1,-12,1,-11,1,15,1,-3,1,-34,1,-89,1,-114,1,-91,1,-56,1,21,1
608,18,1,4,1,-14,1,-11,1,16,1,-5,1,-34,1,-89,1,-113,1,-92,1,-59,1,19,1
609,21,1,4,1,-17,1,-12,1,19,1,-6,1,-34,1,-88,1,-111,1,-93,1,-60,1,19,1
610,23,1,9,1,-14,1,-16,1,19,1,-2,1,-33,1,-88,1,-110,1,-92,1,-59,1,19,1
611,26,1,12,1,-14,1,-19,1,20,1,-1,1,-34,1,-88,1,-110,1,-92,1,-59,1,20,1
612,26,1,14,1,-12,1,-20,1,19,1,1,1,-34,1,-88,1,-110,1,-92,1,-58,1,20,1
613,24,1,15,1,-9,1,-19,1,17,1,3,1,-33,1,-88,1,-109,1,-91,1,-56,1,21,1
614,23,1,16,1,-7,1,-19,1,15,1,5,1,-32,1,-87,1,-109,1,-89,1,-55,1,22,1
615,23,1,15,1,-8,1,-19,1,16,1,4,1,-33,1,-87,1,-108,1,-89,1,-55,1,22,1
616,23,1,13,1,-10,1,-18,1,17,1,2,1,-33,1,-87,1,-109,1,-91,1,-55,1,22,1
617,23,1,11,1,-12,1,-17,1,18,1,0,1,-33,1,-87,1,-110,1,-92,1,-56,1,22,1
618,23,1,11,1,-12,1,-17,1,18,1,0,1,-33,1,-88,1,-111,1,-94,1,-58,1,22,1
619,24,1,11,1,-13,1,-17,1,19,1,-1,1,-34,1,-89,1,-111,1,-95,1,-59,1,22,1
620,25,1,12,1,-13,1,-18,1,19,1,0,1,-34,1,-91,1,-111,1,-96,1,-60,1,22,1
621,27,1,14,1,-13,1,-20,1,20,1,1,1,-33,1,-92,1,-113,1,-96,1,-61,1,22,1
622,27,1,15,1,-12,1,-21,1,20,1,2,1,-32,1,-93,1,-114,1,-97,1,-63,1,21,1
623,24,1,16,1,-8,1,-20,1,16,1,4,1,-32,1,-93,1,-116,1,-97,1,-63,1,22,1
624,21,1,15,1,-6,1,-18,1,14,1,5,1,-33,1,-95,1,-118,1,-98,1,-64,1,21,1
625,15,1,12,1,-3,1,-13,1,9,1,5,1,-34,1,-95,1,-118,1,-100,1,-65,1,22,1
626,12,1,11,1,-1,1,-11,1,7,1,5,1,-35,1,-96,1,-119,1,-101,1,-65,1,21,1
627,11,1,10,1,-1,1,-10,1,6,1,5,1,-36,1,-98,1,-121,1,-103,1,-67,1,20,1
628,10,1,10,1,0,1,-10,1,5,1,5,1,-37,1,-99,1,-122,1,-105,1,-69,1,20,1
629,10,1,10,1,0,1,-10,1,5,1,5,1,-38,1,-101,1,-123,1,-106,1,-70,1,20,1
630,11,1,10,1,-1,1,-10,1,6,1,5,1,-38,1,-101,1,-123,1,-106,1,-71,1,20,1
631,10,1,9,1,-1,1,-9,1,6,1,4,1,-40,1,-101,1,-123,1,-107,1,-72,1,20,1
632,10,1,8,1,-2,1,-9,1,6,1,3,1,-44,1,-100,1,-124,1,-108,1,-72,1,19,1
633,10,1,8,1,-2,1,-9,1,6,1,3,1,-48,1,-100,1,-126,1,-109,1,-72,1,19,1
634,8,1,7,1,-1,1,-7,1,5,1,3,1,-51,1,-101,1,-127,1,-109,1,-72,1,19,1
635,8,1,7,1,-1,1,-7,1,5,1,3,1,-53,1,-102,1,-129,1,-109,1,-72,1,19,1
636,9,1,8,1,-1,1,-8,1,5,1,4,1,-53,1,-102,1,-128,1,-109,1,-72,1,19,1
637,8,1,6,1,-2,1,-7,1,5,1,2,1,-54,1,-102,1,-131,1,-109,1,-72,1,19,1
638,8,1,3,1,-5,1,-5,1,7,1,-1,1,-55,1,-103,1,-133,1,-111,1,-74,1,19,1
639,7,1,0,1,-7,1,-3,1,7,1,-3,1,-55,1,-103,1,-134,1,-111,1,-75,1,18,1
640,7,1,1,1,-6,1,-4,1,7,1,-2,1,-54,1,-102,1,-134,1,-112,1,-76,1,18,1
641,8,1,1,1,-7,1,-4,1,8,1,-3,1,-53,1,-100,1,-134,1,-112,1,-76,1,19,1
642,8,1,0,1,-8,1,-4,1,8,1,-4,1,-52,1,-100,1,-133,1,-113,1,-76,1,19,1
643,8,1,0,1,-8,1,-4,1,8,1,-4,1,-51,1,-99,1,-133,1,-114,1,-76,1,19,1
644,8,1,0,1,-8,1,-4,1,8,1,-4,1,-49,1,-98,1,-134,1,-115,1,-77,1,19,1
645,6,1,-1,1,-7,1,-2,1,6,1,-4,1,-48,1,-98,1,-135,1,-115,1,-78,1,19,1
646,6,1,-1,1,-7,1,-2,1,6,1,-4,1,-48,1,-98,1,-135,1,-116,1,-79,1,19,1
647,7,1,0,1,-7,1,-3,1,7,1,-3,1,-47,1,-97,1,-134,1,-116,1,-79,1,19,1
648,8,1,0,1,-8,1,-4,1,8,1,-4,1,-47,1,-95,1,-132,1,-116,1,-80,1,18,1
649,8,1,-2,1,-10,1,-3,1,9,1,-6,1,-47,1,-95,1,-132,1,-116,1,-79,1,17,1
650,7,1,-3,1,-10,1,-2,1,8,1,-6,1,-46,1,-95,1,-132,1,-117,1,-80,1,15,1
651,6,1,-3,1,-9,1,-1,1,7,1,-6,1,-45,1,-94,1,-131,1,-117,1,-81,1,14,1
652,6,1,-4,1,-10,1,-1,1,8,1,-7,1,-44,1,-94,1,-132,1,-118,1,-82,1,13,1
653,6,1,-3,1,-9,1,-1,1,7,1,-6,1,-42,1,-94,1,-132,1,-119,1,-83,1,12,1
654,7,1,-2,1,-9,1,-2,1,8,1,-5,1,-40,1,-94,1,-132,1,-119,1,-84,1,11,1
655,6,1,-1,1,-7,1,-2,1,6,1,-4,1,-38,1,-93,1,-131,1,-119,1,-84,1,10,1
656,5,1,0,1,-5,1,-2,1,5,1,-2,1,-37,1,-92,1,-132,1,-118,1,-85,1,10,1
657,4,1,-1,1,-5,1,-1,1,4,1,-3,1,-37,1,-91,1,-134,1,-119,1,-85,1,10,1
658,5,1,0,1,-5,1,-2,1,5,1,-2,1,-36,1,-91,1,-134,1,-119,1,-84,1,11,1
659,5,1,0,1,-5,1,-2,1,5,1,-2,1,-35,1,-90,1,-134,1,-119,1,-84,1,11,1
660,4,1,0,1,-4,1,-2,1,4,1,-2,1,-33,1,-89,1,-133,1,-119,1,-84,1,11,1
661,3,1,0,1,-3,1,-1,1,3,1,-1,1,-31,1,-88,1,-130,1,-119,1,-84,1,10,1
662,2,1,-1,1,-3,1,0,1,2,1,-2,1,-29,1,-88,1,-128,1,-119,1,-84,1,10,1
663,1,1,-2,1,-3,1,0,1,2,1,-2,1,-27,1,-88,1,-128,1,-119,1,-85,1,9,1
664,1,1,-4,1,-5,1,1,1,3,1,-4,1,-25,1,-88,1,-126,1,-120,1,-87,1,7,1
665,0,1,-5,1,-5,1,2,1,2,1,-5,1,-22,1,-87,1,-123,1,-120,1,-88,1,7,1
666,-2,1,-6,1,-4,1,4,1,1,1,-5,1,-19,1,-86,1,-118,1,-119,1,-88,1,7,1
667,-3,1,-5,1,-2,1,4,1,-1,1,-4,1,-16,1,-85,1,-114,1,-118,1,-87,1,7,1
668,-5,1,-7,1,-2,1,6,1,-2,1,-5,1,-13,1,-85,1,-109,1,-117,1,-86,1,5,1
669,-5,1,-9,1,-4,1,7,1,-1,1,-7,1,-10,1,-83,1,-105,1,-115,1,-85,1,5,1
670,-2,1,-7,1,-5,1,4,1,1,1,-6,1,-7,1,-81,1,-102,1,-113,1,-83,1,5,1
671,2,1,-3,1,-5,1,0,1,3,1,-4,1,-5,1,-79,1,-98,1,-110,1,-80,1,6,1
672,5,1,-2,1,-7,1,-1,1,6,1,-4,1,-4,1,-76,1,-97,1,-107,1,-79,1,6,1
673,5,1,-2,1,-7,1,-1,1,6,1,-4,1,-2,1,-74,1,-94,1,-104,1,-77,1,6,1
674,4,1,-2,1,-6,1,-1,1,5,1,-4,1,-1,1,-72,1,-89,1,-100,1,-75,1,7,1
675,4,1,-1,1,-5,1,-1,1,4,1,-3,1,0,1,-70,1,-84,1,-96,1,-72,1,8,1
676,4,1,-1,1,-5,1,-1,1,4,1,-3,1,2,1,-68,1,-79,1,-93,1,-69,1,8,1
677,4,1,0,1,-4,1,-2,1,4,1,-2,1,3,1,-66,1,-75,1,-90,1,-66,1,9,1
678,5,1,0,1,-5,1,-2,1,5,1,-2,1,5,1,-63,1,-70,1,-87,1,-63,1,10,1
679,6,1,1,1,-5,1,-3,1,6,1,-2,1,7,1,-62,1,-67,1,-83,1,-60,1,11,1
680,6,1,1,1,-5,1,-3,1,6,1,-2,1,6,1,-59,1,-63,1,-78,1,-57,1,11,1
681,6,1,1,1,-5,1,-3,1,6,1,-2,1,7,1,-58,1,-61,1,-74,1,-54,1,12,1
682,8,1,3,1,-5,1,-5,1,7,1,-1,1,7,1,-57,1,-58,1,-69,1,-51,1,12,1
683,9,1,4,1,-5,1,-6,1,7,1,0,1,8,1,-55,1,-54,1,-64,1,-48,1,13,1
684,11,1,5,1,-6,1,-8,1,9,1,0,1,8,1,-53,1,-50,1,-60,1,-44,1,15,1
685,11,1,5,1,-6,1,-8,1,9,1,0,1,9,1,-51,1,-46,1,-54,1,-40,1,16,1
686,13,1,7,1,-6,1,-10,1,10,1,1,1,11,1,-49,1,-42,1,-49,1,-34,1,17,1
687,16,1,9,1,-7,1,-12,1,12,1,1,1,11,1,-48,1,-38,1,-44,1,-29,1,17,1
688,19,1,13,1,-6,1,-16,1,13,1,4,1,12,1,-46,1,-35,1,-39,1,-23,1,16,1
689,23,1,17,1,-6,1,-20,1,15,1,6,1,14,1,-43,1,-31,1,-32,1,-18,1,18,1
690,24,1,18,1,-6,1,-21,1,15,1,6,1,16,1,-42,1,-28,1,-28,1,-15,1,18,1
691,26,1,18,1,-8,1,-22,1,17,1,5,1,16,1,-41,1,-26,1,-24,1,-12,1,18,1
692,24,1,16,1,-8,1,-20,1,16,1,4,1,16,1,-41,1,-23,1,-20,1,-10,1,18,1
693,22,1,14,1,-8,1,-18,1,15,1,3,1,14,1,-41,1,-21,1,-18,1,-8,1,18,1
694,24,1,15,1,-9,1,-19,1,17,1,3,1,14,1,-40,1,-17,1,-15,1,-5,1,20,1
695,27,1,17,1,-10,1,-22,1,19,1,4,1,13,1,-40,1,-13,1,-10,1,-1,1,22,1
696,30,1,20,1,-10,1,-25,1,20,1,5,1,12,1,-39,1,-10,1,-5,1,4,1,25,1
697,32,1,22,1,-10,1,-27,1,21,1,6,1,12,1,-39,1,-7,1,0,1,8,1,26,1
698,32,1,24,1,-8,1,-28,1,20,1,8,1,13,1,-39,1,-5,1,3,1,11,1,27,1
699,32,1,24,1,-8,1,-28,1,20,1,8,1,14,1,-38,1,-4,1,7,1,13,1,28,1
700,32,1,25,1,-7,1,-28,1,20,1,9,1,15,1,-36,1,-3,1,10,1,15,1,28,1
701,34,1,26,1,-8,1,-30,1,21,1,9,1,17,1,-33,1,-1,1,12,1,16,1,29,1
702,34,1,25,1,-9,1,-29,1,22,1,8,1,18,1,-30,1,0,1,14,1,17,1,30,1
703,34,1,25,1,-9,1,-29,1,22,1,8,1,21,1,-27,1,2,1,16,1,18,1,31,1
704,35,1,26,1,-9,1,-30,1,22,1,9,1,25,1,-24,1,5,1,18,1,19,1,32,1
705,34,1,24,1,-10,1,-29,1,22,1,7,1,29,1,-21,1,7,1,20,1,20,1,33,1
706,33,1,22,1,-11,1,-27,1,22,1,6,1,33,1,-19,1,8,1,20,1,20,1,32,1
707,31,1,21,1,-10,1,-26,1,21,1,6,1,36,1,-17,1,9,1,19,1,19,1,31,1
708,28,1,20,1,-8,1,-24,1,18,1,6,1,38,1,-15,1,9,1,18,1,19,1,31,1
709,27,1,20,1,-7,1,-23,1,17,1,7,1,41,1,-14,1,9,1,17,1,18,1,31,1
710,27,1,21,1,-6,1,-24,1,17,1,8,1,42,1,-13,1,9,1,17,1,18,1,31,1
711,27,1,23,1,-4,1,-25,1,16,1,10,1,42,1,-13,1,8,1,16,1,17,1,31,1
712,26,1,21,1,-5,1,-23,1,16,1,8,1,40,1,-14,1,6,1,14,1,15,1,30,1
713,24,1,19,1,-5,1,-21,1,15,1,7,1,37,1,-15,1,2,1,14,1,14,1,30,1
714,23,1,15,1,-8,1,-19,1,16,1,4,1,32,1,-19,1,-3,1,11,1,12,1,28,1
715,22,1,13,1,-9,1,-17,1,16,1,2,1,26,1,-21,1,-8,1,8,1,9,1,26,1
716,21,1,13,1,-8,1,-17,1,15,1,3,1,20,1,-23,1,-10,1,5,1,9,1,25,1
717,22,1,13,1,-9,1,-17,1,16,1,2,1,16,1,-24,1,-11,1,3,1,9,1,24,1
718,21,1,13,1,-8,1,-17,1,15,1,3,1,12,1,-25,1,-12,1,2,1,8,1,24,1
719,21,1,12,1,-9,1,-16,1,15,1,2,1,9,1,-26,1,-14,1,0,1,8,1,22,1
720,23,1,11,1,-12,1,-17,1,18,1,0,1,7,1,-27,1,-15,1,-1,1,7,1,22,1
721,26,1,12,1,-14,1,-19,1,20,1,-1,1,8,1,-26,1,-15,1,-2,1,8,1,22,1
722,26,1,12,1,-14,1,-19,1,20,1,-1,1,8,1,-26,1,-17,1,-3,1,7,1,23,1
723,24,1,7,1,-17,1,-15,1,21,1,-5,1,8,1,-26,1,-19,1,-6,1,5,1,23,1
724,20,1,2,1,-18,1,-11,1,19,1,-8,1,7,1,-26,1,-21,1,-8,1,3,1,22,1
725,20,1,0,1,-20,1,-10,1,20,1,-10,1,7,1,-25,1,-21,1,-9,1,2,1,22,1
726,20,1,0,1,-20,1,-10,1,20,1,-10,1,9,1,-23,1,-20,1,-9,1,2,1,24,1
727,20,1,-1,1,-21,1,-9,1,20,1,-11,1,10,1,-23,1,-19,1,-10,1,0,1,24,1
728,21,1,-1,1,-22,1,-10,1,21,1,-11,1,10,1,-23,1,-19,1,-11,1,0,1,24,1
729,21,1,-3,1,-24,1,-9,1,22,1,-13,1,10,1,-22,1,-19,1,-13,1,0,1,24,1
730,21,1,-3,1,-24,1,-9,1,22,1,-13,1,10,1,-22,1,-19,1,-14,1,0,1,24,1
731,21,1,-5,1,-26,1,-8,1,23,1,-15,1,8,1,-22,1,-21,1,-15,1,-1,1,23,1
732,21,1,-6,1,-27,1,-7,1,24,1,-16,1,8,1,-23,1,-23,1,-16,1,-2,1,23,1
733,22,1,-7,1,-29,1,-7,1,25,1,-18,1,9,1,-24,1,-25,1,-17,1,-3,1,23,1
734,22,1,-8,1,-30,1,-7,1,26,1,-19,1,11,1,-24,1,-26,1,-17,1,-4,1,23,1
735,22,1,-8,1,-30,1,-7,1,26,1,-19,1,12,1,-23,1,-27,1,-17,1,-4,1,24,1
736,21,1,-9,1,-30,1,-6,1,25,1,-19,1,13,1,-24,1,-27,1,-18,1,-5,1,24,1
737,20,1,-10,1,-30,1,-5,1,25,1,-20,1,12,1,-24,1,-29,1,-19,1,-6,1,23,1
738,17,1,-11,1,-28,1,-3,1,22,1,-19,1,11,1,-25,1,-30,1,-20,1,-6,1,22,1
739,16,1,-11,1,-27,1,-2,1,21,1,-19,1,10,1,-25,1,-32,1,-20,1,-6,1,23,1
740,18,1,-10,1,-28,1,-4,1,23,1,-19,1,10,1,-25,1,-32,1,-19,1,-5,1,23,1
741,19,1,-10,1,-29,1,-4,1,24,1,-19,1,9,1,-25,1,-33,1,-19,1,-6,1,23,1
742,18,1,-13,1,-31,1,-2,1,24,1,-22,1,8,1,-26,1,-35,1,-21,1,-7,1,22,1
743,18,1,-14,1,-32,1,-2,1,25,1,-23,1,8,1,-26,1,-37,1,-21,1,-8,1,22,1
744,19,1,-14,1,-33,1,-2,1,26,1,-23,1,8,1,-26,1,-38,1,-21,1,-9,1,22,1
745,22,1,-11,1,-33,1,-5,1,27,1,-22,1,9,1,-25,1,-37,1,-19,1,-7,1,23,1
746,22,1,-10,1,-32,1,-6,1,27,1,-21,1,10,1,-23,1,-35,1,-19,1,-7,1,24,1
747,21,1,-10,1,-31,1,-5,1,26,1,-20,1,11,1,-23,1,-34,1,-20,1,-6,1,24,1
748,21,1,-9,1,-30,1,-6,1,25,1,-19,1,12,1,-23,1,-33,1,-19,1,-6,1,25,1
749,22,1,-8,1,-30,1,-7,1,26,1,-19,1,13,1,-23,1,-33,1,-19,1,-6,1,25,1
750,21,1,-11,1,-32,1,-5,1,26,1,-21,1,13,1,-24,1,-34,1,-20,1,-6,1,24,1
751,19,1,-13,1,-32,1,-3,1,25,1,-22,1,13,1,-25,1,-34,1,-21,1,-7,1,23,1
752,22,1,-12,1,-34,1,-5,1,28,1,-23,1,15,1,-24,1,-33,1,-19,1,-6,1,24,1
753,25,1,-10,1,-35,1,-7,1,30,1,-22,1,16,1,-22,1,-32,1,-16,1,-4,1,25,1
754,26,1,-10,1,-36,1,-8,1,31,1,-23,1,17,1,-22,1,-31,1,-16,1,-2,1,26,1
755,25,1,-10,1,-35,1,-7,1,30,1,-22,1,17,1,-22,1,-31,1,-15,1,-3,1,26,1
756,25,1,-10,1,-35,1,-7,1,30,1,-22,1,17,1,-21,1,-31,1,-16,1,-3,1,25,1
757,25,1,-10,1,-35,1,-7,1,30,1,-22,1,17,1,-21,1,-31,1,-15,1,-3,1,25,1
758,26,1,-8,1,-34,1,-9,1,30,1,-21,1,18,1,-20,1,-30,1,-15,1,-3,1,25,1
759,23,1,-10,1,-33,1,-6,1,28,1,-21,1,18,1,-20,1,-29,1,-16,1,-3,1,25,1
760,20,1,-13,1,-33,1,-3,1,26,1,-23,1,19,1,-20,1,-29,1,-17,1,-5,1,25,1
761,18,1,-15,1,-33,1,-1,1,25,1,-24,1,20,1,-21,1,-32,1,-18,1,-6,1,24,1
762,16,1,-16,1,-32,1,0,1,24,1,-24,1,19,1,-22,1,-35,1,-19,1,-7,1,24,1
763,16,1,-17,1,-33,1,0,1,24,1,-25,1,19,1,-23,1,-37,1,-19,1,-7,1,23,1
764,17,1,-18,1,-35,1,0,1,26,1,-26,1,17,1,-24,1,-41,1,-19,1,-8,1,22,1
765,17,1,-16,1,-33,1,0,1,25,1,-24,1,17,1,-24,1,-43,1,-20,1,-9,1,21,1
766,18,1,-15,1,-33,1,-1,1,25,1,-24,1,16,1,-23,1,-43,1,-19,1,-9,1,21,1
767,17,1,-14,1,-31,1,-1,1,24,1,-22,1,14,1,-23,1,-43,1,-20,1,-9,1,20,1
768,18,1,-12,1,-30,1,-3,1,24,1,-21,1,13,1,-23,1,-43,1,-20,1,-8,1,20,1
769,21,1,-10,1,-31,1,-5,1,26,1,-20,1,11,1,-23,1,-43,1,-20,1,-8,1,21,1
770,19,1,-11,1,-30,1,-4,1,24,1,-20,1,9,1,-23,1,-42,1,-19,1,-7,1,21,1
771,17,1,-12,1,-29,1,-2,1,23,1,-20,1,7,1,-25,1,-42,1,-19,1,-7,1,21,1
772,16,1,-12,1,-28,1,-2,1,22,1,-20,1,6,1,-27,1,-41,1,-19,1,-8,1,21,1
773,16,1,-10,1,-26,1,-3,1,21,1,-18,1,7,1,-27,1,-39,1,-17,1,-7,1,22,1
774,17,1,-9,1,-26,1,-4,1,21,1,-17,1,8,1,-26,1,-37,1,-17,1,-7,1,23,1
775,16,1,-8,1,-24,1,-4,1,20,1,-16,1,8,1,-26,1,-37,1,-17,1,-6,1,23,1
776,16,1,-9,1,-25,1,-3,1,20,1,-17,1,9,1,-25,1,-38,1,-17,1,-6,1,24,1
777,17,1,-9,1,-26,1,-4,1,21,1,-17,1,9,1,-25,1,-39,1,-18,1,-6,1,24,1
778,18,1,-10,1,-28,1,-4,1,23,1,-19,1,9,1,-24,1,-40,1,-19,1,-5,1,23,1
779,19,1,-9,1,-28,1,-5,1,23,1,-18,1,10,1,-24,1,-39,1,-17,1,-4,1,23,1
780,21,1,-7,1,-28,1,-7,1,24,1,-17,1,11,1,-25,1,-38,1,-17,1,-3,1,23,1
781,22,1,-4,1,-26,1,-9,1,24,1,-15,1,13,1,-25,1,-39,1,-16,1,-3,1,23,1
782,22,1,-3,1,-25,1,-9,1,23,1,-14,1,14,1,-26,1,-39,1,-16,1,-3,1,23,1
783,21,1,-2,1,-23,1,-9,1,22,1,-12,1,15,1,-27,1,-40,1,-16,1,-3,1,23,1
784,21,1,-1,1,-22,1,-10,1,21,1,-11,1,17,1,-27,1,-42,1,-16,1,-3,1,24,1
785,21,1,1,1,-20,1,-11,1,21,1,-9,1,18,1,-28,1,-41,1,-17,1,-4,1,24,1
786,19,1,0,1,-19,1,-9,1,19,1,-9,1,19,1,-28,1,-42,1,-18,1,-5,1,24,1
787,15,1,-1,1,-16,1,-7,1,15,1,-8,1,20,1,-28,1,-44,1,-19,1,-6,1,23,1
788,10,1,0,1,-10,1,-5,1,10,1,-5,1,23,1,-28,1,-45,1,-19,1,-6,1,22,1
789,7,1,-2,1,-9,1,-2,1,8,1,-5,1,25,1,-29,1,-45,1,-20,1,-7,1,22,1
790,4,1,0,1,-4,1,-2,1,4,1,-2,1,27,1,-29,1,-44,1,-20,1,-7,1,22,1
791,3,1,1,1,-2,1,-2,1,3,1,0,1,27,1,-30,1,-43,1,-19,1,-6,1,22,1
792,2,1,3,1,1,1,-2,1,1,1,2,1,25,1,-32,1,-42,1,-19,1,-6,1,23,1
793,1,1,4,1,3,1,-2,1,-1,1,4,1,21,1,-33,1,-43,1,-19,1,-6,1,23,1
794,0,1,5,1,5,1,-2,1,-2,1,5,1,13,1,-35,1,-43,1,-20,1,-7,1,22,1
795,0,1,7,1,7,1,-3,1,-3,1,7,1,7,1,-37,1,-43,1,-19,1,-7,1,22,1
796,2,1,9,1,7,1,-5,1,-2,1,8,1,0,1,-37,1,-44,1,-19,1,-7,1,24,1
797,4,1,11,1,7,1,-7,1,-1,1,9,1,-7,1,-39,1,-44,1,-18,1,-7,1,25,1
798,5,1,13,1,8,1,-9,1,-1,1,11,1,-11,1,-39,1,-44,1,-18,1,-6,1,25,1
799,8,1,14,1,6,1,-11,1,1,1,10,1,-14,1,-39,1,-45,1,-18,1,-5,1,27,1
800,10,1,14,1,4,1,-12,1,3,1,9,1,-17,1,-39,1,-46,1,-17,1,-5,1,28,1
801,11,1,13,1,2,1,-12,1,5,1,8,1,-20,1,-39,1,-46,1,-17,1,-4,1,28,1
802,12,1,13,1,1,1,-12,1,6,1,7,1,-22,1,-38,1,-46,1,-16,1,-3,1,28,1
803,12,1,9,1,-3,1,-10,1,8,1,3,1,-24,1,-38,1,-46,1,-17,1,-3,1,27,1
804,9,1,4,1,-5,1,-6,1,7,1,0,1,-26,1,-38,1,-46,1,-17,1,-4,1,25,1
805,7,1,0,1,-7,1,-3,1,7,1,-3,1,-25,1,-37,1,-47,1,-17,1,-3,1,25,1
806,7,1,-1,1,-8,1,-3,1,7,1,-4,1,-23,1,-34,1,-47,1,-15,1,-3,1,27,1
807,8,1,-1,1,-9,1,-3,1,8,1,-5,1,-21,1,-32,1,-48,1,-15,1,-3,1,28,1
808,9,1,-3,1,-12,1,-3,1,10,1,-7,1,-21,1,-32,1,-49,1,-15,1,-4,1,27,1
809,7,1,-5,1,-12,1,-1,1,9,1,-8,1,-21,1,-32,1,-50,1,-16,1,-5,1,26,1
810,8,1,-7,1,-15,1,0,1,11,1,-11,1,-22,1,-32,1,-49,1,-16,1,-5,1,26,1
811,9,1,-6,1,-15,1,-1,1,12,1,-10,1,-21,1,-32,1,-48,1,-16,1,-4,1,26,1
812,12,1,-6,1,-18,1,-3,1,15,1,-12,1,-20,1,-31,1,-48,1,-15,1,-2,1,26,1
813,14,1,-6,1,-20,1,-4,1,17,1,-13,1,-18,1,-30,1,-47,1,-15,1,-2,1,27,1
814,14,1,-7,1,-21,1,-3,1,17,1,-14,1,-17,1,-30,1,-47,1,-15,1,-2,1,28,1
815,13,1,-8,1,-21,1,-2,1,17,1,-14,1,-15,1,-29,1,-48,1,-15,1,-2,1,28,1
816,13,1,-9,1,-22,1,-2,1,17,1,-15,1,-13,1,-28,1,-48,1,-16,1,-2,1,28,1
817,15,1,-9,1,-24,1,-3,1,19,1,-16,1,-13,1,-28,1,-49,1,-16,1,-3,1,29,1
818,13,1,-8,1,-21,1,-2,1,17,1,-14,1,-12,1,-28,1,-50,1,-16,1,-3,1,28,1
819,10,1,-11,1,-21,1,0,1,15,1,-16,1,-12,1,-30,1,-52,1,-17,1,-3,1,27,1
820,12,1,-10,1,-22,1,-1,1,17,1,-16,1,-10,1,-30,1,-52,1,-17,1,-3,1,27,1
821,12,1,-8,1,-20,1,-2,1,16,1,-14,1,-9,1,-29,1,-52,1,-15,1,-2,1,27,1
822,11,1,-8,1,-19,1,-1,1,15,1,-13,1,-8,1,-29,1,-53,1,-14,1,-2,1,27,1
823,10,1,-9,1,-19,1,0,1,14,1,-14,1,-8,1,-29,1,-54,1,-15,1,-3,1,27,1
824,10,1,-10,1,-20,1,0,1,15,1,-15,1,-9,1,-31,1,-56,1,-15,1,-3,1,26,1
825,9,1,-11,1,-20,1,1,1,14,1,-15,1,-11,1,-31,1,-56,1,-16,1,-4,1,27,1
826,11,1,-11,1,-22,1,0,1,16,1,-16,1,-10,1,-31,1,-56,1,-17,1,-3,1,28,1
827,12,1,-12,1,-24,1,0,1,18,1,-18,1,-10,1,-31,1,-57,1,-17,1,-3,1,28,1
828,11,1,-12,1,-23,1,0,1,17,1,-17,1,-10,1,-32,1,-59,1,-17,1,-4,1,28,1
829,11,1,-11,1,-22,1,0,1,16,1,-16,1,-9,1,-32,1,-61,1,-18,1,-3,1,28,1
830,10,1,-11,1,-21,1,0,1,15,1,-16,1,-9,1,-32,1,-62,1,-18,1,-3,1,28,1
831,10,1,-10,1,-20,1,0,1,15,1,-15,1,-9,1,-33,1,-63,1,-18,1,-4,1,29,1
832,12,1,-10,1,-22,1,-1,1,17,1,-16,1,-10,1,-33,1,-64,1,-19,1,-4,1,28,1
833,11,1,-11,1,-22,1,0,1,16,1,-16,1,-11,1,-34,1,-65,1,-18,1,-3,1,28,1
834,12,1,-10,1,-22,1,-1,1,17,1,-16,1,-11,1,-35,1,-66,1,-18,1,-3,1,29,1
835,10,1,-10,1,-20,1,0,1,15,1,-15,1,-12,1,-35,1,-66,1,-18,1,-2,1,28,1
836,9,1,-12,1,-21,1,1,1,15,1,-16,1,-13,1,-36,1,-67,1,-19,1,-3,1,28,1
837,10,1,-11,1,-21,1,0,1,15,1,-16,1,-13,1,-35,1,-67,1,-20,1,-4,1,28,1
838,12,1,-9,1,-21,1,-1,1,16,1,-15,1,-13,1,-35,1,-67,1,-20,1,-4,1,28,1
839,13,1,-8,1,-21,1,-2,1,17,1,-14,1,-14,1,-34,1,-67,1,-19,1,-4,1,28,1
840,13,1,-10,1,-23,1,-1,1,18,1,-16,1,-15,1,-34,1,-67,1,-20,1,-5,1,28,1
841,12,1,-11,1,-23,1,0,1,17,1,-17,1,-16,1,-35,1,-67,1,-19,1,-5,1,27,1
842,15,1,-10,1,-25,1,-2,1,20,1,-17,1,-15,1,-34,1,-67,1,-18,1,-4,1,28,1
843,17,1,-9,1,-26,1,-4,1,21,1,-17,1,-15,1,-33,1,-66,1,-17,1,-3,1,28,1
844,17,1,-11,1,-28,1,-3,1,22,1,-19,1,-15,1,-33,1,-66,1,-18,1,-3,1,27,1
845,15,1,-14,1,-29,1,0,1,22,1,-21,1,-16,1,-33,1,-66,1,-18,1,-3,1,27,1
846,12,1,-16,1,-28,1,2,1,20,1,-22,1,-17,1,-33,1,-67,1,-19,1,-4,1,26,1
847,12,1,-16,1,-28,1,2,1,20,1,-22,1,-16,1,-31,1,-68,1,-19,1,-4,1,25,1
848,12,1,-15,1,-27,1,1,1,19,1,-21,1,-14,1,-31,1,-68,1,-19,1,-5,1,24,1
849,9,1,-15,1,-24,1,3,1,16,1,-19,1,-12,1,-31,1,-68,1,-20,1,-5,1,24,1
850,7,1,-16,1,-23,1,4,1,15,1,-19,1,-10,1,-31,1,-67,1,-20,1,-6,1,23,1
851,5,1,-17,1,-22,1,6,1,13,1,-19,1,-8,1,-31,1,-65,1,-21,1,-6,1,23,1
852,4,1,-17,1,-21,1,6,1,12,1,-19,1,-6,1,-30,1,-64,1,-21,1,-6,1,22,1
853,4,1,-17,1,-21,1,6,1,12,1,-19,1,-5,1,-30,1,-63,1,-20,1,-6,1,22,1
854,6,1,-15,1,-21,1,4,1,13,1,-18,1,-3,1,-30,1,-63,1,-20,1,-6,1,22,1
855,6,1,-14,1,-20,1,4,1,13,1,-17,1,-1,1,-29,1,-62,1,-20,1,-6,1,22,1
856,6,1,-13,1,-19,1,3,1,12,1,-16,1,0,1,-28,1,-60,1,-19,1,-6,1,22,1
857,8,1,-11,1,-19,1,1,1,13,1,-15,1,2,1,-27,1,-59,1,-18,1,-5,1,22,1
858,10,1,-8,1,-18,1,-1,1,14,1,-13,1,3,1,-25,1,-58,1,-17,1,-5,1,22,1
859,10,1,-6,1,-16,1,-2,1,13,1,-11,1,5,1,-23,1,-57,1,-16,1,-4,1,24,1
860,7,1,-7,1,-14,1,0,1,10,1,-10,1,5,1,-23,1,-58,1,-16,1,-5,1,23,1
861,4,1,-7,1,-11,1,1,1,7,1,-9,1,5,1,-22,1,-59,1,-17,1,-5,1,22,1
862,2,1,-7,1,-9,1,2,1,5,1,-8,1,6,1,-22,1,-59,1,-17,1,-5,1,21,1
863,0,1,-9,1,-9,1,4,1,4,1,-9,1,7,1,-22,1,-60,1,-18,1,-5,1,21,1
864,1,1,-8,1,-9,1,3,1,5,1,-8,1,9,1,-22,1,-60,1,-18,1,-5,1,21,1
865,3,1,-7,1,-10,1,2,1,6,1,-8,1,11,1,-22,1,-61,1,-19,1,-5,1,20,1
866,3,1,-7,1,-10,1,2,1,6,1,-8,1,13,1,-23,1,-61,1,-19,1,-5,1,20,1
867,5,1,-6,1,-11,1,0,1,8,1,-8,1,14,1,-23,1,-62,1,-19,1,-6,1,20,1
868,5,1,-4,1,-9,1,0,1,7,1,-6,1,16,1,-24,1,-65,1,-19,1,-6,1,20,1
869,3,1,-4,1,-7,1,0,1,5,1,-5,1,14,1,-25,1,-68,1,-20,1,-6,1,19,1
870,2,1,-5,1,-7,1,1,1,4,1,-6,1,11,1,-27,1,-73,1,-22,1,-7,1,17,1
871,3,1,-3,1,-6,1,0,1,4,1,-4,1,5,1,-30,1,-77,1,-23,1,-8,1,17,1
872,6,1,-1,1,-7,1,-2,1,6,1,-4,1,-1,1,-33,1,-79,1,-23,1,-8,1,18,1
873,6,1,-2,1,-8,1,-2,1,7,1,-5,1,-9,1,-36,1,-81,1,-24,1,-8,1,18,1
874,8,1,-2,1,-10,1,-3,1,9,1,-6,1,-16,1,-38,1,-82,1,-25,1,-6,1,19,1
875,9,1,-3,1,-12,1,-3,1,10,1,-7,1,-21,1,-39,1,-81,1,-24,1,-5,1,20,1
876,11,1,-3,1,-14,1,-4,1,12,1,-8,1,-25,1,-39,1,-80,1,-22,1,-4,1,20,1
877,15,1,-3,1,-18,1,-6,1,16,1,-10,1,-28,1,-40,1,-79,1,-20,1,-3,1,22,1
878,17,1,-3,1,-20,1,-7,1,18,1,-11,1,-30,1,-39,1,-78,1,-19,1,-1,1,24,1
879,16,1,-3,1,-19,1,-6,1,17,1,-11,1,-31,1,-37,1,-74,1,-16,1,0,1,26,1
880,17,1,-2,1,-19,1,-7,1,18,1,-10,1,-30,1,-33,1,-70,1,-13,1,3,1,27,1
881,17,1,-2,1,-19,1,-7,1,18,1,-10,1,-28,1,-30,1,-66,1,-11,1,5,1,28,1
882,11,1,-2,1,-13,1,-4,1,12,1,-7,1,-23,1,-26,1,-61,1,-8,1,5,1,28,1
883,6,1,-1,1,-7,1,-2,1,6,1,-4,1,-18,1,-22,1,-55,1,-7,1,3,1,27,1
884,1,1,0,1,-1,1,0,1,1,1,0,1,-10,1,-14,1,-49,1,-5,1,1,1,23,1
885,-3,1,2,1,5,1,0,1,-4,1,3,1,-1,1,-5,1,-40,1,-1,1,0,1,20,1
886,-8,1,4,1,12,1,2,1,-10,1,8,1,8,1,7,1,-28,1,4,1,-1,1,15,1
887,-15,1,4,1,19,1,5,1,-17,1,11,1,18,1,22,1,-11,1,15,1,2,1,11,1
888,-23,1,6,1,29,1,8,1,-26,1,17,1,29,1,40,1,13,1,34,1,9,1,10,1
889,-31,1,10,1,41,1,10,1,-36,1,25,1,42,1,63,1,46,1,60,1,23,1,10,1
890,-38,1,14,1,52,1,12,1,-45,1,33,1,58,1,90,1,86,1,96,1,43,1,11,1
891,-41,1,21,1,62,1,10,1,-51,1,41,1,75,1,124,1,137,1,144,1,76,1,17,1
892,-44,1,26,1,70,1,9,1,-57,1,48,1,91,1,163,1,195,1,201,1,115,1,25,1
893,-46,1,35,1,81,1,5,1,-63,1,58,1,107,1,206,1,257,1,262,1,157,1,34,1
894,-45,1,42,1,87,1,1,1,-66,1,64,1,121,1,253,1,321,1,321,1,198,1,42,1
895,-40,1,51,1,91,1,-5,1,-65,1,71,1,132,1,302,1,388,1,384,1,240,1,50,1
896,-31,1,62,1,93,1,-15,1,-62,1,77,1,142,1,354,1,459,1,450,1,287,1,61,1
897,-21,1,75,1,96,1,-27,1,-58,1,85,1,148,1,408,1,531,1,520,1,336,1,75,1
898,-6,1,90,1,96,1,-42,1,-51,1,93,1,152,1,462,1,602,1,589,1,386,1,91,1
899,12,1,109,1,97,1,-60,1,-42,1,103,1,154,1,514,1,673,1,656,1,433,1,108,1
900,34,1,125,1,91,1,-79,1,-28,1,108,1,157,1,567,1,739,1,716,1,476,1,123,1
901,56,1,134,1,78,1,-95,1,-11,1,106,1,155,1,618,1,799,1,768,1,514,1,136,1
902,75,1,136,1,61,1,-105,1,7,1,99,1,149,1,661,1,846,1,801,1,539,1,146,1
903,92,1,133,1,41,1,-112,1,26,1,87,1,140,1,691,1,864,1,799,1,541,1,150,1
904,101,1,125,1,24,1,-113,1,39,1,75,1,126,1,692,1,828,1,735,1,491,1,138,1
905,95,1,99,1,4,1,-97,1,46,1,52,1,111,1,659,1,722,1,572,1,346,1,89,1
906,80,1,59,1,-21,1,-69,1,51,1,19,1,97,1,602,1,562,1,346,1,151,1,19,1
907,63,1,13,1,-50,1,-38,1,57,1,-18,1,88,1,539,1,395,1,136,1,-17,1,-46,1
908,45,1,-24,1,-69,1,-10,1,57,1,-46,1,78,1,468,1,240,1,-22,1,-133,1,-89,1
909,27,1,-50,1,-77,1,11,1,52,1,-63,1,64,1,392,1,106,1,-133,1,-204,1,-113,1
910,10,1,-71,1,-81,1,30,1,45,1,-76,1,50,1,321,1,1,1,-201,1,-241,1,-126,1
911,-2,1,-89,1,-87,1,45,1,42,1,-88,1,39,1,255,1,-80,1,-243,1,-259,1,-132,1
912,-10,1,-98,1,-88,1,54,1,39,1,-93,1,32,1,197,1,-138,1,-264,1,-261,1,-132,1
913,-18,1,-98,1,-80,1,58,1,31,1,-89,1,24,1,143,1,-175,1,-268,1,-250,1,-124,1
914,-24,1,-94,1,-70,1,59,1,23,1,-82,1,10,1,88,1,-201,1,-263,1,-231,1,-112,1
915,-24,1,-85,1,-61,1,54,1,18,1,-73,1,-8,1,38,1,-212,1,-247,1,-205,1,-94,1
916,-19,1,-76,1,-57,1,47,1,19,1,-67,1,-24,1,0,1,-210,1,-222,1,-174,1,-75,1
917,-15,1,-66,1,-51,1,40,1,18,1,-59,1,-34,1,-30,1,-204,1,-198,1,-146,1,-57,1
918,-10,1,-59,1,-49,1,34,1,19,1,-54,1,-38,1,-51,1,-197,1,-177,1,-125,1,-42,1
919,-9,1,-54,1,-45,1,31,1,18,1,-50,1,-40,1,-67,1,-190,1,-160,1,-112,1,-32,1
920,-7,1,-47,1,-40,1,27,1,16,1,-44,1,-41,1,-79,1,-182,1,-146,1,-102,1,-24,1
921,-3,1,-40,1,-37,1,21,1,17,1,-39,1,-40,1,-87,1,-174,1,-135,1,-94,1,-20,1
922,-1,1,-34,1,-33,1,17,1,16,1,-34,1,-38,1,-93,1,-166,1,-127,1,-88,1,-16,1
923,-3,1,-31,1,-28,1,17,1,12,1,-30,1,-36,1,-98,1,-160,1,-122,1,-83,1,-13,1
924,-4,1,-28,1,-24,1,16,1,10,1,-26,1,-35,1,-101,1,-156,1,-118,1,-77,1,-10,1
925,-4,1,-24,1,-20,1,14,1,8,1,-22,1,-34,1,-102,1,-152,1,-114,1,-71,1,-7,1
926,-3,1,-20,1,-17,1,11,1,7,1,-19,1,-33,1,-101,1,-148,1,-110,1,-65,1,-3,1
927,-2,1,-18,1,-16,1,10,1,7,1,-17,1,-33,1,-100,1,-145,1,-107,1,-61,1,0,1
928,-4,1,-20,1,-16,1,12,1,6,1,-18,1,-32,1,-99,1,-143,1,-105,1,-59,1,2,1
929,-6,1,-22,1,-16,1,14,1,5,1,-19,1,-31,1,-97,1,-141,1,-103,1,-59,1,3,1
930,-4,1,-23,1,-19,1,13,1,7,1,-21,1,-30,1,-95,1,-139,1,-102,1,-59,1,2,1
931,-1,1,-22,1,-21,1,11,1,10,1,-22,1,-29,1,-94,1,-136,1,-100,1,-61,1,0,1
932,0,1,-21,1,-21,1,10,1,10,1,-21,1,-27,1,-94,1,-134,1,-100,1,-61,1,0,1
933,-1,1,-19,1,-18,1,10,1,8,1,-19,1,-25,1,-93,1,-132,1,-99,1,-61,1,-1,1
934,-1,1,-16,1,-15,1,8,1,7,1,-16,1,-22,1,-93,1,-129,1,-97,1,-59,1,0,1
935,-3,1,-14,1,-11,1,8,1,4,1,-13,1,-20,1,-92,1,-126,1,-96,1,-57,1,1,1
936,-5,1,-13,1,-8,1,9,1,1,1,-11,1,-17,1,-91,1,-124,1,-95,1,-55,1,2,1
937,-5,1,-11,1,-6,1,8,1,0,1,-9,1,-14,1,-90,1,-123,1,-94,1,-54,1,3,1
938,-5,1,-11,1,-6,1,8,1,0,1,-9,1,-11,1,-89,1,-122,1,-93,1,-54,1,2,1
939,-8,1,-13,1,-5,1,10,1,-2,1,-9,1,-8,1,-88,1,-120,1,-92,1,-55,1,1,1
940,-10,1,-15,1,-5,1,12,1,-3,1,-10,1,-5,1,-87,1,-119,1,-92,1,-56,1,0,1
941,-10,1,-15,1,-5,1,12,1,-3,1,-10,1,-3,1,-85,1,-117,1,-91,1,-57,1,0,1
942,-13,1,-14,1,-1,1,13,1,-6,1,-8,1,1,1,-82,1,-115,1,-90,1,-57,1,1,1
943,-15,1,-14,1,1,1,14,1,-8,1,-7,1,5,1,-81,1,-115,1,-90,1,-56,1,1,1
944,-15,1,-13,1,2,1,14,1,-9,1,-6,1,8,1,-81,1,-115,1,-90,1,-57,1,0,1
945,-15,1,-11,1,4,1,13,1,-10,1,-4,1,10,1,-81,1,-114,1,-91,1,-57,1,0,1
946,-14,1,-8,1,6,1,11,1,-10,1,-1,1,12,1,-81,1,-113,1,-90,1,-56,1,1,1
947,-14,1,-6,1,8,1,10,1,-11,1,1,1,11,1,-81,1,-113,1,-90,1,-55,1,0,1
948,-10,1,-5,1,5,1,7,1,-8,1,0,1,8,1,-84,1,-115,1,-92,1,-56,1,-1,1
949,-9,1,-4,1,5,1,6,1,-7,1,0,1,7,1,-85,1,-116,1,-93,1,-57,1,-1,1
950,-10,1,-4,1,6,1,7,1,-8,1,1,1,4,1,-87,1,-116,1,-94,1,-57,1,-2,1
951,-10,1,-5,1,5,1,7,1,-8,1,0,1,1,1,-89,1,-117,1,-96,1,-58,1,-3,1
952,-10,1,-4,1,6,1,7,1,-8,1,1,1,-1,1,-89,1,-117,1,-96,1,-58,1,-2,1
953,-10,1,-1,1,9,1,5,1,-10,1,4,1,-6,1,-91,1,-117,1,-96,1,-58,1,-2,1
954,-8,1,1,1,9,1,3,1,-8,1,5,1,-9,1,-92,1,-117,1,-96,1,-57,1,-1,1
955,-9,1,1,1,10,1,4,1,-9,1,5,1,-13,1,-92,1,-117,1,-96,1,-58,1,-1,1
956,-11,1,0,1,11,1,5,1,-11,1,5,1,-16,1,-93,1,-117,1,-97,1,-59,1,-1,1
957,-10,1,-1,1,9,1,5,1,-10,1,4,1,-18,1,-94,1,-117,1,-98,1,-60,1,-1,1
958,-7,1,-1,1,6,1,4,1,-7,1,2,1,-20,1,-93,1,-115,1,-97,1,-58,1,0,1
959,-5,1,-1,1,4,1,3,1,-5,1,1,1,-20,1,-93,1,-115,1,-97,1,-57,1,0,1
960,-4,1,-3,1,1,1,3,1,-3,1,-1,1,-21,1,-93,1,-114,1,-96,1,-56,1,0,1
961,-2,1,-3,1,-1,1,2,1,-1,1,-2,1,-20,1,-92,1,-113,1,-95,1,-55,1,-1,1
962,-2,1,-6,1,-4,1,4,1,1,1,-5,1,-21,1,-90,1,-113,1,-95,1,-55,1,0,1
963,-4,1,-8,1,-4,1,6,1,0,1,-6,1,-22,1,-89,1,-113,1,-95,1,-56,1,-1,1
964,-5,1,-10,1,-5,1,7,1,0,1,-8,1,-22,1,-88,1,-112,1,-94,1,-56,1,-1,1
965,-7,1,-11,1,-4,1,9,1,-2,1,-8,1,-21,1,-87,1,-112,1,-94,1,-57,1,-2,1
966,-11,1,-13,1,-2,1,12,1,-5,1,-8,1,-20,1,-87,1,-112,1,-94,1,-58,1,-3,1
967,-14,1,-15,1,-1,1,14,1,-7,1,-8,1,-19,1,-87,1,-111,1,-96,1,-60,1,-5,1
968,-15,1,-16,1,-1,1,15,1,-7,1,-9,1,-17,1,-87,1,-111,1,-98,1,-61,1,-6,1
969,-16,1,-18,1,-2,1,17,1,-7,1,-10,1,-17,1,-87,1,-111,1,-99,1,-62,1,-8,1
970,-18,1,-21,1,-3,1,19,1,-8,1,-12,1,-17,1,-87,1,-112,1,-100,1,-64,1,-9,1
971,-18,1,-23,1,-5,1,20,1,-7,1,-14,1,-16,1,-87,1,-112,1,-101,1,-65,1,-11,1
972,-18,1,-23,1,-5,1,20,1,-7,1,-14,1,-16,1,-87,1,-111,1,-101,1,-66,1,-12,1
973,-19,1,-24,1,-5,1,21,1,-7,1,-15,1,-18,1,-88,1,-112,1,-101,1,-67,1,-14,1
974,-18,1,-23,1,-5,1,20,1,-7,1,-14,1,-18,1,-88,1,-114,1,-101,1,-68,1,-14,1
975,-17,1,-23,1,-6,1,20,1,-6,1,-15,1,-18,1,-88,1,-116,1,-101,1,-69,1,-13,1
976,-20,1,-23,1,-3,1,21,1,-9,1,-13,1,-19,1,-89,1,-119,1,-102,1,-70,1,-13,1
977,-21,1,-23,1,-2,1,22,1,-10,1,-13,1,-20,1,-88,1,-120,1,-102,1,-70,1,-13,1
978,-20,1,-22,1,-2,1,21,1,-9,1,-12,1,-21,1,-86,1,-120,1,-102,1,-69,1,-13,1
979,-19,1,-22,1,-3,1,20,1,-8,1,-13,1,-22,1,-85,1,-120,1,-102,1,-69,1,-13,1
980,-18,1,-22,1,-4,1,20,1,-7,1,-13,1,-24,1,-85,1,-119,1,-102,1,-70,1,-14,1
981,-17,1,-22,1,-5,1,19,1,-6,1,-14,1,-25,1,-86,1,-120,1,-102,1,-70,1,-15,1
982,-20,1,-24,1,-4,1,22,1,-8,1,-14,1,-26,1,-86,1,-119,1,-103,1,-71,1,-16,1
983,-21,1,-23,1,-2,1,22,1,-10,1,-13,1,-26,1,-86,1,-119,1,-103,1,-72,1,-16,1
984,-22,1,-24,1,-2,1,23,1,-10,1,-13,1,-27,1,-86,1,-117,1,-103,1,-73,1,-16,1
985,-21,1,-24,1,-3,1,22,1,-9,1,-14,1,-26,1,-86,1,-114,1,-103,1,-73,1,-17,1
986,-20,1,-24,1,-4,1,22,1,-8,1,-14,1,-26,1,-85,1,-111,1,-103,1,-74,1,-18,1
987,-18,1,-23,1,-5,1,20,1,-7,1,-14,1,-25,1,-84,1,-109,1,-102,1,-73,1,-18,1
988,-17,1,-21,1,-4,1,19,1,-7,1,-13,1,-24,1,-83,1,-106,1,-101,1,-73,1,-18,1
989,-16,1,-22,1,-6,1,19,1,-5,1,-14,1,-23,1,-82,1,-103,1,-101,1,-74,1,-20,1
990,-16,1,-22,1,-6,1,19,1,-5,1,-14,1,-23,1,-80,1,-100,1,-99,1,-73,1,-20,1
991,-18,1,-22,1,-4,1,20,1,-7,1,-13,1,-22,1,-80,1,-96,1,-98,1,-73,1,-20,1
992,-19,1,-24,1,-5,1,21,1,-7,1,-15,1,-21,1,-78,1,-94,1,-97,1,-72,1,-20,1
993,-19,1,-23,1,-4,1,21,1,-8,1,-14,1,-18,1,-76,1,-89,1,-94,1,-71,1,-20,1
994,-21,1,-23,1,-2,1,22,1,-10,1,-13,1,-17,1,-75,1,-85,1,-92,1,-70,1,-21,1
995,-22,1,-22,1,0,1,22,1,-11,1,-11,1,-14,1,-74,1,-81,1,-90,1,-69,1,-21,1
996,-21,1,-21,1,0,1,21,1,-11,1,-11,1,-7,1,-72,1,-77,1,-88,1,-67,1,-23,1
997,-21,1,-21,1,0,1,21,1,-11,1,-11,1,0,1,-69,1,-71,1,-85,1,-64,1,-24,1
998,-21,1,-22,1,-1,1,21,1,-10,1,-12,1,4,1,-67,1,-67,1,-82,1,-63,1,-25,1
999,-20,1,-22,1,-2,1,21,1,-9,1,-12,1,9,1,-65,1,-61,1,-79,1,-61,1,-24,1
1000,-19,1,-21,1,-2,1,20,1,-9,1,-12,1,12,1,-63,1,-55,1,-74,1,-57,1,-23,1
1001,-16,1,-18,1,-2,1,17,1,-7,1,-10,1,16,1,-59,1,-50,1,-69,1,-53,1,-22,1
1002,-13,1,-15,1,-2,1,14,1,-6,1,-9,1,20,1,-56,1,-44,1,-62,1,-48,1,-19,1
1003,-12,1,-14,1,-2,1,13,1,-5,1,-8,1,23,1,-52,1,-38,1,-56,1,-44,1,-18,1
1004,-12,1,-13,1,-1,1,12,1,-6,1,-7,1,27,1,-49,1,-32,1,-51,1,-40,1,-17,1
1005,-13,1,-14,1,-1,1,13,1,-6,1,-8,1,29,1,-47,1,-27,1,-47,1,-37,1,-16,1
1006,-14,1,-15,1,-1,1,14,1,-7,1,-8,1,31,1,-44,1,-22,1,-42,1,-34,1,-16,1
1007,-13,1,-14,1,-1,1,13,1,-6,1,-8,1,32,1,-41,1,-17,1,-37,1,-29,1,-15,1
1008,-12,1,-12,1,0,1,12,1,-6,1,-6,1,34,1,-38,1,-13,1,-30,1,-24,1,-14,1
1009,-12,1,-12,1,0,1,12,1,-6,1,-6,1,34,1,-35,1,-10,1,-24,1,-20,1,-14,1
1010,-9,1,-10,1,-1,1,9,1,-4,1,-6,1,35,1,-32,1,-5,1,-17,1,-15,1,-13,1
1011,-6,1,-6,1,0,1,6,1,-3,1,-3,1,36,1,-28,1,0,1,-10,1,-10,1,-12,1
1012,-2,1,-1,1,1,1,1,1,-2,1,0,1,38,1,-24,1,4,1,-3,1,-6,1,-9,1
1013,-1,1,0,1,1,1,0,1,-1,1,0,1,40,1,-21,1,9,1,1,1,-1,1,-7,1
1014,1,1,2,1,1,1,-1,1,0,1,2,1,43,1,-18,1,12,1,7,1,3,1,-5,1
1015,2,1,4,1,2,1,-3,1,0,1,3,1,45,1,-15,1,16,1,12,1,7,1,-3,1
1016,3,1,6,1,3,1,-4,1,0,1,5,1,48,1,-14,1,18,1,18,1,12,1,-2,1
1017,5,1,9,1,4,1,-7,1,1,1,7,1,49,1,-13,1,20,1,23,1,16,1,0,1
1018,6,1,11,1,5,1,-8,1,1,1,8,1,50,1,-11,1,23,1,29,1,20,1,0,1
1019,7,1,11,1,4,1,-9,1,2,1,8,1,48,1,-11,1,25,1,34,1,25,1,2,1
1020,7,1,12,1,5,1,-9,1,1,1,9,1,45,1,-10,1,28,1,39,1,30,1,4,1
1021,8,1,13,1,5,1,-10,1,2,1,9,1,44,1,-7,1,31,1,45,1,34,1,7,1
1022,10,1,14,1,4,1,-12,1,3,1,9,1,42,1,-7,1,34,1,48,1,37,1,8,1
1023,12,1,13,1,1,1,-12,1,6,1,7,1,35,1,-8,1,34,1,49,1,37,1,7,1
1024,14,1,15,1,1,1,-14,1,7,1,8,1,28,1,-9,1,34,1,50,1,38,1,7,1
1025,18,1,17,1,-1,1,-17,1,10,1,8,1,20,1,-10,1,34,1,52,1,38,1,7,1
1026,19,1,18,1,-1,1,-18,1,10,1,9,1,13,1,-11,1,33,1,54,1,39,1,8,1
1027,22,1,20,1,-2,1,-21,1,12,1,9,1,8,1,-12,1,32,1,56,1,41,1,9,1
1028,23,1,19,1,-4,1,-21,1,14,1,8,1,3,1,-14,1,30,1,57,1,43,1,8,1
1029,22,1,17,1,-5,1,-19,1,14,1,6,1,-1,1,-14,1,28,1,58,1,44,1,8,1
1030,22,1,17,1,-5,1,-19,1,14,1,6,1,-5,1,-15,1,28,1,57,1,44,1,8,1
1031,22,1,16,1,-6,1,-19,1,14,1,5,1,-8,1,-14,1,27,1,56,1,43,1,8,1
1032,22,1,15,1,-7,1,-18,1,15,1,4,1,-10,1,-13,1,27,1,55,1,43,1,8,1
1033,20,1,14,1,-6,1,-17,1,13,1,4,1,-11,1,-11,1,26,1,54,1,41,1,8,1
1034,19,1,13,1,-6,1,-16,1,13,1,4,1,-10,1,-10,1,27,1,53,1,40,1,7,1
1035,20,1,14,1,-6,1,-17,1,13,1,4,1,-9,1,-6,1,28,1,53,1,40,1,6,1
1036,22,1,14,1,-8,1,-18,1,15,1,3,1,-9,1,-6,1,28,1,53,1,39,1,6,1
1037,23,1,17,1,-6,1,-20,1,15,1,6,1,-8,1,-4,1,29,1,53,1,39,1,7,1
1038,23,1,17,1,-6,1,-20,1,15,1,6,1,-7,1,-2,1,30,1,52,1,39,1,7,1
1039,22,1,15,1,-7,1,-18,1,15,1,4,1,-6,1,-1,1,31,1,51,1,38,1,7,1
1040,20,1,10,1,-10,1,-15,1,15,1,0,1,-7,1,0,1,30,1,48,1,35,1,6,1
1041,17,1,6,1,-11,1,-11,1,14,1,-2,1,-6,1,2,1,31,1,47,1,35,1,5,1
1042,18,1,5,1,-13,1,-11,1,16,1,-4,1,-6,1,5,1,33,1,47,1,35,1,7,1
1043,19,1,3,1,-16,1,-11,1,18,1,-6,1,-6,1,7,1,34,1,46,1,36,1,8,1
1044,20,1,2,1,-18,1,-11,1,19,1,-8,1,-7,1,7,1,33,1,44,1,35,1,8,1
1045,20,1,0,1,-20,1,-10,1,20,1,-10,1,-8,1,7,1,32,1,42,1,34,1,8,1
1046,19,1,-4,1,-23,1,-7,1,21,1,-13,1,-10,1,6,1,30,1,38,1,32,1,8,1
1047,18,1,-8,1,-26,1,-5,1,22,1,-17,1,-10,1,5,1,28,1,36,1,31,1,7,1
1048,15,1,-13,1,-28,1,-1,1,21,1,-20,1,-13,1,4,1,26,1,33,1,28,1,5,1
1049,12,1,-16,1,-28,1,2,1,20,1,-22,1,-16,1,2,1,25,1,29,1,25,1,4,1
1050,13,1,-16,1,-29,1,1,1,21,1,-22,1,-18,1,1,1,25,1,27,1,23,1,4,1
1051,13,1,-15,1,-28,1,1,1,20,1,-21,1,-20,1,1,1,24,1,25,1,21,1,3,1
1052,10,1,-17,1,-27,1,3,1,18,1,-22,1,-22,1,0,1,23,1,22,1,18,1,2,1
1053,10,1,-18,1,-28,1,4,1,19,1,-23,1,-23,1,-1,1,22,1,19,1,17,1,1,1
1054,10,1,-18,1,-28,1,4,1,19,1,-23,1,-24,1,-3,1,21,1,17,1,15,1,1,1
1055,10,1,-18,1,-28,1,4,1,19,1,-23,1,-24,1,-4,1,20,1,16,1,15,1,2,1
1056,10,1,-18,1,-28,1,4,1,19,1,-23,1,-25,1,-4,1,19,1,15,1,14,1,1,1
1057,11,1,-20,1,-31,1,4,1,21,1,-25,1,-26,1,-6,1,16,1,13,1,13,1,0,1
1058,9,1,-21,1,-30,1,6,1,19,1,-25,1,-27,1,-8,1,13,1,11,1,12,1,0,1
1059,9,1,-20,1,-29,1,5,1,19,1,-24,1,-28,1,-9,1,10,1,8,1,11,1,0,1
1060,11,1,-18,1,-29,1,3,1,20,1,-23,1,-28,1,-10,1,8,1,7,1,10,1,0,1
1061,11,1,-18,1,-29,1,3,1,20,1,-23,1,-28,1,-9,1,8,1,6,1,10,1,0,1
1062,10,1,-19,1,-29,1,4,1,19,1,-24,1,-27,1,-10,1,7,1,5,1,9,1,0,1
1063,10,1,-18,1,-28,1,4,1,19,1,-23,1,-27,1,-10,1,6,1,4,1,8,1,0,1
1064,11,1,-18,1,-29,1,3,1,20,1,-23,1,-27,1,-11,1,7,1,4,1,7,1,2,1
1065,11,1,-20,1,-31,1,4,1,21,1,-25,1,-26,1,-11,1,6,1,2,1,6,1,1,1
1066,8,1,-24,1,-32,1,8,1,20,1,-28,1,-26,1,-13,1,4,1,1,1,6,1,1,1
1067,5,1,-26,1,-31,1,10,1,18,1,-28,1,-24,1,-14,1,3,1,0,1,5,1,1,1
1068,5,1,-26,1,-31,1,10,1,18,1,-28,1,-24,1,-14,1,1,1,-1,1,5,1,1,1
1069,4,1,-27,1,-31,1,11,1,17,1,-29,1,-23,1,-15,1,0,1,-2,1,4,1,1,1
1070,5,1,-26,1,-31,1,10,1,18,1,-28,1,-21,1,-16,1,-1,1,-4,1,3,1,1,1
1071,4,1,-26,1,-30,1,11,1,17,1,-28,1,-20,1,-17,1,-2,1,-5,1,2,1,2,1
1072,5,1,-26,1,-31,1,10,1,18,1,-28,1,-18,1,-17,1,-4,1,-6,1,2,1,2,1
1073,6,1,-25,1,-31,1,9,1,18,1,-28,1,-15,1,-15,1,-5,1,-5,1,2,1,2,1
1074,8,1,-23,1,-31,1,7,1,19,1,-27,1,-13,1,-15,1,-7,1,-5,1,3,1,2,1
1075,7,1,-24,1,-31,1,8,1,19,1,-27,1,-12,1,-15,1,-10,1,-6,1,2,1,1,1
1076,5,1,-26,1,-31,1,10,1,18,1,-28,1,-11,1,-17,1,-12,1,-7,1,2,1,1,1
1077,5,1,-26,1,-31,1,10,1,18,1,-28,1,-11,1,-18,1,-13,1,-7,1,2,1,2,1
1078,7,1,-24,1,-31,1,8,1,19,1,-27,1,-10,1,-20,1,-13,1,-7,1,1,1,2,1
1079,8,1,-23,1,-31,1,7,1,19,1,-27,1,-7,1,-20,1,-13,1,-7,1,1,1,3,1
1080,8,1,-22,1,-30,1,7,1,19,1,-26,1,-6,1,-20,1,-14,1,-7,1,1,1,4,1
1081,5,1,-22,1,-27,1,8,1,16,1,-24,1,-6,1,-21,1,-16,1,-8,1,0,1,3,1
1082,4,1,-21,1,-25,1,8,1,14,1,-23,1,-4,1,-22,1,-18,1,-9,1,0,1,4,1
1083,4,1,-20,1,-24,1,8,1,14,1,-22,1,-4,1,-22,1,-19,1,-9,1,0,1,5,1
1084,4,1,-19,1,-23,1,7,1,13,1,-21,1,-2,1,-23,1,-20,1,-10,1,0,1,5,1
1085,3,1,-17,1,-20,1,7,1,11,1,-18,1,-1,1,-24,1,-23,1,-12,1,0,1,5,1
1086,1,1,-17,1,-18,1,8,1,9,1,-17,1,0,1,-24,1,-27,1,-13,1,-1,1,4,1
1087,0,1,-16,1,-16,1,8,1,8,1,-16,1,0,1,-27,1,-31,1,-14,1,-1,1,2,1
1088,0,1,-16,1,-16,1,8,1,8,1,-16,1,0,1,-31,1,-35,1,-16,1,-3,1,1,1
1089,-1,1,-15,1,-14,1,8,1,6,1,-15,1,-3,1,-35,1,-38,1,-17,1,-4,1,2,1
1090,0,1,-13,1,-13,1,6,1,6,1,-13,1,-6,1,-38,1,-40,1,-19,1,-5,1,2,1
1091,2,1,-12,1,-14,1,5,1,8,1,-13,1,-10,1,-40,1,-42,1,-19,1,-6,1,2,1
1092,1,1,-12,1,-13,1,5,1,7,1,-12,1,-16,1,-43,1,-43,1,-21,1,-6,1,3,1
1093,0,1,-13,1,-13,1,6,1,6,1,-13,1,-22,1,-45,1,-43,1,-22,1,-7,1,2,1
1094,1,1,-12,1,-13,1,5,1,7,1,-12,1,-28,1,-47,1,-45,1,-23,1,-7,1,2,1
1095,3,1,-11,1,-14,1,4,1,8,1,-12,1,-34,1,-48,1,-45,1,-24,1,-8,1,3,1
1096,2,1,-11,1,-13,1,4,1,7,1,-12,1,-37,1,-49,1,-44,1,-25,1,-9,1,3,1
1097,3,1,-10,1,-13,1,3,1,8,1,-11,1,-39,1,-51,1,-43,1,-26,1,-9,1,3,1
1098,7,1,-8,1,-15,1,0,1,11,1,-11,1,-41,1,-52,1,-42,1,-26,1,-9,1,4,1
1099,9,1,-8,1,-17,1,0,1,13,1,-12,1,-41,1,-53,1,-41,1,-26,1,-9,1,4,1
1100,9,1,-8,1,-17,1,0,1,13,1,-12,1,-42,1,-54,1,-42,1,-27,1,-10,1,4,1
1101,9,1,-9,1,-18,1,0,1,13,1,-13,1,-43,1,-56,1,-43,1,-27,1,-10,1,4,1
1102,9,1,-7,1,-16,1,-1,1,12,1,-11,1,-43,1,-56,1,-43,1,-28,1,-10,1,3,1
1103,9,1,-7,1,-16,1,-1,1,12,1,-11,1,-42,1,-56,1,-43,1,-29,1,-11,1,2,1
1104,9,1,-6,1,-15,1,-1,1,12,1,-10,1,-41,1,-54,1,-42,1,-30,1,-13,1,2,1
1105,10,1,-5,1,-15,1,-2,1,12,1,-10,1,-40,1,-52,1,-41,1,-29,1,-12,1,2,1
1106,10,1,-6,1,-16,1,-2,1,13,1,-11,1,-41,1,-51,1,-39,1,-29,1,-12,1,3,1
1107,10,1,-6,1,-16,1,-2,1,13,1,-11,1,-41,1,-49,1,-38,1,-29,1,-11,1,4,1
1108,7,1,-7,1,-14,1,0,1,10,1,-10,1,-39,1,-49,1,-36,1,-28,1,-10,1,4,1
1109,4,1,-7,1,-11,1,1,1,7,1,-9,1,-37,1,-47,1,-33,1,-26,1,-9,1,5,1
1110,4,1,-6,1,-10,1,1,1,7,1,-8,1,-33,1,-45,1,-32,1,-24,1,-9,1,4,1
1111,3,1,-8,1,-11,1,2,1,7,1,-9,1,-33,1,-44,1,-32,1,-25,1,-10,1,2,1
1112,-1,1,-11,1,-10,1,6,1,4,1,-11,1,-32,1,-43,1,-33,1,-24,1,-12,1,1,1
1113,-3,1,-12,1,-9,1,7,1,3,1,-11,1,-30,1,-41,1,-31,1,-23,1,-11,1,0,1
1114,-2,1,-12,1,-10,1,7,1,4,1,-11,1,-29,1,-40,1,-29,1,-21,1,-10,1,-1,1
1115,-2,1,-11,1,-9,1,6,1,3,1,-10,1,-27,1,-38,1,-25,1,-20,1,-9,1,-1,1
1116,-2,1,-12,1,-10,1,7,1,4,1,-11,1,-26,1,-37,1,-21,1,-20,1,-9,1,-2,1
1117,-5,1,-14,1,-9,1,9,1,2,1,-12,1,-25,1,-36,1,-18,1,-21,1,-9,1,-3,1
1118,-4,1,-15,1,-11,1,9,1,3,1,-13,1,-24,1,-36,1,-14,1,-20,1,-8,1,-2,1
1119,-7,1,-19,1,-12,1,13,1,2,1,-16,1,-25,1,-36,1,-12,1,-20,1,-8,1,-3,1
1120,-7,1,-19,1,-12,1,13,1,2,1,-16,1,-23,1,-35,1,-11,1,-19,1,-9,1,-3,1
1121,-5,1,-17,1,-12,1,11,1,3,1,-15,1,-21,1,-33,1,-9,1,-18,1,-8,1,-3,1
1122,-4,1,-17,1,-13,1,10,1,4,1,-15,1,-20,1,-32,1,-8,1,-18,1,-8,1,-2,1
1123,-4,1,-17,1,-13,1,10,1,4,1,-15,1,-20,1,-31,1,-7,1,-17,1,-8,1,-2,1
1124,-5,1,-18,1,-13,1,11,1,4,1,-16,1,-21,1,-31,1,-7,1,-17,1,-7,1,-2,1
1125,-7,1,-20,1,-13,1,13,1,3,1,-17,1,-21,1,-31,1,-8,1,-19,1,-8,1,-3,1
1126,-7,1,-23,1,-16,1,15,1,4,1,-20,1,-23,1,-32,1,-8,1,-20,1,-9,1,-4,1
1127,-5,1,-23,1,-18,1,14,1,6,1,-21,1,-24,1,-32,1,-9,1,-19,1,-9,1,-5,1
1128,-4,1,-23,1,-19,1,13,1,7,1,-21,1,-25,1,-31,1,-10,1,-18,1,-9,1,-5,1
1129,-4,1,-23,1,-19,1,13,1,7,1,-21,1,-24,1,-31,1,-10,1,-18,1,-9,1,-5,1
1130,-2,1,-22,1,-20,1,12,1,9,1,-21,1,-24,1,-32,1,-12,1,-19,1,-9,1,-4,1
1131,0,1,-20,1,-20,1,10,1,10,1,-20,1,-23,1,-31,1,-12,1,-18,1,-8,1,-2,1
1132,1,1,-18,1,-19,1,8,1,10,1,-18,1,-23,1,-31,1,-12,1,-18,1,-7,1,-1,1
1133,2,1,-17,1,-19,1,7,1,10,1,-18,1,-23,1,-31,1,-12,1,-17,1,-7,1,-1,1
1134,5,1,-16,1,-21,1,5,1,13,1,-18,1,-22,1,-31,1,-14,1,-17,1,-6,1,-1,1
1135,3,1,-18,1,-21,1,7,1,12,1,-19,1,-22,1,-30,1,-15,1,-17,1,-5,1,-2,1
1136,-1,1,-21,1,-20,1,11,1,9,1,-21,1,-23,1,-30,1,-14,1,-18,1,-6,1,-2,1
1137,-3,1,-23,1,-20,1,13,1,8,1,-22,1,-23,1,-30,1,-12,1,-18,1,-6,1,-2,1
1138,-4,1,-25,1,-21,1,14,1,8,1,-23,1,-23,1,-30,1,-11,1,-18,1,-7,1,-2,1
1139,-5,1,-26,1,-21,1,15,1,8,1,-24,1,-24,1,-31,1,-10,1,-19,1,-8,1,-2,1
1140,-6,1,-25,1,-19,1,15,1,6,1,-22,1,-23,1,-31,1,-9,1,-19,1,-8,1,-3,1
1141,-5,1,-24,1,-19,1,14,1,7,1,-22,1,-22,1,-32,1,-8,1,-19,1,-8,1,-3,1
1142,-6,1,-25,1,-19,1,15,1,6,1,-22,1,-22,1,-33,1,-8,1,-20,1,-8,1,-4,1
1143,-5,1,-26,1,-21,1,15,1,8,1,-24,1,-21,1,-33,1,-7,1,-20,1,-9,1,-4,1
1144,-4,1,-25,1,-21,1,14,1,8,1,-23,1,-20,1,-32,1,-6,1,-20,1,-9,1,-3,1
1145,-2,1,-24,1,-22,1,13,1,10,1,-23,1,-19,1,-31,1,-4,1,-20,1,-10,1,-2,1
1146,0,1,-23,1,-23,1,11,1,11,1,-23,1,-19,1,-31,1,-3,1,-20,1,-10,1,-2,1
1147,-2,1,-25,1,-23,1,13,1,10,1,-24,1,-18,1,-32,1,-2,1,-20,1,-10,1,-3,1
1148,-3,1,-26,1,-23,1,14,1,10,1,-25,1,-17,1,-32,1,-2,1,-21,1,-11,1,-3,1
1149,-3,1,-27,1,-24,1,15,1,10,1,-26,1,-18,1,-33,1,-2,1,-22,1,-10,1,-3,1
1150,-3,1,-28,1,-25,1,15,1,11,1,-27,1,-18,1,-34,1,-3,1,-22,1,-10,1,-3,1
1151,-4,1,-28,1,-24,1,16,1,10,1,-26,1,-17,1,-34,1,-2,1,-22,1,-10,1,-3,1
1152,-3,1,-25,1,-22,1,14,1,9,1,-24,1,-16,1,-34,1,-1,1,-21,1,-10,1,-3,1
1153,-5,1,-26,1,-21,1,15,1,8,1,-24,1,-16,1,-34,1,-1,1,-21,1,-10,1,-3,1
1154,-5,1,-28,1,-23,1,16,1,9,1,-26,1,-17,1,-36,1,-2,1,-22,1,-12,1,-4,1
1155,-7,1,-28,1,-21,1,17,1,7,1,-25,1,-16,1,-36,1,-2,1,-21,1,-11,1,-3,1
1156,-8,1,-28,1,-20,1,18,1,6,1,-24,1,-15,1,-37,1,-2,1,-21,1,-11,1,-2,1
1157,-8,1,-26,1,-18,1,17,1,5,1,-22,1,-14,1,-37,1,-2,1,-21,1,-10,1,-1,1
1158,-6,1,-24,1,-18,1,15,1,6,1,-21,1,-13,1,-36,1,-2,1,-20,1,-9,1,0,1
1159,-7,1,-24,1,-17,1,15,1,5,1,-21,1,-13,1,-36,1,-2,1,-20,1,-9,1,0,1
1160,-8,1,-24,1,-16,1,16,1,4,1,-20,1,-14,1,-36,1,-2,1,-21,1,-10,1,0,1
1161,-7,1,-23,1,-16,1,15,1,4,1,-20,1,-14,1,-36,1,-3,1,-22,1,-10,1,-1,1
1162,-6,1,-22,1,-16,1,14,1,5,1,-19,1,-14,1,-36,1,-3,1,-23,1,-10,1,-2,1
1163,-6,1,-21,1,-15,1,13,1,4,1,-18,1,-13,1,-37,1,-3,1,-23,1,-10,1,-2,1
1164,-8,1,-21,1,-13,1,14,1,2,1,-17,1,-13,1,-39,1,-3,1,-23,1,-10,1,-1,1
1165,-8,1,-21,1,-13,1,14,1,2,1,-17,1,-16,1,-41,1,-5,1,-23,1,-9,1,0,1
1166,-8,1,-20,1,-12,1,14,1,2,1,-16,1,-20,1,-43,1,-5,1,-23,1,-9,1,0,1
1167,-7,1,-19,1,-12,1,13,1,2,1,-16,1,-24,1,-45,1,-5,1,-23,1,-9,1,2,1
1168,-5,1,-16,1,-11,1,10,1,3,1,-14,1,-28,1,-46,1,-3,1,-21,1,-8,1,3,1
1169,-4,1,-17,1,-13,1,10,1,4,1,-15,1,-33,1,-47,1,-3,1,-21,1,-8,1,4,1
1170,-1,1,-17,1,-16,1,9,1,7,1,-17,1,-40,1,-48,1,-3,1,-22,1,-8,1,5,1
1171,2,1,-17,1,-19,1,7,1,10,1,-18,1,-45,1,-50,1,-3,1,-22,1,-8,1,5,1
1172,5,1,-15,1,-20,1,5,1,12,1,-17,1,-49,1,-50,1,-2,1,-20,1,-6,1,5,1
1173,9,1,-14,1,-23,1,2,1,16,1,-18,1,-51,1,-50,1,-1,1,-19,1,-5,1,7,1
1174,11,1,-11,1,-22,1,0,1,16,1,-16,1,-53,1,-50,1,-1,1,-18,1,-4,1,8,1
1175,13,1,-9,1,-22,1,-2,1,17,1,-15,1,-55,1,-50,1,0,1,-16,1,-3,1,9,1
1176,15,1,-8,1,-23,1,-3,1,19,1,-15,1,-55,1,-49,1,1,1,-14,1,-2,1,9,1
1177,13,1,-9,1,-22,1,-2,1,17,1,-15,1,-55,1,-48,1,2,1,-13,1,-2,1,9,1
1178,10,1,-9,1,-19,1,0,1,14,1,-14,1,-53,1,-47,1,3,1,-12,1,-2,1,9,1
1179,8,1,-8,1,-16,1,0,1,12,1,-12,1,-49,1,-43,1,6,1,-11,1,-2,1,8,1
1180,6,1,-5,1,-11,1,0,1,8,1,-8,1,-43,1,-37,1,13,1,-9,1,-4,1,5,1
1181,0,1,-5,1,-5,1,2,1,2,1,-5,1,-34,1,-27,1,22,1,-8,1,-7,1,0,1
1182,-8,1,-6,1,2,1,7,1,-5,1,-2,1,-24,1,-16,1,34,1,-6,1,-11,1,-5,1
1183,-15,1,-5,1,10,1,10,1,-13,1,2,1,-13,1,-1,1,50,1,2,1,-12,1,-11,1
1184,-21,1,-3,1,18,1,12,1,-20,1,7,1,0,1,16,1,73,1,17,1,-6,1,-12,1
1185,-28,1,1,1,29,1,13,1,-28,1,15,1,12,1,38,1,103,1,40,1,3,1,-12,1
1186,-37,1,6,1,43,1,15,1,-40,1,24,1,29,1,64,1,139,1,71,1,20,1,-10,1
1187,-43,1,11,1,54,1,16,1,-48,1,32,1,47,1,94,1,183,1,111,1,44,1,-7,1
1188,-47,1,18,1,65,1,14,1,-56,1,41,1,66,1,131,1,237,1,160,1,76,1,-1,1
1189,-51,1,26,1,77,1,12,1,-64,1,51,1,84,1,171,1,295,1,215,1,112,1,6,1
1190,-53,1,35,1,88,1,9,1,-70,1,61,1,101,1,216,1,357,1,271,1,151,1,13,1
1191,-51,1,46,1,97,1,2,1,-74,1,71,1,116,1,264,1,422,1,328,1,188,1,20,1
1192,-45,1,58,1,103,1,-6,1,-74,1,80,1,130,1,316,1,491,1,390,1,229,1,29,1
1193,-35,1,72,1,107,1,-18,1,-71,1,89,1,142,1,370,1,558,1,454,1,273,1,40,1
1194,-22,1,89,1,111,1,-33,1,-66,1,100,1,152,1,425,1,627,1,520,1,318,1,55,1
1195,-9,1,106,1,115,1,-48,1,-62,1,110,1,157,1,478,1,695,1,586,1,362,1,71,1
1196,7,1,120,1,113,1,-63,1,-53,1,117,1,161,1,532,1,762,1,646,1,403,1,85,1
1197,25,1,130,1,105,1,-77,1,-40,1,118,1,164,1,586,1,826,1,700,1,442,1,98,1
1198,43,1,133,1,90,1,-88,1,-23,1,112,1,163,1,635,1,881,1,743,1,473,1,108,1
1199,62,1,129,1,67,1,-95,1,-2,1,98,1,160,1,677,1,918,1,763,1,488,1,112,1
1200,76,1,123,1,47,1,-99,1,15,1,85,1,153,1,698,1,915,1,736,1,469,1,109,1
1201,77,1,105,1,28,1,-91,1,25,1,67,1,139,1,683,1,846,1,624,1,371,1,77,1
1202,67,1,70,1,3,1,-68,1,32,1,37,1,124,1,639,1,712,1,427,1,201,1,18,1
1203,53,1,26,1,-27,1,-39,1,40,1,0,1,110,1,574,1,542,1,206,1,23,1,-48,1
1204,40,1,-13,1,-53,1,-13,1,46,1,-33,1,94,1,500,1,376,1,30,1,-106,1,-95,1
1205,26,1,-41,1,-67,1,7,1,46,1,-54,1,78,1,421,1,230,1,-98,1,-188,1,-124,1
1206,10,1,-62,1,-72,1,26,1,41,1,-67,1,58,1,348,1,115,1,-178,1,-231,1,-137,1
1207,-1,1,-78,1,-77,1,39,1,38,1,-78,1,42,1,281,1,26,1,-225,1,-250,1,-142,1
1208,-10,1,-89,1,-79,1,49,1,34,1,-84,1,31,1,222,1,-38,1,-249,1,-254,1,-143,1
1209,-18,1,-93,1,-75,1,55,1,28,1,-84,1,22,1,169,1,-79,1,-255,1,-245,1,-136,1
1210,-23,1,-90,1,-67,1,56,1,22,1,-79,1,10,1,112,1,-106,1,-250,1,-227,1,-123,1
1211,-25,1,-83,1,-58,1,54,1,16,1,-71,1,-4,1,58,1,-122,1,-236,1,-203,1,-107,1
1212,-23,1,-76,1,-53,1,49,1,15,1,-65,1,-20,1,14,1,-123,1,-213,1,-174,1,-88,1
1213,-18,1,-68,1,-50,1,43,1,16,1,-59,1,-29,1,-19,1,-116,1,-185,1,-144,1,-68,1
1214,-15,1,-60,1,-45,1,37,1,15,1,-53,1,-33,1,-44,1,-109,1,-161,1,-120,1,-50,1
1215,-13,1,-53,1,-40,1,33,1,13,1,-47,1,-35,1,-61,1,-101,1,-142,1,-102,1,-36,1
1216,-12,1,-45,1,-33,1,28,1,10,1,-39,1,-37,1,-74,1,-94,1,-127,1,-89,1,-28,1
1217,-11,1,-38,1,-27,1,24,1,8,1,-33,1,-40,1,-84,1,-87,1,-118,1,-81,1,-23,1
1218,-12,1,-34,1,-22,1,23,1,5,1,-28,1,-42,1,-91,1,-81,1,-113,1,-76,1,-20,1
1219,-15,1,-33,1,-18,1,24,1,1,1,-26,1,-40,1,-96,1,-76,1,-109,1,-72,1,-18,1
1220,-16,1,-26,1,-10,1,21,1,-3,1,-18,1,-37,1,-97,1,-69,1,-104,1,-66,1,-13,1
1221,-16,1,-22,1,-6,1,19,1,-5,1,-14,1,-34,1,-100,1,-65,1,-100,1,-62,1,-9,1
1222,-16,1,-20,1,-4,1,18,1,-6,1,-12,1,-33,1,-102,1,-62,1,-97,1,-57,1,-5,1
1223,-15,1,-18,1,-3,1,16,1,-6,1,-11,1,-33,1,-103,1,-58,1,-93,1,-53,1,-1,1
1224,-15,1,-18,1,-3,1,16,1,-6,1,-11,1,-33,1,-102,1,-56,1,-89,1,-52,1,0,1
1225,-14,1,-19,1,-5,1,16,1,-5,1,-12,1,-33,1,-101,1,-55,1,-88,1,-52,1,0,1
1226,-15,1,-21,1,-6,1,18,1,-5,1,-14,1,-34,1,-99,1,-55,1,-88,1,-53,1,-3,1
1227,-14,1,-23,1,-9,1,18,1,-3,1,-16,1,-36,1,-99,1,-56,1,-89,1,-54,1,-6,1
1228,-12,1,-22,1,-10,1,17,1,-1,1,-16,1,-38,1,-98,1,-56,1,-91,1,-56,1,-8,1
1229,-15,1,-24,1,-9,1,19,1,-3,1,-17,1,-39,1,-98,1,-57,1,-91,1,-57,1,-9,1
1230,-17,1,-24,1,-7,1,20,1,-5,1,-16,1,-38,1,-98,1,-57,1,-93,1,-58,1,-9,1
1231,-17,1,-22,1,-5,1,19,1,-6,1,-14,1,-36,1,-97,1,-56,1,-92,1,-57,1,-7,1
1232,-16,1,-20,1,-4,1,18,1,-6,1,-12,1,-34,1,-96,1,-55,1,-90,1,-56,1,-5,1
1233,-17,1,-20,1,-3,1,18,1,-7,1,-12,1,-32,1,-96,1,-54,1,-90,1,-55,1,-4,1
1234,-18,1,-20,1,-2,1,19,1,-8,1,-11,1,-31,1,-96,1,-53,1,-90,1,-56,1,-3,1
1235,-19,1,-20,1,-1,1,19,1,-9,1,-11,1,-29,1,-95,1,-52,1,-90,1,-55,1,-3,1
1236,-18,1,-20,1,-2,1,19,1,-8,1,-11,1,-27,1,-93,1,-52,1,-90,1,-55,1,-2,1
1237,-17,1,-19,1,-2,1,18,1,-8,1,-11,1,-25,1,-93,1,-50,1,-90,1,-54,1,-1,1
1238,-18,1,-18,1,0,1,18,1,-9,1,-9,1,-26,1,-94,1,-49,1,-90,1,-55,1,-2,1
1239,-19,1,-17,1,2,1,18,1,-11,1,-8,1,-28,1,-96,1,-48,1,-89,1,-55,1,-2,1
1240,-18,1,-15,1,3,1,16,1,-11,1,-6,1,-30,1,-98,1,-47,1,-88,1,-55,1,-1,1
1241,-16,1,-13,1,3,1,14,1,-10,1,-5,1,-34,1,-100,1,-48,1,-87,1,-55,1,-1,1
1242,-16,1,-13,1,3,1,14,1,-10,1,-5,1,-39,1,-102,1,-48,1,-87,1,-55,1,0,1
1243,-16,1,-14,1,2,1,15,1,-9,1,-6,1,-46,1,-106,1,-50,1,-87,1,-55,1,0,1
1244,-15,1,-15,1,0,1,15,1,-8,1,-8,1,-52,1,-108,1,-60,1,-88,1,-57,1,0,1
1245,-14,1,-15,1,-1,1,14,1,-7,1,-8,1,-58,1,-110,1,-77,1,-90,1,-58,1,-1,1
1246,-12,1,-16,1,-4,1,14,1,-4,1,-10,1,-61,1,-112,1,-94,1,-91,1,-59,1,-2,1
1247,-11,1,-15,1,-4,1,13,1,-4,1,-10,1,-63,1,-111,1,-108,1,-91,1,-60,1,-3,1
1248,-10,1,-14,1,-4,1,12,1,-3,1,-9,1,-64,1,-110,1,-119,1,-90,1,-59,1,-3,1
1249,-7,1,-14,1,-7,1,10,1,0,1,-11,1,-65,1,-110,1,-129,1,-90,1,-58,1,-3,1
1250,-4,1,-14,1,-10,1,9,1,3,1,-12,1,-66,1,-110,1,-139,1,-90,1,-58,1,-3,1
1251,-4,1,-13,1,-9,1,8,1,2,1,-11,1,-66,1,-110,1,-148,1,-91,1,-59,1,-3,1
1252,-4,1,-16,1,-12,1,10,1,4,1,-14,1,-66,1,-110,1,-155,1,-91,1,-60,1,-3,1
1253,-4,1,-18,1,-14,1,11,1,5,1,-16,1,-66,1,-110,1,-161,1,-91,1,-60,1,-3,1
1254,-4,1,-20,1,-16,1,12,1,6,1,-18,1,-66,1,-111,1,-167,1,-91,1,-61,1,-3,1
1255,-4,1,-20,1,-16,1,12,1,6,1,-18,1,-66,1,-111,1,-170,1,-91,1,-61,1,-3,1
1256,-5,1,-19,1,-14,1,12,1,4,1,-17,1,-65,1,-110,1,-172,1,-92,1,-61,1,-3,1
1257,-5,1,-17,1,-12,1,11,1,3,1,-15,1,-64,1,-109,1,-174,1,-92,1,-62,1,-3,1
1258,-5,1,-17,1,-12,1,11,1,3,1,-15,1,-62,1,-107,1,-174,1,-92,1,-62,1,-3,1
1259,-5,1,-16,1,-11,1,10,1,3,1,-14,1,-60,1,-106,1,-174,1,-91,1,-60,1,-3,1
1260,-7,1,-18,1,-11,1,12,1,2,1,-15,1,-58,1,-106,1,-175,1,-92,1,-61,1,-5,1
1261,-5,1,-16,1,-11,1,10,1,3,1,-14,1,-56,1,-105,1,-173,1,-92,1,-62,1,-6,1
1262,-5,1,-14,1,-9,1,9,1,2,1,-12,1,-51,1,-104,1,-172,1,-91,1,-62,1,-6,1
1263,-8,1,-13,1,-5,1,10,1,-2,1,-9,1,-48,1,-104,1,-170,1,-91,1,-64,1,-7,1
1264,-9,1,-12,1,-3,1,10,1,-3,1,-8,1,-46,1,-102,1,-169,1,-89,1,-64,1,-8,1
1265,-10,1,-12,1,-2,1,11,1,-4,1,-7,1,-44,1,-101,1,-168,1,-88,1,-64,1,-8,1
1266,-13,1,-13,1,0,1,13,1,-7,1,-7,1,-43,1,-101,1,-167,1,-88,1,-64,1,-8,1
1267,-15,1,-13,1,2,1,14,1,-9,1,-6,1,-43,1,-100,1,-165,1,-88,1,-64,1,-9,1
1268,-17,1,-15,1,2,1,16,1,-10,1,-7,1,-42,1,-99,1,-165,1,-89,1,-65,1,-11,1
1269,-18,1,-14,1,4,1,16,1,-11,1,-5,1,-40,1,-99,1,-165,1,-91,1,-67,1,-13,1
1270,-19,1,-14,1,5,1,16,1,-12,1,-5,1,-38,1,-97,1,-166,1,-92,1,-68,1,-16,1
1271,-19,1,-13,1,6,1,16,1,-13,1,-4,1,-35,1,-95,1,-165,1,-92,1,-68,1,-18,1
1272,-20,1,-13,1,7,1,16,1,-14,1,-3,1,-32,1,-94,1,-165,1,-92,1,-68,1,-17,1
1273,-19,1,-11,1,8,1,15,1,-14,1,-2,1,-30,1,-93,1,-164,1,-90,1,-69,1,-17,1
1274,-19,1,-9,1,10,1,14,1,-15,1,0,1,-26,1,-92,1,-164,1,-89,1,-69,1,-17,1
1275,-19,1,-8,1,11,1,13,1,-15,1,1,1,-24,1,-91,1,-162,1,-88,1,-69,1,-18,1
1276,-21,1,-9,1,12,1,15,1,-17,1,1,1,-22,1,-90,1,-162,1,-87,1,-69,1,-18,1
1277,-22,1,-10,1,12,1,16,1,-17,1,1,1,-21,1,-88,1,-161,1,-87,1,-69,1,-18,1
1278,-23,1,-10,1,13,1,16,1,-18,1,1,1,-19,1,-86,1,-161,1,-86,1,-70,1,-18,1
1279,-24,1,-10,1,14,1,17,1,-19,1,2,1,-17,1,-85,1,-161,1,-87,1,-71,1,-19,1
1280,-24,1,-10,1,14,1,17,1,-19,1,2,1,-15,1,-84,1,-162,1,-86,1,-71,1,-19,1
1281,-25,1,-8,1,17,1,16,1,-21,1,4,1,-12,1,-82,1,-160,1,-85,1,-70,1,-19,1
1282,-23,1,-4,1,19,1,13,1,-21,1,7,1,-9,1,-80,1,-158,1,-82,1,-69,1,-18,1
1283,-22,1,-3,1,19,1,12,1,-21,1,8,1,-7,1,-78,1,-156,1,-81,1,-69,1,-18,1
1284,-25,1,-6,1,19,1,15,1,-22,1,6,1,-7,1,-78,1,-155,1,-81,1,-70,1,-19,1
1285,-30,1,-10,1,20,1,20,1,-25,1,5,1,-6,1,-78,1,-153,1,-82,1,-72,1,-21,1
1286,-32,1,-11,1,21,1,21,1,-27,1,5,1,-5,1,-76,1,-151,1,-80,1,-72,1,-23,1
1287,-31,1,-10,1,21,1,20,1,-26,1,5,1,-3,1,-74,1,-148,1,-79,1,-72,1,-24,1
1288,-32,1,-10,1,22,1,21,1,-27,1,6,1,-1,1,-72,1,-145,1,-77,1,-72,1,-24,1
1289,-32,1,-10,1,22,1,21,1,-27,1,6,1,0,1,-70,1,-142,1,-75,1,-70,1,-24,1
1290,-31,1,-9,1,22,1,20,1,-27,1,6,1,2,1,-68,1,-139,1,-73,1,-69,1,-25,1
1291,-30,1,-7,1,23,1,18,1,-27,1,8,1,4,1,-66,1,-137,1,-70,1,-67,1,-25,1
1292,-33,1,-8,1,25,1,20,1,-29,1,8,1,7,1,-65,1,-134,1,-68,1,-65,1,-25,1
1293,-37,1,-7,1,30,1,22,1,-34,1,11,1,10,1,-63,1,-131,1,-64,1,-63,1,-25,1
1294,-36,1,-5,1,31,1,20,1,-34,1,13,1,13,1,-61,1,-129,1,-61,1,-62,1,-26,1
1295,-33,1,-4,1,29,1,18,1,-31,1,12,1,16,1,-59,1,-126,1,-58,1,-61,1,-26,1
1296,-32,1,-3,1,29,1,17,1,-31,1,13,1,18,1,-56,1,-122,1,-54,1,-59,1,-25,1
1297,-30,1,-2,1,28,1,16,1,-29,1,13,1,20,1,-53,1,-117,1,-50,1,-57,1,-25,1
1298,-28,1,0,1,28,1,14,1,-28,1,14,1,20,1,-51,1,-113,1,-47,1,-54,1,-24,1
1299,-26,1,1,1,27,1,12,1,-26,1,14,1,19,1,-49,1,-109,1,-43,1,-51,1,-23,1
1300,-28,1,1,1,29,1,13,1,-28,1,15,1,17,1,-47,1,-105,1,-39,1,-48,1,-23,1
1301,-27,1,2,1,29,1,12,1,-28,1,15,1,16,1,-45,1,-100,1,-34,1,-45,1,-22,1
1302,-27,1,3,1,30,1,12,1,-28,1,16,1,15,1,-44,1,-96,1,-28,1,-41,1,-21,1
1303,-26,1,5,1,31,1,10,1,-28,1,18,1,13,1,-43,1,-92,1,-23,1,-37,1,-20,1
1304,-22,1,8,1,30,1,7,1,-26,1,19,1,11,1,-41,1,-90,1,-17,1,-32,1,-19,1
1305,-19,1,10,1,29,1,4,1,-24,1,19,1,8,1,-40,1,-89,1,-12,1,-27,1,-16,1
1306,-17,1,11,1,28,1,3,1,-22,1,19,1,5,1,-39,1,-89,1,-8,1,-23,1,-15,1
1307,-15,1,9,1,24,1,3,1,-19,1,16,1,1,1,-39,1,-88,1,-4,1,-20,1,-15,1
1308,-16,1,6,1,22,1,5,1,-19,1,14,1,-3,1,-38,1,-87,1,-2,1,-17,1,-15,1
1309,-16,1,5,1,21,1,5,1,-18,1,13,1,-7,1,-36,1,-84,1,2,1,-14,1,-14,1
1310,-15,1,5,1,20,1,5,1,-17,1,12,1,-9,1,-34,1,-81,1,7,1,-11,1,-12,1
1311,-13,1,6,1,19,1,3,1,-16,1,12,1,-10,1,-33,1,-79,1,12,1,-7,1,-12,1
1312,-10,1,8,1,18,1,1,1,-14,1,13,1,-11,1,-32,1,-76,1,17,1,-5,1,-12,1
1313,-7,1,10,1,17,1,-1,1,-12,1,13,1,-12,1,-30,1,-71,1,21,1,-2,1,-10,1
1314,-5,1,10,1,15,1,-2,1,-10,1,12,1,-12,1,-28,1,-65,1,26,1,0,1,-10,1
1315,-3,1,10,1,13,1,-3,1,-8,1,11,1,-13,1,-26,1,-59,1,29,1,4,1,-10,1
1316,-1,1,10,1,11,1,-4,1,-6,1,10,1,-14,1,-24,1,-53,1,33,1,8,1,-9,1
1317,1,1,10,1,9,1,-5,1,-4,1,10,1,-14,1,-21,1,-48,1,37,1,12,1,-8,1
1318,4,1,11,1,7,1,-7,1,-1,1,9,1,-15,1,-19,1,-44,1,40,1,15,1,-8,1
1319,5,1,11,1,6,1,-8,1,0,1,9,1,-15,1,-17,1,-41,1,44,1,17,1,-7,1
1320,7,1,11,1,4,1,-9,1,2,1,8,1,-16,1,-17,1,-40,1,48,1,20,1,-7,1
1321,9,1,10,1,1,1,-9,1,4,1,6,1,-18,1,-17,1,-39,1,50,1,22,1,-5,1
1322,13,1,10,1,-3,1,-11,1,8,1,4,1,-19,1,-15,1,-37,1,54,1,24,1,-4,1
1323,16,1,10,1,-6,1,-13,1,11,1,2,1,-20,1,-14,1,-35,1,56,1,25,1,-4,1
1324,18,1,10,1,-8,1,-14,1,13,1,1,1,-22,1,-14,1,-34,1,57,1,26,1,-4,1
1325,20,1,11,1,-9,1,-15,1,15,1,1,1,-23,1,-13,1,-31,1,59,1,27,1,-4,1
1326,21,1,9,1,-12,1,-15,1,17,1,-1,1,-23,1,-12,1,-30,1,59,1,27,1,-4,1
1327,22,1,8,1,-14,1,-15,1,18,1,-3,1,-23,1,-11,1,-29,1,58,1,26,1,-4,1
1328,22,1,6,1,-16,1,-14,1,19,1,-5,1,-22,1,-10,1,-28,1,58,1,26,1,-5,1
1329,25,1,7,1,-18,1,-16,1,22,1,-5,1,-20,1,-8,1,-28,1,60,1,27,1,-3,1
1330,26,1,8,1,-18,1,-17,1,22,1,-5,1,-19,1,-6,1,-27,1,61,1,28,1,-2,1
1331,27,1,8,1,-19,1,-17,1,23,1,-5,1,-18,1,-4,1,-27,1,62,1,29,1,-2,1
1332,29,1,8,1,-21,1,-18,1,25,1,-6,1,-18,1,-3,1,-27,1,61,1,28,1,-3,1
1333,26,1,7,1,-19,1,-16,1,23,1,-6,1,-16,1,-2,1,-26,1,60,1,28,1,-3,1
1334,24,1,6,1,-18,1,-15,1,21,1,-6,1,-13,1,-1,1,-25,1,58,1,27,1,-5,1
1335,23,1,4,1,-19,1,-13,1,21,1,-7,1,-10,1,0,1,-24,1,57,1,27,1,-6,1
1336,21,1,3,1,-18,1,-12,1,20,1,-7,1,-9,1,0,1,-23,1,55,1,26,1,-7,1
1337,20,1,2,1,-18,1,-11,1,19,1,-8,1,-8,1,1,1,-22,1,54,1,25,1,-8,1
1338,22,1,4,1,-18,1,-13,1,20,1,-7,1,-8,1,0,1,-22,1,53,1,23,1,-8,1
1339,20,1,5,1,-15,1,-12,1,18,1,-5,1,-8,1,-1,1,-23,1,51,1,21,1,-9,1
1340,20,1,7,1,-13,1,-13,1,17,1,-3,1,-8,1,-1,1,-23,1,49,1,21,1,-9,1
1341,20,1,8,1,-12,1,-14,1,16,1,-2,1,-8,1,-2,1,-20,1,47,1,19,1,-10,1
1342,19,1,10,1,-9,1,-14,1,14,1,1,1,-8,1,-1,1,-12,1,45,1,18,1,-11,1
1343,17,1,10,1,-7,1,-13,1,12,1,2,1,-6,1,-1,1,-4,1,43,1,17,1,-11,1
1344,16,1,9,1,-7,1,-12,1,12,1,1,1,-5,1,-2,1,2,1,42,1,17,1,-10,1
1345,17,1,10,1,-7,1,-13,1,12,1,2,1,-3,1,0,1,9,1,41,1,17,1,-8,1
1346,19,1,10,1,-9,1,-14,1,14,1,1,1,-1,1,1,1,16,1,41,1,17,1,-6,1
1347,18,1,9,1,-9,1,-13,1,14,1,0,1,0,1,2,1,21,1,40,1,16,1,-5,1
1348,18,1,8,1,-10,1,-13,1,14,1,-1,1,2,1,2,1,27,1,38,1,15,1,-4,1
1349,16,1,6,1,-10,1,-11,1,13,1,-2,1,2,1,2,1,30,1,37,1,13,1,-5,1
1350,14,1,2,1,-12,1,-8,1,13,1,-5,1,2,1,1,1,32,1,34,1,10,1,-6,1
1351,14,1,0,1,-14,1,-7,1,14,1,-7,1,3,1,0,1,33,1,32,1,10,1,-7,1
1352,12,1,-1,1,-13,1,-5,1,12,1,-7,1,4,1,0,1,34,1,31,1,8,1,-8,1
1353,11,1,0,1,-11,1,-5,1,11,1,-5,1,5,1,0,1,35,1,30,1,7,1,-9,1
1354,8,1,2,1,-6,1,-5,1,7,1,-2,1,5,1,0,1,35,1,30,1,5,1,-9,1
1355,5,1,1,1,-4,1,-3,1,5,1,-1,1,4,1,-1,1,34,1,28,1,4,1,-9,1
1356,6,1,3,1,-3,1,-4,1,5,1,0,1,3,1,-3,1,34,1,27,1,4,1,-9,1
1357,10,1,6,1,-4,1,-8,1,7,1,1,1,1,1,-5,1,33,1,25,1,3,1,-10,1
1358,7,1,7,1,0,1,-7,1,4,1,4,1,0,1,-6,1,32,1,22,1,3,1,-10,1
1359,4,1,7,1,3,1,-5,1,1,1,5,1,-1,1,-7,1,32,1,21,1,3,1,-10,1
1360,5,1,9,1,4,1,-7,1,1,1,7,1,-3,1,-8,1,32,1,21,1,3,1,-8,1
1361,6,1,10,1,4,1,-8,1,1,1,7,1,-3,1,-8,1,32,1,21,1,3,1,-6,1
1362,4,1,8,1,4,1,-6,1,0,1,6,1,-6,1,-10,1,31,1,20,1,2,1,-6,1
1363,3,1,7,1,4,1,-5,1,0,1,6,1,-10,1,-11,1,30,1,19,1,1,1,-7,1
1364,3,1,7,1,4,1,-5,1,0,1,6,1,-13,1,-12,1,30,1,19,1,0,1,-7,1
1365,3,1,7,1,4,1,-5,1,0,1,6,1,-17,1,-12,1,30,1,19,1,0,1,-8,1
1366,4,1,7,1,3,1,-5,1,1,1,5,1,-21,1,-13,1,31,1,20,1,1,1,-7,1
1367,4,1,6,1,2,1,-5,1,1,1,4,1,-24,1,-14,1,31,1,19,1,2,1,-7,1
1368,2,1,3,1,1,1,-2,1,1,1,2,1,-28,1,-15,1,31,1,18,1,1,1,-8,1
1369,0,1,2,1,2,1,-1,1,-1,1,2,1,-31,1,-16,1,31,1,16,1,0,1,-8,1
1370,1,1,3,1,2,1,-2,1,0,1,3,1,-35,1,-18,1,31,1,16,1,0,1,-8,1
1371,2,1,2,1,0,1,-2,1,1,1,1,1,-39,1,-19,1,31,1,15,1,-1,1,-7,1
1372,0,1,1,1,1,1,0,1,0,1,1,1,-43,1,-20,1,32,1,15,1,0,1,-6,1
1373,1,1,2,1,1,1,-1,1,0,1,2,1,-46,1,-20,1,34,1,15,1,0,1,-6,1
1374,2,1,1,1,-1,1,-1,1,2,1,0,1,-50,1,-21,1,34,1,15,1,-1,1,-7,1
1375,3,1,1,1,-2,1,-2,1,3,1,0,1,-52,1,-22,1,34,1,14,1,-2,1,-8,1
1376,4,1,2,1,-2,1,-3,1,3,1,0,1,-53,1,-23,1,33,1,14,1,-2,1,-8,1
1377,3,1,0,1,-3,1,-1,1,3,1,-1,1,-54,1,-25,1,32,1,12,1,-4,1,-10,1
1378,2,1,0,1,-2,1,-1,1,2,1,-1,1,-53,1,-25,1,32,1,12,1,-4,1,-10,1
1379,3,1,3,1,0,1,-3,1,2,1,2,1,-51,1,-25,1,31,1,13,1,-3,1,-9,1
1380,5,1,5,1,0,1,-5,1,3,1,3,1,-51,1,-25,1,30,1,13,1,-4,1,-8,1
1381,5,1,7,1,2,1,-6,1,2,1,5,1,-49,1,-25,1,31,1,13,1,-3,1,-8,1
1382,6,1,7,1,1,1,-6,1,3,1,4,1,-48,1,-25,1,32,1,14,1,-3,1,-7,1
1383,5,1,5,1,0,1,-5,1,3,1,3,1,-48,1,-26,1,32,1,15,1,-2,1,-5,1
1384,5,1,1,1,-4,1,-3,1,5,1,-1,1,-47,1,-25,1,32,1,16,1,-2,1,-5,1
1385,7,1,1,1,-6,1,-4,1,7,1,-2,1,-45,1,-24,1,33,1,17,1,-1,1,-4,1
1386,8,1,1,1,-7,1,-4,1,8,1,-3,1,-44,1,-23,1,33,1,18,1,0,1,-4,1
1387,10,1,1,1,-9,1,-5,1,10,1,-4,1,-42,1,-22,1,33,1,18,1,0,1,-4,1
1388,11,1,1,1,-10,1,-6,1,11,1,-4,1,-40,1,-20,1,33,1,18,1,0,1,-5,1
1389,12,1,2,1,-10,1,-7,1,11,1,-4,1,-39,1,-19,1,33,1,18,1,1,1,-6,1
1390,13,1,1,1,-12,1,-7,1,13,1,-5,1,-40,1,-19,1,32,1,16,1,0,1,-8,1
1391,12,1,-2,1,-14,1,-5,1,13,1,-8,1,-41,1,-19,1,30,1,15,1,-1,1,-10,1
1392,13,1,-2,1,-15,1,-5,1,14,1,-8,1,-41,1,-20,1,30,1,15,1,-1,1,-12,1
1393,15,1,0,1,-15,1,-7,1,15,1,-7,1,-39,1,-20,1,31,1,15,1,0,1,-12,1
1394,17,1,0,1,-17,1,-8,1,17,1,-8,1,-38,1,-20,1,32,1,16,1,1,1,-12,1
1395,20,1,0,1,-20,1,-10,1,20,1,-10,1,-38,1,-20,1,33,1,16,1,1,1,-11,1
1396,20,1,-1,1,-21,1,-9,1,20,1,-11,1,-37,1,-21,1,33,1,15,1,0,1,-12,1
1397,18,1,-3,1,-21,1,-7,1,19,1,-12,1,-36,1,-22,1,31,1,14,1,0,1,-13,1
1398,15,1,-4,1,-19,1,-5,1,17,1,-11,1,-34,1,-22,1,31,1,14,1,-1,1,-14,1
1399,14,1,-6,1,-20,1,-4,1,17,1,-13,1,-31,1,-21,1,30,1,14,1,-2,1,-13,1
1400,15,1,-5,1,-20,1,-5,1,17,1,-12,1,-27,1,-21,1,30,1,14,1,-1,1,-12,1
1401,15,1,-5,1,-20,1,-5,1,17,1,-12,1,-24,1,-19,1,29,1,14,1,-1,1,-10,1
1402,15,1,-5,1,-20,1,-5,1,17,1,-12,1,-21,1,-19,1,27,1,13,1,-2,1,-10,1
1403,12,1,-7,1,-19,1,-2,1,15,1,-13,1,-20,1,-20,1,26,1,12,1,-2,1,-10,1
1404,10,1,-9,1,-19,1,0,1,14,1,-14,1,-18,1,-21,1,25,1,11,1,-3,1,-11,1
1405,8,1,-10,1,-18,1,1,1,13,1,-14,1,-18,1,-22,1,23,1,11,1,-4,1,-12,1
1406,7,1,-8,1,-15,1,0,1,11,1,-11,1,-18,1,-23,1,22,1,12,1,-4,1,-12,1
1407,6,1,-5,1,-11,1,0,1,8,1,-8,1,-18,1,-24,1,21,1,12,1,-4,1,-12,1
1408,6,1,-1,1,-7,1,-2,1,6,1,-4,1,-17,1,-25,1,20,1,12,1,-4,1,-10,1
1409,8,1,1,1,-7,1,-4,1,8,1,-3,1,-15,1,-25,1,18,1,13,1,-3,1,-8,1
1410,9,1,3,1,-6,1,-6,1,8,1,-1,1,-14,1,-26,1,16,1,14,1,-2,1,-7,1
1411,9,1,3,1,-6,1,-6,1,8,1,-1,1,-13,1,-27,1,13,1,15,1,-3,1,-7,1
1412,8,1,3,1,-5,1,-5,1,7,1,-1,1,-11,1,-27,1,13,1,15,1,-2,1,-7,1
1413,8,1,5,1,-3,1,-6,1,6,1,1,1,-10,1,-28,1,13,1,14,1,-3,1,-7,1
1414,10,1,7,1,-3,1,-8,1,7,1,2,1,-7,1,-27,1,14,1,15,1,-1,1,-6,1
1415,9,1,8,1,-1,1,-8,1,5,1,4,1,-6,1,-27,1,16,1,16,1,0,1,-5,1
1416,7,1,7,1,0,1,-7,1,4,1,4,1,-6,1,-27,1,18,1,15,1,1,1,-5,1
1417,7,1,7,1,0,1,-7,1,4,1,4,1,-7,1,-28,1,19,1,14,1,1,1,-6,1
1418,5,1,7,1,2,1,-6,1,2,1,5,1,-10,1,-30,1,20,1,14,1,1,1,-7,1
1419,5,1,7,1,2,1,-6,1,2,1,5,1,-13,1,-31,1,21,1,13,1,1,1,-7,1
1420,4,1,7,1,3,1,-5,1,1,1,5,1,-14,1,-32,1,21,1,14,1,0,1,-7,1
1421,5,1,8,1,3,1,-6,1,1,1,6,1,-16,1,-32,1,21,1,13,1,0,1,-7,1
1422,6,1,8,1,2,1,-7,1,2,1,5,1,-17,1,-32,1,21,1,14,1,-1,1,-6,1
1423,7,1,8,1,1,1,-7,1,3,1,5,1,-18,1,-32,1,21,1,13,1,0,1,-5,1
1424,9,1,10,1,1,1,-9,1,4,1,6,1,-19,1,-32,1,22,1,14,1,0,1,-4,1
1425,10,1,12,1,2,1,-11,1,4,1,7,1,-19,1,-33,1,22,1,15,1,1,1,-3,1
1426,11,1,13,1,2,1,-12,1,5,1,8,1,-18,1,-33,1,21,1,15,1,1,1,-4,1
1427,10,1,13,1,3,1,-11,1,4,1,8,1,-17,1,-32,1,22,1,16,1,2,1,-5,1
1428,10,1,15,1,5,1,-12,1,3,1,10,1,-16,1,-33,1,23,1,17,1,3,1,-4,1
1429,9,1,15,1,6,1,-12,1,2,1,11,1,-16,1,-33,1,25,1,18,1,3,1,-3,1
1430,9,1,17,1,8,1,-13,1,1,1,13,1,-16,1,-32,1,26,1,18,1,4,1,-3,1
1431,8,1,15,1,7,1,-11,1,1,1,11,1,-12,1,-31,1,28,1,18,1,4,1,-4,1
1432,8,1,14,1,6,1,-11,1,1,1,10,1,-5,1,-29,1,31,1,18,1,5,1,-4,1
1433,8,1,13,1,5,1,-10,1,2,1,9,1,1,1,-28,1,33,1,19,1,5,1,-5,1
1434,5,1,11,1,6,1,-8,1,0,1,9,1,8,1,-25,1,36,1,20,1,3,1,-7,1
1435,-1,1,11,1,12,1,-5,1,-6,1,11,1,14,1,-19,1,41,1,22,1,1,1,-10,1
1436,-5,1,13,1,18,1,-4,1,-11,1,15,1,22,1,-10,1,49,1,24,1,-1,1,-13,1
1437,-11,1,14,1,25,1,-1,1,-18,1,19,1,31,1,0,1,60,1,27,1,-4,1,-18,1
1438,-16,1,14,1,30,1,1,1,-23,1,22,1,41,1,14,1,74,1,33,1,-6,1,-23,1
1439,-21,1,18,1,39,1,1,1,-30,1,28,1,53,1,31,1,95,1,46,1,-1,1,-26,1
1440,-26,1,21,1,47,1,2,1,-36,1,34,1,65,1,51,1,123,1,68,1,9,1,-26,1
1441,-33,1,21,1,54,1,6,1,-43,1,37,1,79,1,76,1,159,1,99,1,26,1,-26,1
1442,-38,1,24,1,62,1,7,1,-50,1,43,1,94,1,107,1,202,1,140,1,53,1,-22,1
1443,-41,1,28,1,69,1,6,1,-55,1,48,1,109,1,144,1,254,1,192,1,89,1,-18,1
1444,-42,1,33,1,75,1,4,1,-58,1,54,1,122,1,187,1,313,1,253,1,131,1,-11,1
1445,-40,1,42,1,82,1,-1,1,-61,1,62,1,135,1,234,1,378,1,316,1,176,1,-1,1
1446,-35,1,52,1,87,1,-8,1,-61,1,69,1,147,1,286,1,446,1,379,1,219,1,9,1
1447,-26,1,62,1,88,1,-18,1,-57,1,75,1,157,1,339,1,516,1,444,1,263,1,20,1
1448,-15,1,71,1,86,1,-28,1,-50,1,78,1,163,1,393,1,587,1,510,1,308,1,33,1
1449,-3,1,79,1,82,1,-38,1,-42,1,80,1,166,1,448,1,657,1,577,1,354,1,46,1
1450,12,1,93,1,81,1,-52,1,-34,1,87,1,166,1,502,1,728,1,644,1,402,1,61,1
1451,31,1,107,1,76,1,-69,1,-22,1,92,1,164,1,555,1,795,1,707,1,446,1,75,1
1452,53,1,118,1,65,1,-85,1,-6,1,92,1,161,1,610,1,860,1,763,1,486,1,86,1
1453,78,1,125,1,47,1,-101,1,16,1,86,1,155,1,662,1,917,1,810,1,522,1,96,1
1454,100,1,128,1,28,1,-114,1,36,1,78,1,146,1,703,1,957,1,838,1,544,1,103,1
1455,119,1,127,1,8,1,-123,1,56,1,68,1,135,1,727,1,967,1,830,1,541,1,106,1
1456,121,1,115,1,-6,1,-118,1,64,1,55,1,123,1,721,1,920,1,754,1,476,1,90,1
1457,109,1,88,1,-21,1,-98,1,65,1,34,1,112,1,676,1,798,1,575,1,311,1,36,1
1458,89,1,50,1,-39,1,-69,1,64,1,6,1,104,1,606,1,624,1,335,1,103,1,-34,1
1459,68,1,10,1,-58,1,-39,1,63,1,-24,1,101,1,525,1,441,1,118,1,-68,1,-94,1
1460,48,1,-17,1,-65,1,-15,1,56,1,-41,1,96,1,436,1,273,1,-41,1,-179,1,-130,1
1461,31,1,-34,1,-65,1,1,1,48,1,-49,1,89,1,347,1,130,1,-151,1,-241,1,-146,1
1462,17,1,-47,1,-64,1,15,1,40,1,-55,1,81,1,265,1,19,1,-217,1,-269,1,-152,1
1463,6,1,-56,1,-62,1,25,1,34,1,-59,1,76,1,193,1,-64,1,-253,1,-275,1,-153,1
1464,-3,1,-62,1,-59,1,32,1,28,1,-61,1,72,1,134,1,-118,1,-268,1,-268,1,-150,1
1465,-13,1,-64,1,-51,1,38,1,19,1,-58,1,66,1,79,1,-151,1,-268,1,-252,1,-143,1
1466,-20,1,-62,1,-42,1,41,1,11,1,-52,1,55,1,22,1,-173,1,-260,1,-230,1,-131,1
1467,-23,1,-57,1,-34,1,40,1,5,1,-46,1,41,1,-23,1,-179,1,-240,1,-201,1,-114,1
1468,-19,1,-50,1,-31,1,34,1,6,1,-41,1,26,1,-55,1,-168,1,-210,1,-170,1,-94,1
1469,-13,1,-42,1,-29,1,27,1,8,1,-36,1,13,1,-78,1,-153,1,-179,1,-140,1,-75,1
1470,-8,1,-35,1,-27,1,21,1,9,1,-31,1,5,1,-92,1,-136,1,-153,1,-118,1,-60,1
1471,-1,1,-27,1,-26,1,14,1,12,1,-27,1,2,1,-99,1,-120,1,-131,1,-101,1,-51,1
1472,5,1,-18,1,-23,1,6,1,14,1,-20,1,2,1,-104,1,-107,1,-114,1,-90,1,-45,1
1473,8,1,-11,1,-19,1,1,1,13,1,-15,1,1,1,-108,1,-96,1,-104,1,-81,1,-41,1
1474,8,1,-6,1,-14,1,-1,1,11,1,-10,1,1,1,-112,1,-88,1,-96,1,-75,1,-40,1
1475,8,1,-1,1,-9,1,-3,1,8,1,-5,1,1,1,-112,1,-81,1,-90,1,-68,1,-36,1
1476,9,1,5,1,-4,1,-7,1,7,1,1,1,3,1,-109,1,-74,1,-84,1,-60,1,-31,1
1477,10,1,12,1,2,1,-11,1,4,1,7,1,5,1,-106,1,-68,1,-77,1,-52,1,-25,1
1478,10,1,18,1,8,1,-14,1,1,1,13,1,6,1,-103,1,-64,1,-71,1,-46,1,-19,1
1479,8,1,22,1,14,1,-15,1,-3,1,18,1,6,1,-102,1,-61,1,-67,1,-43,1,-16,1
1480,7,1,23,1,16,1,-15,1,-4,1,20,1,7,1,-102,1,-59,1,-64,1,-43,1,-16,1
1481,8,1,22,1,14,1,-15,1,-3,1,18,1,8,1,-101,1,-58,1,-62,1,-44,1,-16,1
1482,7,1,20,1,13,1,-13,1,-3,1,17,1,9,1,-102,1,-59,1,-63,1,-46,1,-17,1
1483,7,1,18,1,11,1,-12,1,-2,1,15,1,8,1,-102,1,-60,1,-64,1,-48,1,-18,1
1484,6,1,17,1,11,1,-11,1,-2,1,14,1,7,1,-104,1,-61,1,-64,1,-49,1,-19,1
1485,6,1,17,1,11,1,-11,1,-2,1,14,1,6,1,-104,1,-61,1,-66,1,-48,1,-20,1
1486,6,1,17,1,11,1,-11,1,-2,1,14,1,6,1,-104,1,-61,1,-66,1,-47,1,-20,1
1487,6,1,18,1,12,1,-12,1,-3,1,15,1,7,1,-103,1,-60,1,-65,1,-45,1,-17,1
1488,6,1,19,1,13,1,-12,1,-3,1,16,1,7,1,-103,1,-60,1,-65,1,-44,1,-16,1
1489,4,1,20,1,16,1,-12,1,-6,1,18,1,8,1,-102,1,-60,1,-64,1,-45,1,-15,1
1490,4,1,20,1,16,1,-12,1,-6,1,18,1,9,1,-101,1,-60,1,-64,1,-46,1,-15,1
1491,1,1,18,1,17,1,-9,1,-8,1,18,1,9,1,-100,1,-60,1,-65,1,-49,1,-19,1
1492,0,1,16,1,16,1,-8,1,-8,1,16,1,9,1,-100,1,-60,1,-67,1,-50,1,-22,1
1493,2,1,16,1,14,1,-9,1,-6,1,15,1,10,1,-100,1,-61,1,-68,1,-52,1,-25,1
1494,3,1,15,1,12,1,-9,1,-4,1,14,1,11,1,-100,1,-62,1,-70,1,-54,1,-27,1
1495,2,1,13,1,11,1,-7,1,-4,1,12,1,11,1,-100,1,-63,1,-71,1,-55,1,-29,1
1496,1,1,11,1,10,1,-6,1,-4,1,11,1,11,1,-100,1,-64,1,-72,1,-54,1,-28,1
1497,1,1,10,1,9,1,-5,1,-4,1,10,1,12,1,-100,1,-64,1,-73,1,-54,1,-28,1
1498,1,1,10,1,9,1,-5,1,-4,1,10,1,13,1,-100,1,-64,1,-74,1,-54,1,-28,1
1499,2,1,10,1,8,1,-6,1,-3,1,9,1,13,1,-100,1,-65,1,-74,1,-55,1,-28,1
1500,2,1,10,1,8,1,-6,1,-3,1,9,1,15,1,-98,1,-65,1,-75,1,-55,1,-27,1
1501,2,1,10,1,8,1,-6,1,-3,1,9,1,16,1,-97,1,-65,1,-74,1,-56,1,-28,1
1502,2,1,11,1,9,1,-6,1,-3,1,10,1,17,1,-97,1,-66,1,-74,1,-57,1,-29,1
1503,2,1,11,1,9,1,-6,1,-3,1,10,1,18,1,-97,1,-67,1,-74,1,-58,1,-31,1
1504,2,1,11,1,9,1,-6,1,-3,1,10,1,19,1,-97,1,-67,1,-75,1,-60,1,-32,1
1505,2,1,11,1,9,1,-6,1,-3,1,10,1,21,1,-96,1,-66,1,-76,1,-60,1,-33,1
1506,3,1,13,1,10,1,-8,1,-3,1,12,1,22,1,-95,1,-66,1,-76,1,-60,1,-33,1
1507,4,1,15,1,11,1,-9,1,-3,1,13,1,24,1,-93,1,-66,1,-77,1,-60,1,-35,1
1508,3,1,13,1,10,1,-8,1,-3,1,12,1,25,1,-93,1,-65,1,-78,1,-60,1,-37,1
1509,1,1,10,1,9,1,-5,1,-4,1,10,1,26,1,-93,1,-66,1,-78,1,-61,1,-38,1
1510,0,1,6,1,6,1,-3,1,-3,1,6,1,27,1,-93,1,-67,1,-78,1,-63,1,-39,1
1511,-2,1,2,1,4,1,0,1,-3,1,3,1,29,1,-92,1,-67,1,-79,1,-64,1,-40,1
1512,-5,1,-2,1,3,1,3,1,-4,1,0,1,31,1,-92,1,-67,1,-80,1,-66,1,-42,1
1513,-7,1,-5,1,2,1,6,1,-5,1,-2,1,32,1,-92,1,-68,1,-80,1,-67,1,-44,1
1514,-7,1,-6,1,1,1,6,1,-4,1,-3,1,32,1,-91,1,-70,1,-81,1,-68,1,-46,1
1515,-8,1,-7,1,1,1,7,1,-5,1,-3,1,34,1,-91,1,-71,1,-81,1,-70,1,-47,1
1516,-8,1,-6,1,2,1,7,1,-5,1,-2,1,35,1,-91,1,-73,1,-82,1,-70,1,-49,1
1517,-6,1,-3,1,3,1,4,1,-5,1,0,1,37,1,-91,1,-73,1,-81,1,-70,1,-49,1
1518,-6,1,-2,1,4,1,4,1,-5,1,1,1,39,1,-91,1,-72,1,-81,1,-71,1,-50,1
1519,-7,1,-2,1,5,1,4,1,-6,1,1,1,41,1,-91,1,-71,1,-80,1,-71,1,-50,1
1520,-6,1,-2,1,4,1,4,1,-5,1,1,1,42,1,-90,1,-71,1,-80,1,-71,1,-49,1
1521,-5,1,-1,1,4,1,3,1,-5,1,1,1,45,1,-88,1,-70,1,-80,1,-70,1,-48,1
1522,-4,1,0,1,4,1,2,1,-4,1,2,1,46,1,-87,1,-69,1,-79,1,-69,1,-45,1
1523,-4,1,-1,1,3,1,2,1,-4,1,1,1,47,1,-86,1,-67,1,-77,1,-68,1,-44,1
1524,-2,1,-2,1,0,1,2,1,-1,1,-1,1,48,1,-84,1,-65,1,-77,1,-67,1,-43,1
1525,-1,1,0,1,1,1,0,1,-1,1,0,1,49,1,-84,1,-63,1,-77,1,-67,1,-43,1
1526,-1,1,0,1,1,1,0,1,-1,1,0,1,48,1,-84,1,-62,1,-77,1,-68,1,-44,1
1527,0,1,1,1,1,1,0,1,0,1,1,1,48,1,-84,1,-59,1,-76,1,-67,1,-45,1
1528,0,1,3,1,3,1,-1,1,-1,1,3,1,48,1,-84,1,-57,1,-75,1,-67,1,-45,1
1529,1,1,6,1,5,1,-3,1,-2,1,6,1,47,1,-83,1,-55,1,-75,1,-66,1,-45,1
1530,2,1,6,1,4,1,-4,1,-1,1,5,1,45,1,-84,1,-54,1,-75,1,-67,1,-46,1
1531,2,1,2,1,0,1,-2,1,1,1,1,1,45,1,-84,1,-53,1,-75,1,-68,1,-48,1
1532,2,1,1,1,-1,1,-1,1,2,1,0,1,45,1,-83,1,-52,1,-74,1,-67,1,-48,1
1533,2,1,0,1,-2,1,-1,1,2,1,-1,1,46,1,-81,1,-50,1,-72,1,-66,1,-49,1
1534,1,1,1,1,0,1,-1,1,1,1,1,1,47,1,-80,1,-49,1,-72,1,-66,1,-48,1
1535,2,1,3,1,1,1,-2,1,1,1,2,1,48,1,-80,1,-47,1,-72,1,-66,1,-47,1
1536,2,1,6,1,4,1,-4,1,-1,1,5,1,48,1,-80,1,-46,1,-72,1,-65,1,-46,1
1537,3,1,10,1,7,1,-6,1,-2,1,9,1,49,1,-79,1,-45,1,-71,1,-65,1,-45,1
1538,5,1,14,1,9,1,-9,1,-2,1,12,1,50,1,-78,1,-44,1,-69,1,-64,1,-43,1
1539,6,1,15,1,9,1,-10,1,-1,1,12,1,49,1,-79,1,-42,1,-68,1,-64,1,-43,1
1540,8,1,14,1,6,1,-11,1,1,1,10,1,48,1,-79,1,-40,1,-67,1,-63,1,-43,1
1541,8,1,13,1,5,1,-10,1,2,1,9,1,48,1,-79,1,-38,1,-66,1,-62,1,-42,1
1542,8,1,14,1,6,1,-11,1,1,1,10,1,47,1,-77,1,-36,1,-65,1,-62,1,-42,1
1543,9,1,15,1,6,1,-12,1,2,1,11,1,47,1,-77,1,-34,1,-64,1,-61,1,-42,1
1544,10,1,15,1,5,1,-12,1,3,1,10,1,46,1,-77,1,-33,1,-63,1,-61,1,-44,1
1545,14,1,17,1,3,1,-15,1,6,1,10,1,46,1,-76,1,-30,1,-61,1,-59,1,-44,1
1546,16,1,20,1,4,1,-18,1,6,1,12,1,46,1,-74,1,-27,1,-59,1,-57,1,-42,1
1547,17,1,23,1,6,1,-20,1,6,1,15,1,47,1,-73,1,-23,1,-55,1,-54,1,-41,1
1548,19,1,23,1,4,1,-21,1,8,1,14,1,47,1,-71,1,-19,1,-52,1,-52,1,-41,1
1549,17,1,21,1,4,1,-19,1,7,1,13,1,47,1,-70,1,-16,1,-51,1,-51,1,-41,1
1550,14,1,18,1,4,1,-16,1,5,1,11,1,47,1,-69,1,-13,1,-48,1,-49,1,-42,1
1551,15,1,18,1,3,1,-16,1,6,1,11,1,48,1,-67,1,-11,1,-46,1,-47,1,-40,1
1552,18,1,24,1,6,1,-21,1,6,1,15,1,51,1,-63,1,-7,1,-41,1,-44,1,-38,1
1553,21,1,26,1,5,1,-23,1,8,1,16,1,52,1,-61,1,-3,1,-36,1,-41,1,-36,1
1554,19,1,26,1,7,1,-22,1,6,1,17,1,52,1,-60,1,0,1,-33,1,-38,1,-35,1
1555,17,1,24,1,7,1,-20,1,5,1,16,1,53,1,-59,1,3,1,-30,1,-35,1,-34,1
1556,17,1,25,1,8,1,-21,1,5,1,17,1,54,1,-56,1,7,1,-26,1,-31,1,-34,1
1557,16,1,28,1,12,1,-22,1,2,1,20,1,55,1,-52,1,11,1,-21,1,-26,1,-33,1
1558,20,1,32,1,12,1,-26,1,4,1,22,1,56,1,-50,1,14,1,-15,1,-22,1,-32,1
1559,22,1,35,1,13,1,-28,1,5,1,24,1,57,1,-47,1,17,1,-10,1,-17,1,-32,1
1560,22,1,37,1,15,1,-29,1,4,1,26,1,59,1,-45,1,21,1,-6,1,-13,1,-32,1
1561,22,1,40,1,18,1,-31,1,2,1,29,1,60,1,-42,1,22,1,-2,1,-10,1,-32,1
1562,22,1,39,1,17,1,-30,1,3,1,28,1,62,1,-41,1,24,1,2,1,-7,1,-30,1
1563,20,1,39,1,19,1,-29,1,1,1,29,1,64,1,-39,1,25,1,6,1,-4,1,-29,1
1564,20,1,38,1,18,1,-29,1,1,1,28,1,65,1,-38,1,27,1,10,1,0,1,-28,1
1565,21,1,39,1,18,1,-30,1,2,1,29,1,65,1,-39,1,28,1,14,1,2,1,-27,1
1566,23,1,38,1,15,1,-30,1,4,1,27,1,65,1,-38,1,31,1,17,1,5,1,-27,1
1567,23,1,37,1,14,1,-30,1,5,1,26,1,65,1,-36,1,33,1,20,1,7,1,-27,1
1568,25,1,37,1,12,1,-31,1,7,1,25,1,66,1,-34,1,35,1,23,1,10,1,-26,1
1569,25,1,37,1,12,1,-31,1,7,1,25,1,67,1,-32,1,37,1,27,1,14,1,-26,1
1570,26,1,37,1,11,1,-31,1,8,1,24,1,67,1,-31,1,38,1,29,1,17,1,-26,1
1571,27,1,37,1,10,1,-32,1,9,1,24,1,66,1,-30,1,39,1,32,1,20,1,-26,1
1572,28,1,38,1,10,1,-33,1,9,1,24,1,66,1,-29,1,42,1,36,1,22,1,-26,1
1573,29,1,38,1,9,1,-33,1,10,1,24,1,67,1,-28,1,43,1,39,1,24,1,-26,1
1574,29,1,39,1,10,1,-34,1,10,1,25,1,68,1,-28,1,44,1,41,1,25,1,-26,1
1575,31,1,39,1,8,1,-35,1,12,1,24,1,68,1,-27,1,46,1,43,1,27,1,-26,1
1576,32,1,37,1,5,1,-34,1,14,1,21,1,68,1,-25,1,47,1,45,1,28,1,-26,1
1577,33,1,36,1,3,1,-34,1,15,1,20,1,67,1,-23,1,49,1,49,1,30,1,-24,1
1578,33,1,36,1,3,1,-34,1,15,1,20,1,67,1,-22,1,51,1,51,1,32,1,-23,1
1579,33,1,36,1,3,1,-34,1,15,1,20,1,65,1,-21,1,51,1,51,1,33,1,-23,1
1580,34,1,34,1,0,1,-34,1,17,1,17,1,64,1,-20,1,50,1,51,1,34,1,-22,1
1581,34,1,34,1,0,1,-34,1,17,1,17,1,62,1,-19,1,49,1,51,1,34,1,-22,1
1582,35,1,34,1,-1,1,-34,1,18,1,17,1,61,1,-17,1,50,1,51,1,34,1,-21,1
1583,35,1,34,1,-1,1,-34,1,18,1,17,1,60,1,-16,1,51,1,51,1,34,1,-20,1
1584,35,1,32,1,-3,1,-33,1,19,1,15,1,58,1,-16,1,51,1,49,1,32,1,-21,1
1585,36,1,30,1,-6,1,-33,1,21,1,12,1,55,1,-16,1,50,1,47,1,30,1,-22,1
1586,35,1,30,1,-5,1,-32,1,20,1,13,1,52,1,-16,1,50,1,46,1,29,1,-22,1
1587,33,1,28,1,-5,1,-30,1,19,1,12,1,50,1,-15,1,49,1,45,1,28,1,-22,1
1588,32,1,26,1,-6,1,-29,1,19,1,10,1,50,1,-15,1,48,1,43,1,26,1,-23,1
1589,33,1,24,1,-9,1,-28,1,21,1,8,1,49,1,-15,1,48,1,41,1,26,1,-22,1
1590,32,1,22,1,-10,1,-27,1,21,1,6,1,49,1,-14,1,48,1,40,1,25,1,-22,1
1591,33,1,22,1,-11,1,-27,1,22,1,6,1,48,1,-14,1,46,1,38,1,24,1,-22,1
1592,33,1,22,1,-11,1,-27,1,22,1,6,1,46,1,-12,1,45,1,37,1,23,1,-22,1
1593,34,1,20,1,-14,1,-27,1,24,1,3,1,45,1,-12,1,43,1,35,1,22,1,-22,1
1594,36,1,21,1,-15,1,-28,1,26,1,3,1,45,1,-11,1,40,1,34,1,21,1,-22,1
1595,36,1,22,1,-14,1,-29,1,25,1,4,1,45,1,-10,1,39,1,33,1,20,1,-22,1
1596,36,1,23,1,-13,1,-29,1,25,1,5,1,44,1,-9,1,37,1,32,1,19,1,-22,1
1597,37,1,24,1,-13,1,-30,1,25,1,6,1,44,1,-9,1,35,1,30,1,18,1,-21,1
1598,35,1,22,1,-13,1,-28,1,24,1,5,1,42,1,-10,1,32,1,27,1,15,1,-22,1
1599,31,1,19,1,-12,1,-25,1,22,1,4,1,41,1,-11,1,29,1,23,1,13,1,-24,1
1600,29,1,17,1,-12,1,-23,1,21,1,3,1,41,1,-12,1,27,1,21,1,11,1,-24,1
1601,29,1,16,1,-13,1,-22,1,21,1,2,1,41,1,-12,1,25,1,20,1,10,1,-23,1
1602,31,1,17,1,-14,1,-24,1,23,1,2,1,42,1,-11,1,23,1,18,1,9,1,-23,1
1603,32,1,17,1,-15,1,-24,1,24,1,1,1,42,1,-12,1,21,1,17,1,8,1,-23,1
1604,32,1,16,1,-16,1,-24,1,24,1,0,1,41,1,-12,1,20,1,16,1,6,1,-23,1
1605,32,1,15,1,-17,1,-23,1,25,1,-1,1,40,1,-13,1,19,1,14,1,6,1,-23,1
1606,32,1,16,1,-16,1,-24,1,24,1,0,1,40,1,-14,1,18,1,13,1,6,1,-22,1
1607,32,1,19,1,-13,1,-25,1,23,1,3,1,40,1,-14,1,17,1,13,1,6,1,-21,1
1608,33,1,20,1,-13,1,-26,1,23,1,4,1,39,1,-15,1,14,1,13,1,7,1,-20,1
1609,34,1,21,1,-13,1,-27,1,24,1,4,1,39,1,-14,1,12,1,12,1,7,1,-19,1
1610,36,1,24,1,-12,1,-30,1,24,1,6,1,39,1,-14,1,11,1,13,1,8,1,-17,1
1611,39,1,28,1,-11,1,-33,1,25,1,9,1,40,1,-13,1,10,1,13,1,8,1,-15,1
1612,38,1,29,1,-9,1,-33,1,24,1,10,1,40,1,-12,1,8,1,13,1,8,1,-14,1
1613,35,1,27,1,-8,1,-31,1,22,1,10,1,39,1,-13,1,5,1,11,1,7,1,-14,1
1614,32,1,24,1,-8,1,-28,1,20,1,8,1,37,1,-15,1,1,1,8,1,5,1,-15,1
1615,33,1,25,1,-8,1,-29,1,21,1,9,1,36,1,-17,1,-1,1,7,1,4,1,-15,1
1616,35,1,26,1,-9,1,-30,1,22,1,9,1,36,1,-18,1,-2,1,6,1,4,1,-14,1
1617,37,1,26,1,-11,1,-31,1,24,1,8,1,36,1,-18,1,-3,1,6,1,4,1,-12,1
1618,39,1,26,1,-13,1,-32,1,26,1,7,1,35,1,-20,1,-2,1,5,1,5,1,-10,1
1619,39,1,26,1,-13,1,-32,1,26,1,7,1,35,1,-22,1,-2,1,4,1,4,1,-10,1
1620,38,1,26,1,-12,1,-32,1,25,1,7,1,34,1,-24,1,-3,1,4,1,3,1,-9,1
1621,39,1,26,1,-13,1,-32,1,26,1,7,1,34,1,-25,1,-5,1,4,1,3,1,-8,1
1622,39,1,28,1,-11,1,-33,1,25,1,9,1,33,1,-26,1,-7,1,4,1,3,1,-7,1
1623,40,1,29,1,-11,1,-34,1,26,1,9,1,32,1,-27,1,-8,1,4,1,4,1,-6,1
1624,39,1,29,1,-10,1,-34,1,25,1,10,1,32,1,-27,1,-8,1,3,1,4,1,-4,1
1625,41,1,30,1,-11,1,-35,1,26,1,10,1,32,1,-27,1,-8,1,3,1,5,1,-3,1
1626,42,1,30,1,-12,1,-36,1,27,1,9,1,32,1,-26,1,-6,1,4,1,6,1,-1,1
1627,47,1,31,1,-16,1,-39,1,32,1,8,1,30,1,-27,1,-6,1,4,1,6,1,0,1
1628,47,1,33,1,-14,1,-40,1,31,1,10,1,28,1,-27,1,-6,1,5,1,8,1,1,1
1629,47,1,34,1,-13,1,-40,1,30,1,11,1,28,1,-28,1,-7,1,5,1,9,1,3,1
1630,47,1,34,1,-13,1,-40,1,30,1,11,1,28,1,-28,1,-7,1,5,1,10,1,4,1
1631,47,1,35,1,-12,1,-41,1,30,1,12,1,28,1,-27,1,-6,1,5,1,9,1,4,1
1632,46,1,38,1,-8,1,-42,1,27,1,15,1,27,1,-26,1,-7,1,6,1,9,1,4,1
1633,44,1,37,1,-7,1,-40,1,26,1,15,1,26,1,-26,1,-8,1,6,1,9,1,4,1
1634,45,1,39,1,-6,1,-42,1,26,1,17,1,25,1,-26,1,-8,1,7,1,9,1,4,1
1635,43,1,38,1,-5,1,-40,1,24,1,17,1,23,1,-26,1,-9,1,5,1,8,1,3,1
1636,40,1,37,1,-3,1,-38,1,22,1,17,1,21,1,-27,1,-10,1,5,1,7,1,3,1
1637,39,1,37,1,-2,1,-38,1,21,1,18,1,18,1,-28,1,-12,1,4,1,7,1,2,1
1638,37,1,36,1,-1,1,-36,1,19,1,18,1,17,1,-28,1,-14,1,2,1,8,1,1,1
1639,35,1,35,1,0,1,-35,1,18,1,18,1,16,1,-29,1,-16,1,1,1,7,1,1,1
1640,33,1,36,1,3,1,-34,1,15,1,20,1,15,1,-29,1,-17,1,1,1,7,1,1,1
1641,33,1,37,1,4,1,-35,1,15,1,21,1,14,1,-28,1,-18,1,1,1,6,1,2,1
1642,33,1,37,1,4,1,-35,1,15,1,21,1,13,1,-28,1,-18,1,2,1,6,1,3,1
1643,34,1,37,1,3,1,-35,1,16,1,20,1,12,1,-29,1,-18,1,2,1,5,1,3,1
1644,35,1,37,1,2,1,-36,1,17,1,20,1,10,1,-29,1,-18,1,2,1,4,1,3,1
1645,36,1,36,1,0,1,-36,1,18,1,18,1,10,1,-30,1,-18,1,1,1,3,1,3,1
1646,34,1,34,1,0,1,-34,1,17,1,17,1,9,1,-29,1,-18,1,0,1,2,1,2,1
1647,33,1,32,1,-1,1,-32,1,17,1,16,1,9,1,-29,1,-19,1,-1,1,2,1,1,1
1648,32,1,32,1,0,1,-32,1,16,1,16,1,9,1,-29,1,-21,1,-3,1,2,1,1,1
1649,31,1,31,1,0,1,-31,1,16,1,16,1,10,1,-29,1,-22,1,-4,1,2,1,1,1
1650,31,1,30,1,-1,1,-30,1,16,1,15,1,8,1,-30,1,-23,1,-5,1,1,1,0,1
1651,31,1,29,1,-2,1,-30,1,17,1,14,1,8,1,-30,1,-25,1,-6,1,0,1,0,1
1652,32,1,30,1,-2,1,-31,1,17,1,14,1,7,1,-30,1,-27,1,-6,1,-1,1,0,1
1653,32,1,29,1,-3,1,-30,1,18,1,13,1,6,1,-30,1,-28,1,-7,1,-2,1,-1,1
1654,32,1,29,1,-3,1,-30,1,18,1,13,1,6,1,-30,1,-29,1,-8,1,-4,1,-1,1
1655,31,1,28,1,-3,1,-29,1,17,1,13,1,6,1,-30,1,-30,1,-10,1,-6,1,-1,1
1656,31,1,28,1,-3,1,-29,1,17,1,13,1,6,1,-29,1,-31,1,-11,1,-7,1,-2,1
1657,29,1,28,1,-1,1,-28,1,15,1,14,1,6,1,-28,1,-30,1,-11,1,-6,1,-2,1
1658,27,1,28,1,1,1,-27,1,13,1,15,1,6,1,-27,1,-30,1,-11,1,-5,1,-2,1
1659,25,1,30,1,5,1,-27,1,10,1,18,1,6,1,-25,1,-27,1,-9,1,-5,1,-2,1
1660,22,1,31,1,9,1,-26,1,7,1,20,1,6,1,-22,1,-24,1,-7,1,-5,1,-3,1
1661,18,1,31,1,13,1,-24,1,3,1,22,1,10,1,-15,1,-17,1,-4,1,-6,1,-5,1
1662,14,1,31,1,17,1,-22,1,-1,1,24,1,16,1,-5,1,-6,1,0,1,-7,1,-7,1
1663,10,1,31,1,21,1,-20,1,-5,1,26,1,23,1,10,1,10,1,10,1,-5,1,-9,1
1664,5,1,32,1,27,1,-18,1,-11,1,30,1,31,1,29,1,32,1,25,1,0,1,-11,1
1665,0,1,34,1,34,1,-17,1,-17,1,34,1,39,1,51,1,62,1,50,1,14,1,-9,1
1666,-6,1,38,1,44,1,-16,1,-25,1,41,1,51,1,80,1,100,1,83,1,35,1,-6,1
1667,-10,1,42,1,52,1,-16,1,-31,1,47,1,65,1,113,1,146,1,127,1,64,1,-1,1
1668,-12,1,47,1,59,1,-17,1,-35,1,53,1,81,1,149,1,196,1,179,1,100,1,6,1
1669,-11,1,52,1,63,1,-20,1,-37,1,57,1,96,1,190,1,252,1,238,1,144,1,17,1
1670,-7,1,59,1,66,1,-26,1,-36,1,62,1,111,1,236,1,314,1,302,1,191,1,29,1
1671,0,1,66,1,66,1,-33,1,-33,1,66,1,122,1,285,1,378,1,364,1,234,1,38,1
1672,6,1,72,1,66,1,-39,1,-30,1,69,1,132,1,338,1,446,1,429,1,277,1,48,1
1673,16,1,81,1,65,1,-48,1,-24,1,73,1,140,1,393,1,518,1,496,1,322,1,60,1
1674,30,1,92,1,62,1,-61,1,-16,1,77,1,147,1,450,1,591,1,565,1,370,1,74,1
1675,46,1,107,1,61,1,-76,1,-7,1,84,1,151,1,505,1,663,1,633,1,418,1,90,1
1676,63,1,120,1,57,1,-91,1,3,1,89,1,153,1,563,1,738,1,699,1,463,1,104,1
1677,84,1,130,1,46,1,-107,1,19,1,88,1,155,1,623,1,809,1,759,1,504,1,117,1
1678,107,1,135,1,28,1,-121,1,40,1,82,1,155,1,678,1,871,1,808,1,540,1,129,1
1679,129,1,135,1,6,1,-132,1,62,1,71,1,151,1,724,1,915,1,839,1,563,1,137,1
1680,145,1,127,1,-18,1,-136,1,82,1,55,1,142,1,751,1,927,1,836,1,561,1,140,1
1681,149,1,112,1,-37,1,-130,1,93,1,38,1,128,1,744,1,885,1,767,1,497,1,124,1
1682,139,1,85,1,-54,1,-112,1,97,1,16,1,114,1,701,1,774,1,599,1,337,1,70,1
1683,120,1,46,1,-74,1,-83,1,97,1,-14,1,102,1,633,1,611,1,367,1,133,1,0,1
1684,98,1,6,1,-92,1,-52,1,95,1,-43,1,92,1,546,1,426,1,147,1,-43,1,-65,1
1685,74,1,-23,1,-97,1,-25,1,85,1,-60,1,79,1,450,1,252,1,-22,1,-161,1,-105,1
1686,53,1,-38,1,-91,1,-7,1,72,1,-64,1,64,1,352,1,99,1,-143,1,-231,1,-125,1
1687,37,1,-48,1,-85,1,5,1,61,1,-66,1,49,1,259,1,-24,1,-221,1,-266,1,-133,1
1688,21,1,-58,1,-79,1,18,1,50,1,-68,1,38,1,178,1,-118,1,-267,1,-278,1,-134,1
1689,8,1,-63,1,-71,1,27,1,39,1,-67,1,33,1,114,1,-179,1,-286,1,-274,1,-128,1
1690,0,1,-60,1,-60,1,30,1,30,1,-60,1,27,1,56,1,-214,1,-287,1,-258,1,-116,1
1691,-2,1,-53,1,-51,1,27,1,24,1,-52,1,16,1,0,1,-237,1,-277,1,-234,1,-99,1
1692,-3,1,-44,1,-41,1,23,1,19,1,-43,1,2,1,-41,1,-243,1,-256,1,-206,1,-80,1
1693,0,1,-36,1,-36,1,18,1,18,1,-36,1,-9,1,-70,1,-233,1,-228,1,-175,1,-60,1
1694,3,1,-27,1,-30,1,12,1,16,1,-28,1,-17,1,-87,1,-217,1,-199,1,-146,1,-41,1
1695,7,1,-20,1,-27,1,6,1,17,1,-23,1,-21,1,-95,1,-199,1,-174,1,-123,1,-26,1
1696,10,1,-14,1,-24,1,2,1,17,1,-19,1,-23,1,-101,1,-183,1,-154,1,-105,1,-16,1
1697,14,1,-8,1,-22,1,-3,1,18,1,-15,1,-26,1,-107,1,-171,1,-140,1,-93,1,-11,1
1698,17,1,-3,1,-20,1,-7,1,18,1,-11,1,-27,1,-111,1,-162,1,-129,1,-86,1,-7,1
1699,16,1,-1,1,-17,1,-7,1,16,1,-9,1,-28,1,-112,1,-155,1,-122,1,-80,1,-4,1
1700,17,1,3,1,-14,1,-10,1,16,1,-5,1,-28,1,-111,1,-149,1,-117,1,-74,1,0,1
1701,18,1,8,1,-10,1,-13,1,14,1,-1,1,-28,1,-110,1,-144,1,-111,1,-68,1,4,1
1702,20,1,14,1,-6,1,-17,1,13,1,4,1,-28,1,-108,1,-140,1,-106,1,-63,1,10,1
1703,21,1,18,1,-3,1,-19,1,12,1,8,1,-28,1,-108,1,-136,1,-101,1,-59,1,15,1
1704,21,1,19,1,-2,1,-20,1,12,1,9,1,-28,1,-107,1,-132,1,-96,1,-55,1,19,1
1705,22,1,21,1,-1,1,-21,1,12,1,10,1,-28,1,-105,1,-127,1,-92,1,-53,1,21,1
1706,21,1,22,1,1,1,-21,1,10,1,12,1,-28,1,-101,1,-123,1,-90,1,-53,1,20,1
1707,21,1,22,1,1,1,-21,1,10,1,12,1,-28,1,-99,1,-120,1,-90,1,-53,1,18,1
1708,20,1,21,1,1,1,-20,1,10,1,11,1,-27,1,-98,1,-119,1,-91,1,-55,1,17,1
1709,20,1,20,1,0,1,-20,1,10,1,10,1,-26,1,-96,1,-117,1,-92,1,-54,1,16,1
1710,19,1,20,1,1,1,-19,1,9,1,11,1,-26,1,-96,1,-117,1,-93,1,-54,1,16,1
1711,16,1,18,1,2,1,-17,1,7,1,10,1,-27,1,-95,1,-118,1,-94,1,-55,1,16,1
1712,14,1,16,1,2,1,-15,1,6,1,9,1,-27,1,-95,1,-118,1,-93,1,-55,1,16,1
1713,14,1,16,1,2,1,-15,1,6,1,9,1,-26,1,-94,1,-118,1,-92,1,-54,1,17,1
1714,12,1,17,1,5,1,-14,1,4,1,11,1,-25,1,-93,1,-117,1,-92,1,-55,1,17,1
1715,10,1,15,1,5,1,-12,1,3,1,10,1,-25,1,-92,1,-117,1,-93,1,-55,1,16,1
1716,6,1,12,1,6,1,-9,1,0,1,9,1,-26,1,-93,1,-118,1,-94,1,-57,1,15,1
1717,6,1,11,1,5,1,-8,1,1,1,8,1,-27,1,-94,1,-119,1,-94,1,-58,1,13,1
1718,5,1,10,1,5,1,-7,1,0,1,8,1,-28,1,-94,1,-118,1,-96,1,-60,1,13,1
1719,4,1,9,1,5,1,-6,1,0,1,7,1,-29,1,-93,1,-117,1,-95,1,-60,1,15,1
1720,2,1,7,1,5,1,-4,1,-1,1,6,1,-30,1,-93,1,-116,1,-95,1,-60,1,15,1
1721,1,1,5,1,4,1,-3,1,-1,1,5,1,-32,1,-92,1,-116,1,-95,1,-61,1,15,1
1722,3,1,5,1,2,1,-4,1,1,1,4,1,-32,1,-91,1,-115,1,-95,1,-60,1,17,1
1723,1,1,4,1,3,1,-2,1,-1,1,4,1,-32,1,-91,1,-114,1,-95,1,-61,1,16,1
1724,1,1,3,1,2,1,-2,1,0,1,3,1,-32,1,-91,1,-114,1,-95,1,-61,1,16,1
1725,-1,1,2,1,3,1,0,1,-2,1,2,1,-32,1,-90,1,-114,1,-96,1,-61,1,15,1
1726,-2,1,0,1,2,1,1,1,-2,1,1,1,-32,1,-90,1,-114,1,-98,1,-62,1,14,1
1727,-3,1,-2,1,1,1,2,1,-2,1,-1,1,-32,1,-91,1,-116,1,-99,1,-64,1,14,1
1728,-6,1,-4,1,2,1,5,1,-4,1,-1,1,-32,1,-91,1,-119,1,-101,1,-65,1,14,1
1729,-8,1,-4,1,4,1,6,1,-6,1,0,1,-32,1,-91,1,-122,1,-101,1,-67,1,15,1
1730,-8,1,-6,1,2,1,7,1,-5,1,-2,1,-32,1,-92,1,-126,1,-103,1,-68,1,14,1
1731,-9,1,-8,1,1,1,8,1,-5,1,-4,1,-32,1,-92,1,-128,1,-104,1,-68,1,14,1
1732,-10,1,-10,1,0,1,10,1,-5,1,-5,1,-32,1,-93,1,-130,1,-106,1,-69,1,13,1
1733,-10,1,-11,1,-1,1,10,1,-5,1,-6,1,-32,1,-94,1,-131,1,-107,1,-70,1,12,1
1734,-10,1,-12,1,-2,1,11,1,-4,1,-7,1,-33,1,-94,1,-131,1,-109,1,-72,1,11,1
1735,-11,1,-13,1,-2,1,12,1,-5,1,-8,1,-32,1,-94,1,-133,1,-110,1,-73,1,10,1
1736,-15,1,-16,1,-1,1,15,1,-7,1,-9,1,-33,1,-95,1,-135,1,-112,1,-75,1,9,1
1737,-18,1,-17,1,1,1,17,1,-10,1,-8,1,-33,1,-96,1,-137,1,-113,1,-77,1,8,1
1738,-18,1,-18,1,0,1,18,1,-9,1,-9,1,-33,1,-97,1,-136,1,-115,1,-78,1,8,1
1739,-18,1,-19,1,-1,1,18,1,-9,1,-10,1,-33,1,-98,1,-136,1,-116,1,-80,1,7,1
1740,-19,1,-21,1,-2,1,20,1,-9,1,-12,1,-34,1,-99,1,-136,1,-118,1,-82,1,6,1
1741,-19,1,-21,1,-2,1,20,1,-9,1,-12,1,-35,1,-100,1,-136,1,-120,1,-84,1,6,1
1742,-18,1,-22,1,-4,1,20,1,-7,1,-13,1,-35,1,-101,1,-136,1,-121,1,-84,1,5,1
1743,-18,1,-21,1,-3,1,19,1,-8,1,-12,1,-35,1,-102,1,-136,1,-122,1,-85,1,4,1
1744,-18,1,-21,1,-3,1,19,1,-8,1,-12,1,-36,1,-103,1,-137,1,-123,1,-86,1,4,1
1745,-20,1,-20,1,0,1,20,1,-10,1,-10,1,-37,1,-104,1,-138,1,-123,1,-87,1,4,1
1746,-21,1,-20,1,1,1,20,1,-11,1,-10,1,-38,1,-105,1,-139,1,-123,1,-88,1,5,1
1747,-22,1,-20,1,2,1,21,1,-12,1,-9,1,-40,1,-106,1,-141,1,-124,1,-89,1,4,1
1748,-20,1,-19,1,1,1,19,1,-11,1,-9,1,-41,1,-107,1,-141,1,-125,1,-91,1,5,1
1749,-20,1,-17,1,3,1,18,1,-12,1,-7,1,-41,1,-108,1,-139,1,-125,1,-91,1,5,1
1750,-21,1,-17,1,4,1,19,1,-13,1,-7,1,-42,1,-109,1,-139,1,-126,1,-92,1,4,1
