TS,I,If,II,IIf,III,IIIf,aVR,aVRf,aVL,aVLf,aVF,aVFf,V1,V1f,V2,V2f,V3,V3f,V4,V4f,V5,V5f,V6,V6f
1,0,1,-8,1,-8,1,4,1,4,1,-8,1,-40,1,-77,1,-46,1,2,1,-3,1,-77,1
2,0,1,-9,1,-9,1,4,1,4,1,-9,1,-41,1,-77,1,-46,1,2,1,-3,1,-76,1
3,1,1,-8,1,-9,1,3,1,5,1,-8,1,-41,1,-78,1,-46,1,1,1,-3,1,-76,1
4,0,1,-7,1,-7,1,3,1,3,1,-7,1,-39,1,-76,1,-46,1,1,1,-3,1,-75,1
5,0,1,-6,1,-6,1,3,1,3,1,-6,1,-38,1,-76,1,-48,1,1,1,-3,1,-74,1
6,-1,1,-5,1,-4,1,3,1,1,1,-5,1,-37,1,-75,1,-49,1,1,1,-3,1,-73,1
7,-1,1,-4,1,-3,1,2,1,1,1,-4,1,-37,1,-75,1,-51,1,1,1,-3,1,-73,1
8,0,1,-3,1,-3,1,1,1,1,1,-3,1,-35,1,-74,1,-52,1,0,1,-1,1,-74,1
9,0,1,-3,1,-3,1,1,1,1,1,-3,1,-34,1,-74,1,-53,1,2,1,0,1,-73,1
10,-1,1,-3,1,-2,1,2,1,0,1,-3,1,-33,1,-74,1,-53,1,4,1,0,1,-73,1
11,-1,1,-3,1,-2,1,2,1,0,1,-3,1,-34,1,-73,1,-53,1,5,1,0,1,-72,1
12,-1,1,-3,1,-2,1,2,1,0,1,-3,1,-33,1,-72,1,-53,1,7,1,0,1,-71,1
13,0,1,-1,1,-1,1,0,1,0,1,-1,1,-32,1,-72,1,-53,1,8,1,0,1,-71,1
14,1,1,1,1,0,1,-1,1,1,1,1,1,-30,1,-71,1,-54,1,9,1,1,1,-70,1
15,1,1,4,1,3,1,-2,1,-1,1,4,1,-29,1,-70,1,-54,1,10,1,4,1,-68,1
16,2,1,8,1,6,1,-5,1,-2,1,7,1,-27,1,-70,1,-54,1,11,1,7,1,-65,1
17,2,1,10,1,8,1,-6,1,-3,1,9,1,-25,1,-69,1,-53,1,12,1,8,1,-63,1
18,1,1,12,1,11,1,-6,1,-5,1,12,1,-23,1,-67,1,-53,1,12,1,7,1,-62,1
19,1,1,14,1,13,1,-7,1,-6,1,14,1,-20,1,-65,1,-52,1,14,1,8,1,-61,1
20,0,1,15,1,15,1,-7,1,-7,1,15,1,-20,1,-65,1,-51,1,16,1,9,1,-60,1
21,0,1,17,1,17,1,-8,1,-8,1,17,1,-18,1,-64,1,-50,1,18,1,10,1,-60,1
22,1,1,19,1,18,1,-10,1,-8,1,19,1,-18,1,-63,1,-48,1,19,1,10,1,-60,1
23,2,1,21,1,19,1,-11,1,-8,1,20,1,-17,1,-62,1,-46,1,20,1,10,1,-60,1
24,2,1,22,1,20,1,-12,1,-9,1,21,1,-17,1,-60,1,-43,1,21,1,10,1,-59,1
25,4,1,23,1,19,1,-13,1,-7,1,21,1,-20,1,-60,1,-41,1,20,1,11,1,-58,1
26,4,1,25,1,21,1,-14,1,-8,1,23,1,-23,1,-60,1,-41,1,20,1,12,1,-57,1
27,4,1,26,1,22,1,-15,1,-9,1,24,1,-28,1,-61,1,-41,1,21,1,14,1,-55,1
28,7,1,28,1,21,1,-17,1,-7,1,25,1,-32,1,-61,1,-41,1,23,1,17,1,-52,1
29,10,1,31,1,21,1,-20,1,-5,1,26,1,-37,1,-61,1,-41,1,25,1,19,1,-50,1
30,11,1,33,1,22,1,-22,1,-5,1,28,1,-42,1,-62,1,-41,1,26,1,20,1,-50,1
31,11,1,34,1,23,1,-22,1,-6,1,29,1,-47,1,-65,1,-42,1,25,1,19,1,-50,1
32,13,1,35,1,22,1,-24,1,-4,1,29,1,-53,1,-66,1,-43,1,25,1,20,1,-50,1
33,15,1,37,1,22,1,-26,1,-3,1,30,1,-57,1,-68,1,-44,1,25,1,20,1,-49,1
34,17,1,36,1,19,1,-26,1,-1,1,28,1,-60,1,-69,1,-45,1,24,1,20,1,-48,1
35,17,1,34,1,17,1,-25,1,0,1,26,1,-62,1,-71,1,-47,1,23,1,20,1,-47,1
36,16,1,32,1,16,1,-24,1,0,1,24,1,-64,1,-72,1,-48,1,22,1,20,1,-46,1
37,17,1,32,1,15,1,-24,1,1,1,24,1,-64,1,-73,1,-48,1,22,1,20,1,-45,1
38,21,1,32,1,11,1,-26,1,5,1,22,1,-64,1,-74,1,-48,1,23,1,19,1,-45,1
39,24,1,30,1,6,1,-27,1,9,1,18,1,-65,1,-75,1,-48,1,23,1,18,1,-46,1
40,26,1,29,1,3,1,-27,1,12,1,16,1,-65,1,-75,1,-47,1,23,1,18,1,-46,1
41,26,1,28,1,2,1,-27,1,12,1,15,1,-65,1,-74,1,-45,1,24,1,19,1,-45,1
42,28,1,30,1,2,1,-29,1,13,1,16,1,-65,1,-73,1,-41,1,25,1,19,1,-43,1
43,29,1,32,1,3,1,-30,1,13,1,18,1,-64,1,-73,1,-37,1,25,1,20,1,-41,1
44,30,1,33,1,3,1,-31,1,14,1,18,1,-62,1,-71,1,-32,1,27,1,22,1,-39,1
45,30,1,31,1,1,1,-30,1,15,1,16,1,-61,1,-70,1,-29,1,28,1,24,1,-36,1
46,30,1,30,1,0,1,-30,1,15,1,15,1,-60,1,-67,1,-27,1,29,1,26,1,-36,1
47,31,1,29,1,-2,1,-30,1,17,1,14,1,-58,1,-65,1,-25,1,30,1,26,1,-36,1
48,32,1,27,1,-5,1,-29,1,19,1,11,1,-56,1,-64,1,-25,1,30,1,26,1,-37,1
49,32,1,24,1,-8,1,-28,1,20,1,8,1,-55,1,-63,1,-26,1,30,1,25,1,-38,1
50,32,1,23,1,-9,1,-27,1,21,1,7,1,-52,1,-63,1,-28,1,31,1,25,1,-37,1
51,31,1,22,1,-9,1,-26,1,20,1,7,1,-51,1,-62,1,-28,1,33,1,26,1,-35,1
52,29,1,21,1,-8,1,-25,1,19,1,7,1,-49,1,-61,1,-27,1,33,1,27,1,-33,1
53,26,1,18,1,-8,1,-22,1,17,1,5,1,-47,1,-60,1,-25,1,32,1,27,1,-33,1
54,23,1,18,1,-5,1,-20,1,14,1,7,1,-45,1,-60,1,-25,1,31,1,25,1,-35,1
55,21,1,17,1,-4,1,-19,1,13,1,7,1,-45,1,-60,1,-25,1,29,1,23,1,-37,1
56,20,1,17,1,-3,1,-18,1,12,1,7,1,-46,1,-61,1,-25,1,27,1,21,1,-41,1
57,17,1,15,1,-2,1,-16,1,10,1,7,1,-44,1,-61,1,-26,1,24,1,18,1,-45,1
58,13,1,13,1,0,1,-13,1,7,1,7,1,-42,1,-61,1,-25,1,21,1,15,1,-48,1
59,10,1,11,1,1,1,-10,1,5,1,6,1,-40,1,-60,1,-23,1,19,1,13,1,-50,1
60,6,1,9,1,3,1,-7,1,2,1,6,1,-39,1,-59,1,-22,1,18,1,12,1,-52,1
61,3,1,7,1,4,1,-5,1,0,1,6,1,-39,1,-60,1,-21,1,15,1,9,1,-54,1
62,2,1,5,1,3,1,-3,1,0,1,4,1,-39,1,-61,1,-21,1,13,1,6,1,-57,1
63,0,1,2,1,2,1,-1,1,-1,1,2,1,-38,1,-62,1,-20,1,10,1,3,1,-59,1
64,0,1,-2,1,-2,1,1,1,1,1,-2,1,-36,1,-61,1,-20,1,9,1,1,1,-60,1
65,-1,1,-5,1,-4,1,3,1,1,1,-5,1,-35,1,-60,1,-19,1,8,1,0,1,-62,1
66,-1,1,-8,1,-7,1,4,1,3,1,-8,1,-36,1,-60,1,-19,1,7,1,0,1,-63,1
67,-1,1,-10,1,-9,1,5,1,4,1,-10,1,-35,1,-59,1,-18,1,7,1,-1,1,-65,1
68,-1,1,-11,1,-10,1,6,1,4,1,-11,1,-35,1,-59,1,-17,1,7,1,-1,1,-65,1
69,-2,1,-11,1,-9,1,6,1,3,1,-10,1,-35,1,-58,1,-17,1,8,1,-1,1,-64,1
70,-2,1,-12,1,-10,1,7,1,4,1,-11,1,-35,1,-59,1,-20,1,8,1,-2,1,-63,1
71,-2,1,-12,1,-10,1,7,1,4,1,-11,1,-36,1,-59,1,-22,1,8,1,-2,1,-63,1
72,-1,1,-11,1,-10,1,6,1,4,1,-11,1,-36,1,-58,1,-24,1,8,1,-2,1,-63,1
73,0,1,-11,1,-11,1,5,1,5,1,-11,1,-37,1,-58,1,-27,1,6,1,-4,1,-64,1
74,0,1,-11,1,-11,1,5,1,5,1,-11,1,-37,1,-59,1,-28,1,6,1,-5,1,-65,1
75,0,1,-12,1,-12,1,6,1,6,1,-12,1,-37,1,-59,1,-29,1,6,1,-5,1,-67,1
76,0,1,-11,1,-11,1,5,1,5,1,-11,1,-39,1,-59,1,-28,1,6,1,-5,1,-67,1
77,0,1,-10,1,-10,1,5,1,5,1,-10,1,-41,1,-59,1,-28,1,7,1,-5,1,-66,1
78,0,1,-9,1,-9,1,4,1,4,1,-9,1,-41,1,-58,1,-25,1,7,1,-5,1,-65,1
79,0,1,-8,1,-8,1,4,1,4,1,-8,1,-41,1,-57,1,-23,1,8,1,-5,1,-65,1
80,0,1,-7,1,-7,1,3,1,3,1,-7,1,-41,1,-55,1,-20,1,9,1,-5,1,-64,1
81,0,1,-7,1,-7,1,3,1,3,1,-7,1,-39,1,-52,1,-15,1,10,1,-5,1,-64,1
82,-1,1,-6,1,-5,1,3,1,2,1,-6,1,-37,1,-49,1,-10,1,12,1,-4,1,-62,1
83,-1,1,-5,1,-4,1,3,1,1,1,-5,1,-35,1,-46,1,-6,1,13,1,-3,1,-61,1
84,-4,1,-5,1,-1,1,4,1,-2,1,-3,1,-32,1,-44,1,-1,1,15,1,-2,1,-61,1
85,-8,1,-5,1,3,1,6,1,-6,1,-1,1,-28,1,-39,1,4,1,17,1,-1,1,-61,1
86,-11,1,-5,1,6,1,8,1,-9,1,0,1,-24,1,-33,1,11,1,20,1,0,1,-62,1
87,-16,1,-5,1,11,1,10,1,-14,1,3,1,-18,1,-24,1,19,1,25,1,1,1,-64,1
88,-21,1,-5,1,16,1,13,1,-19,1,5,1,-8,1,-11,1,31,1,32,1,4,1,-65,1
89,-28,1,-1,1,27,1,14,1,-28,1,13,1,3,1,1,1,45,1,41,1,9,1,-66,1
90,-35,1,4,1,39,1,15,1,-37,1,21,1,15,1,14,1,61,1,53,1,17,1,-66,1
91,-42,1,11,1,53,1,15,1,-47,1,32,1,28,1,30,1,82,1,71,1,30,1,-65,1
92,-48,1,18,1,66,1,15,1,-57,1,42,1,42,1,50,1,109,1,98,1,51,1,-61,1
93,-52,1,26,1,78,1,13,1,-65,1,52,1,58,1,76,1,148,1,140,1,84,1,-51,1
94,-54,1,32,1,86,1,11,1,-70,1,59,1,75,1,111,1,198,1,194,1,129,1,-35,1
95,-53,1,39,1,92,1,7,1,-72,1,65,1,91,1,149,1,254,1,255,1,181,1,-14,1
96,-50,1,47,1,97,1,1,1,-73,1,72,1,107,1,191,1,314,1,319,1,235,1,8,1
97,-45,1,58,1,103,1,-6,1,-74,1,80,1,122,1,235,1,377,1,388,1,292,1,33,1
98,-35,1,73,1,108,1,-19,1,-71,1,90,1,138,1,282,1,445,1,463,1,355,1,61,1
99,-21,1,90,1,111,1,-34,1,-66,1,100,1,151,1,329,1,513,1,539,1,417,1,93,1
100,-4,1,109,1,113,1,-52,1,-58,1,111,1,162,1,374,1,582,1,616,1,481,1,125,1
101,14,1,124,1,110,1,-69,1,-48,1,117,1,171,1,418,1,654,1,694,1,541,1,153,1
102,34,1,133,1,99,1,-83,1,-32,1,116,1,177,1,461,1,718,1,760,1,590,1,175,1
103,57,1,139,1,82,1,-98,1,-12,1,111,1,181,1,500,1,773,1,814,1,628,1,196,1
104,82,1,142,1,60,1,-112,1,11,1,101,1,178,1,529,1,811,1,844,1,648,1,212,1
105,105,1,141,1,36,1,-123,1,35,1,89,1,169,1,542,1,814,1,832,1,639,1,221,1
106,118,1,129,1,11,1,-123,1,54,1,70,1,160,1,538,1,773,1,762,1,581,1,207,1
107,116,1,101,1,-15,1,-108,1,66,1,43,1,154,1,516,1,673,1,604,1,423,1,136,1
108,103,1,60,1,-43,1,-81,1,73,1,9,1,154,1,482,1,531,1,385,1,200,1,27,1
109,88,1,18,1,-70,1,-53,1,79,1,-26,1,156,1,446,1,387,1,178,1,-2,1,-70,1
110,69,1,-11,1,-80,1,-29,1,74,1,-45,1,150,1,401,1,258,1,18,1,-139,1,-132,1
111,49,1,-29,1,-78,1,-10,1,63,1,-53,1,140,1,354,1,155,1,-90,1,-220,1,-167,1
112,32,1,-45,1,-77,1,6,1,54,1,-61,1,129,1,311,1,81,1,-154,1,-262,1,-187,1
113,17,1,-58,1,-75,1,20,1,46,1,-66,1,119,1,268,1,23,1,-194,1,-281,1,-199,1
114,4,1,-69,1,-73,1,32,1,38,1,-71,1,109,1,226,1,-19,1,-214,1,-283,1,-203,1
115,-6,1,-77,1,-71,1,41,1,32,1,-74,1,101,1,188,1,-45,1,-218,1,-273,1,-199,1
116,-14,1,-83,1,-69,1,48,1,27,1,-76,1,92,1,154,1,-64,1,-212,1,-255,1,-190,1
117,-18,1,-89,1,-71,1,53,1,26,1,-80,1,80,1,118,1,-80,1,-199,1,-232,1,-177,1
118,-20,1,-89,1,-69,1,54,1,24,1,-79,1,63,1,83,1,-93,1,-181,1,-203,1,-158,1
119,-22,1,-85,1,-63,1,53,1,20,1,-74,1,42,1,45,1,-105,1,-163,1,-174,1,-138,1
120,-20,1,-79,1,-59,1,49,1,19,1,-69,1,17,1,7,1,-115,1,-148,1,-151,1,-120,1
121,-18,1,-71,1,-53,1,44,1,17,1,-62,1,-1,1,-19,1,-119,1,-133,1,-132,1,-105,1
122,-16,1,-66,1,-50,1,41,1,17,1,-58,1,-12,1,-36,1,-117,1,-120,1,-117,1,-97,1
123,-14,1,-61,1,-47,1,37,1,16,1,-54,1,-18,1,-48,1,-113,1,-110,1,-108,1,-94,1
124,-13,1,-55,1,-42,1,34,1,14,1,-49,1,-22,1,-57,1,-111,1,-103,1,-102,1,-93,1
125,-12,1,-47,1,-35,1,29,1,11,1,-41,1,-27,1,-66,1,-109,1,-96,1,-94,1,-87,1
126,-10,1,-42,1,-32,1,26,1,11,1,-37,1,-31,1,-71,1,-106,1,-90,1,-86,1,-81,1
127,-9,1,-39,1,-30,1,24,1,10,1,-35,1,-33,1,-72,1,-101,1,-84,1,-78,1,-74,1
128,-9,1,-36,1,-27,1,22,1,9,1,-32,1,-33,1,-72,1,-96,1,-77,1,-70,1,-66,1
129,-10,1,-33,1,-23,1,21,1,6,1,-28,1,-35,1,-73,1,-92,1,-71,1,-63,1,-58,1
130,-11,1,-30,1,-19,1,20,1,4,1,-25,1,-38,1,-74,1,-89,1,-67,1,-59,1,-54,1
131,-12,1,-29,1,-17,1,20,1,2,1,-23,1,-40,1,-76,1,-87,1,-65,1,-59,1,-53,1
132,-11,1,-29,1,-18,1,20,1,3,1,-24,1,-41,1,-77,1,-86,1,-65,1,-62,1,-55,1
133,-12,1,-31,1,-19,1,21,1,3,1,-25,1,-41,1,-79,1,-85,1,-65,1,-63,1,-56,1
134,-12,1,-32,1,-20,1,22,1,4,1,-26,1,-41,1,-80,1,-85,1,-66,1,-63,1,-55,1
135,-12,1,-31,1,-19,1,21,1,3,1,-25,1,-41,1,-80,1,-86,1,-65,1,-61,1,-53,1
136,-10,1,-30,1,-20,1,20,1,5,1,-25,1,-41,1,-80,1,-90,1,-64,1,-59,1,-53,1
137,-10,1,-29,1,-19,1,19,1,4,1,-24,1,-40,1,-79,1,-93,1,-63,1,-57,1,-51,1
138,-10,1,-27,1,-17,1,18,1,3,1,-22,1,-39,1,-77,1,-96,1,-61,1,-56,1,-49,1
139,-9,1,-27,1,-18,1,18,1,4,1,-23,1,-39,1,-75,1,-98,1,-60,1,-56,1,-48,1
140,-9,1,-28,1,-19,1,18,1,5,1,-24,1,-39,1,-74,1,-99,1,-58,1,-55,1,-47,1
141,-9,1,-29,1,-20,1,19,1,5,1,-25,1,-39,1,-73,1,-101,1,-57,1,-56,1,-47,1
142,-8,1,-28,1,-20,1,18,1,6,1,-24,1,-40,1,-73,1,-102,1,-57,1,-57,1,-48,1
143,-9,1,-28,1,-19,1,18,1,5,1,-24,1,-40,1,-72,1,-103,1,-57,1,-57,1,-50,1
144,-10,1,-28,1,-18,1,19,1,4,1,-23,1,-39,1,-72,1,-105,1,-58,1,-58,1,-52,1
145,-9,1,-27,1,-18,1,18,1,4,1,-23,1,-39,1,-70,1,-109,1,-58,1,-58,1,-53,1
146,-9,1,-27,1,-18,1,18,1,4,1,-23,1,-38,1,-69,1,-111,1,-58,1,-58,1,-51,1
147,-8,1,-27,1,-19,1,17,1,5,1,-23,1,-38,1,-67,1,-111,1,-57,1,-57,1,-49,1
148,-8,1,-27,1,-19,1,17,1,5,1,-23,1,-38,1,-65,1,-113,1,-56,1,-55,1,-44,1
149,-8,1,-28,1,-20,1,18,1,6,1,-24,1,-37,1,-65,1,-116,1,-55,1,-53,1,-40,1
150,-9,1,-29,1,-20,1,19,1,5,1,-25,1,-37,1,-66,1,-119,1,-55,1,-53,1,-38,1
151,-9,1,-28,1,-19,1,18,1,5,1,-24,1,-36,1,-66,1,-122,1,-54,1,-53,1,-38,1
152,-9,1,-26,1,-17,1,17,1,4,1,-22,1,-36,1,-66,1,-125,1,-54,1,-54,1,-38,1
153,-9,1,-23,1,-14,1,16,1,2,1,-19,1,-36,1,-66,1,-127,1,-54,1,-55,1,-39,1
154,-9,1,-23,1,-14,1,16,1,2,1,-19,1,-35,1,-67,1,-128,1,-54,1,-55,1,-39,1
155,-9,1,-23,1,-14,1,16,1,2,1,-19,1,-34,1,-69,1,-129,1,-55,1,-56,1,-40,1
156,-8,1,-23,1,-15,1,15,1,3,1,-19,1,-34,1,-71,1,-131,1,-56,1,-58,1,-41,1
157,-7,1,-22,1,-15,1,14,1,4,1,-19,1,-34,1,-70,1,-131,1,-55,1,-57,1,-40,1
158,-7,1,-23,1,-16,1,15,1,4,1,-20,1,-34,1,-65,1,-131,1,-55,1,-58,1,-40,1
159,-7,1,-24,1,-17,1,15,1,5,1,-21,1,-34,1,-61,1,-132,1,-56,1,-59,1,-42,1
160,-7,1,-24,1,-17,1,15,1,5,1,-21,1,-34,1,-57,1,-132,1,-56,1,-60,1,-43,1
161,-8,1,-23,1,-15,1,15,1,3,1,-19,1,-35,1,-57,1,-133,1,-57,1,-61,1,-44,1
162,-7,1,-24,1,-17,1,15,1,5,1,-21,1,-36,1,-55,1,-132,1,-59,1,-61,1,-44,1
163,-7,1,-24,1,-17,1,15,1,5,1,-21,1,-36,1,-53,1,-130,1,-60,1,-59,1,-43,1
164,-7,1,-23,1,-16,1,15,1,4,1,-20,1,-35,1,-52,1,-128,1,-60,1,-58,1,-42,1
165,-8,1,-23,1,-15,1,15,1,3,1,-19,1,-36,1,-52,1,-127,1,-60,1,-57,1,-41,1
166,-9,1,-23,1,-14,1,16,1,2,1,-19,1,-35,1,-51,1,-126,1,-60,1,-58,1,-39,1
167,-10,1,-24,1,-14,1,17,1,2,1,-19,1,-35,1,-51,1,-127,1,-60,1,-59,1,-39,1
168,-9,1,-23,1,-14,1,16,1,2,1,-19,1,-35,1,-50,1,-128,1,-60,1,-61,1,-40,1
169,-8,1,-21,1,-13,1,14,1,2,1,-17,1,-35,1,-50,1,-128,1,-61,1,-61,1,-40,1
170,-6,1,-19,1,-13,1,12,1,3,1,-16,1,-37,1,-51,1,-128,1,-61,1,-61,1,-40,1
171,-6,1,-19,1,-13,1,12,1,3,1,-16,1,-38,1,-51,1,-128,1,-60,1,-62,1,-40,1
172,-7,1,-19,1,-12,1,13,1,2,1,-16,1,-38,1,-49,1,-128,1,-60,1,-61,1,-39,1
173,-7,1,-19,1,-12,1,13,1,2,1,-16,1,-38,1,-48,1,-126,1,-59,1,-60,1,-38,1
174,-8,1,-20,1,-12,1,14,1,2,1,-16,1,-37,1,-47,1,-125,1,-59,1,-60,1,-38,1
175,-9,1,-21,1,-12,1,15,1,1,1,-17,1,-36,1,-45,1,-123,1,-59,1,-61,1,-38,1
176,-9,1,-22,1,-13,1,15,1,2,1,-18,1,-35,1,-45,1,-121,1,-60,1,-63,1,-39,1
177,-8,1,-22,1,-14,1,15,1,3,1,-18,1,-34,1,-45,1,-118,1,-60,1,-65,1,-41,1
178,-8,1,-20,1,-12,1,14,1,2,1,-16,1,-34,1,-45,1,-114,1,-60,1,-65,1,-43,1
179,-7,1,-19,1,-12,1,13,1,2,1,-16,1,-34,1,-45,1,-111,1,-60,1,-65,1,-42,1
180,-7,1,-18,1,-11,1,12,1,2,1,-15,1,-35,1,-46,1,-109,1,-61,1,-65,1,-41,1
181,-6,1,-18,1,-12,1,12,1,3,1,-15,1,-35,1,-45,1,-108,1,-62,1,-64,1,-39,1
182,-7,1,-19,1,-12,1,13,1,2,1,-16,1,-34,1,-44,1,-106,1,-62,1,-64,1,-37,1
183,-8,1,-21,1,-13,1,14,1,2,1,-17,1,-33,1,-43,1,-104,1,-62,1,-64,1,-37,1
184,-8,1,-20,1,-12,1,14,1,2,1,-16,1,-33,1,-43,1,-101,1,-63,1,-64,1,-38,1
185,-7,1,-18,1,-11,1,12,1,2,1,-15,1,-33,1,-43,1,-98,1,-64,1,-64,1,-39,1
186,-8,1,-17,1,-9,1,12,1,0,1,-13,1,-34,1,-43,1,-97,1,-65,1,-66,1,-39,1
187,-8,1,-17,1,-9,1,12,1,0,1,-13,1,-35,1,-44,1,-96,1,-66,1,-67,1,-38,1
188,-8,1,-16,1,-8,1,12,1,0,1,-12,1,-34,1,-42,1,-94,1,-66,1,-68,1,-38,1
189,-9,1,-17,1,-8,1,13,1,-1,1,-13,1,-33,1,-42,1,-93,1,-65,1,-67,1,-37,1
190,-8,1,-18,1,-10,1,13,1,1,1,-14,1,-33,1,-42,1,-93,1,-65,1,-67,1,-37,1
191,-8,1,-18,1,-10,1,13,1,1,1,-14,1,-35,1,-42,1,-93,1,-65,1,-68,1,-37,1
192,-8,1,-18,1,-10,1,13,1,1,1,-14,1,-34,1,-41,1,-93,1,-65,1,-70,1,-37,1
193,-8,1,-16,1,-8,1,12,1,0,1,-12,1,-34,1,-40,1,-93,1,-65,1,-71,1,-38,1
194,-8,1,-15,1,-7,1,11,1,-1,1,-11,1,-32,1,-39,1,-94,1,-66,1,-73,1,-38,1
195,-9,1,-14,1,-5,1,11,1,-2,1,-10,1,-32,1,-39,1,-95,1,-66,1,-74,1,-37,1
196,-8,1,-14,1,-6,1,11,1,-1,1,-10,1,-31,1,-38,1,-95,1,-67,1,-74,1,-36,1
197,-8,1,-14,1,-6,1,11,1,-1,1,-10,1,-30,1,-37,1,-95,1,-67,1,-74,1,-35,1
198,-6,1,-14,1,-8,1,10,1,1,1,-11,1,-29,1,-37,1,-94,1,-68,1,-74,1,-35,1
199,-6,1,-13,1,-7,1,9,1,0,1,-10,1,-30,1,-38,1,-94,1,-69,1,-76,1,-37,1
200,-7,1,-12,1,-5,1,9,1,-1,1,-9,1,-30,1,-39,1,-93,1,-69,1,-77,1,-36,1
201,-8,1,-12,1,-4,1,10,1,-2,1,-8,1,-30,1,-38,1,-93,1,-70,1,-78,1,-37,1
202,-8,1,-13,1,-5,1,10,1,-2,1,-9,1,-30,1,-36,1,-94,1,-70,1,-79,1,-37,1
203,-8,1,-13,1,-5,1,10,1,-2,1,-9,1,-30,1,-37,1,-95,1,-70,1,-78,1,-37,1
204,-8,1,-15,1,-7,1,11,1,-1,1,-11,1,-29,1,-37,1,-96,1,-70,1,-79,1,-37,1
205,-7,1,-13,1,-6,1,10,1,-1,1,-10,1,-29,1,-37,1,-96,1,-72,1,-81,1,-37,1
206,-7,1,-11,1,-4,1,9,1,-2,1,-8,1,-28,1,-37,1,-96,1,-73,1,-82,1,-36,1
207,-7,1,-10,1,-3,1,8,1,-2,1,-7,1,-26,1,-36,1,-95,1,-73,1,-82,1,-36,1
208,-7,1,-10,1,-3,1,8,1,-2,1,-7,1,-25,1,-35,1,-94,1,-73,1,-82,1,-36,1
209,-8,1,-10,1,-2,1,9,1,-3,1,-6,1,-24,1,-35,1,-94,1,-73,1,-83,1,-36,1
210,-10,1,-10,1,0,1,10,1,-5,1,-5,1,-24,1,-36,1,-93,1,-73,1,-83,1,-36,1
211,-11,1,-10,1,1,1,10,1,-6,1,-5,1,-25,1,-36,1,-93,1,-73,1,-84,1,-37,1
212,-9,1,-8,1,1,1,8,1,-5,1,-4,1,-26,1,-36,1,-92,1,-74,1,-86,1,-37,1
213,-9,1,-8,1,1,1,8,1,-5,1,-4,1,-27,1,-35,1,-90,1,-74,1,-87,1,-37,1
214,-9,1,-9,1,0,1,9,1,-5,1,-5,1,-26,1,-35,1,-90,1,-74,1,-88,1,-38,1
215,-9,1,-9,1,0,1,9,1,-5,1,-5,1,-26,1,-36,1,-90,1,-76,1,-89,1,-39,1
216,-10,1,-8,1,2,1,9,1,-6,1,-3,1,-25,1,-37,1,-91,1,-78,1,-91,1,-41,1
217,-10,1,-6,1,4,1,8,1,-7,1,-1,1,-25,1,-38,1,-93,1,-78,1,-92,1,-41,1
218,-12,1,-5,1,7,1,8,1,-10,1,1,1,-24,1,-39,1,-94,1,-78,1,-91,1,-41,1
219,-12,1,-5,1,7,1,8,1,-10,1,1,1,-24,1,-40,1,-95,1,-78,1,-90,1,-41,1
220,-12,1,-5,1,7,1,8,1,-10,1,1,1,-24,1,-41,1,-96,1,-77,1,-89,1,-39,1
221,-13,1,-6,1,7,1,9,1,-10,1,0,1,-24,1,-41,1,-98,1,-76,1,-89,1,-38,1
222,-13,1,-5,1,8,1,9,1,-11,1,1,1,-24,1,-41,1,-98,1,-75,1,-88,1,-37,1
223,-13,1,-4,1,9,1,8,1,-11,1,2,1,-25,1,-41,1,-98,1,-75,1,-87,1,-37,1
224,-12,1,-2,1,10,1,7,1,-11,1,4,1,-24,1,-41,1,-97,1,-74,1,-86,1,-38,1
225,-12,1,0,1,12,1,6,1,-12,1,6,1,-24,1,-43,1,-98,1,-74,1,-86,1,-39,1
226,-12,1,1,1,13,1,5,1,-12,1,7,1,-23,1,-44,1,-98,1,-74,1,-85,1,-38,1
227,-12,1,1,1,13,1,5,1,-12,1,7,1,-22,1,-44,1,-97,1,-72,1,-83,1,-38,1
228,-12,1,3,1,15,1,4,1,-13,1,9,1,-21,1,-44,1,-95,1,-70,1,-81,1,-36,1
229,-13,1,5,1,18,1,4,1,-15,1,11,1,-20,1,-44,1,-93,1,-67,1,-79,1,-36,1
230,-13,1,8,1,21,1,2,1,-17,1,14,1,-20,1,-44,1,-92,1,-65,1,-77,1,-37,1
231,-12,1,9,1,21,1,1,1,-16,1,15,1,-21,1,-44,1,-90,1,-63,1,-75,1,-35,1
232,-12,1,10,1,22,1,1,1,-17,1,16,1,-22,1,-44,1,-88,1,-61,1,-73,1,-33,1
233,-12,1,10,1,22,1,1,1,-17,1,16,1,-23,1,-45,1,-85,1,-58,1,-70,1,-29,1
234,-11,1,10,1,21,1,0,1,-16,1,15,1,-24,1,-45,1,-81,1,-55,1,-65,1,-25,1
235,-12,1,10,1,22,1,1,1,-17,1,16,1,-24,1,-45,1,-78,1,-52,1,-61,1,-21,1
236,-11,1,10,1,21,1,0,1,-16,1,15,1,-24,1,-45,1,-74,1,-49,1,-57,1,-19,1
237,-10,1,12,1,22,1,-1,1,-16,1,17,1,-24,1,-46,1,-71,1,-45,1,-53,1,-17,1
238,-10,1,14,1,24,1,-2,1,-17,1,19,1,-24,1,-46,1,-68,1,-39,1,-48,1,-14,1
239,-8,1,16,1,24,1,-4,1,-16,1,20,1,-24,1,-47,1,-66,1,-35,1,-43,1,-12,1
240,-7,1,17,1,24,1,-5,1,-15,1,20,1,-26,1,-49,1,-65,1,-32,1,-38,1,-10,1
241,-6,1,19,1,25,1,-6,1,-15,1,22,1,-27,1,-49,1,-62,1,-28,1,-34,1,-8,1
242,-6,1,21,1,27,1,-7,1,-16,1,24,1,-27,1,-50,1,-60,1,-24,1,-30,1,-5,1
243,-5,1,22,1,27,1,-8,1,-16,1,24,1,-28,1,-51,1,-58,1,-21,1,-27,1,-3,1
244,-4,1,24,1,28,1,-10,1,-16,1,26,1,-29,1,-51,1,-56,1,-17,1,-23,1,-1,1
245,-3,1,26,1,29,1,-11,1,-16,1,27,1,-29,1,-51,1,-54,1,-13,1,-18,1,1,1
246,-2,1,28,1,30,1,-13,1,-16,1,29,1,-30,1,-51,1,-52,1,-9,1,-15,1,4,1
247,-1,1,29,1,30,1,-14,1,-15,1,29,1,-29,1,-50,1,-50,1,-4,1,-11,1,6,1
248,-1,1,28,1,29,1,-13,1,-15,1,28,1,-29,1,-48,1,-48,1,0,1,-7,1,8,1
249,0,1,26,1,26,1,-13,1,-13,1,26,1,-28,1,-47,1,-46,1,4,1,-4,1,9,1
250,0,1,25,1,25,1,-12,1,-12,1,25,1,-28,1,-46,1,-44,1,9,1,1,1,11,1
251,1,1,25,1,24,1,-13,1,-11,1,25,1,-28,1,-45,1,-42,1,14,1,6,1,14,1
252,2,1,25,1,23,1,-13,1,-10,1,24,1,-28,1,-44,1,-40,1,19,1,9,1,17,1
253,3,1,24,1,21,1,-13,1,-9,1,23,1,-29,1,-43,1,-38,1,23,1,12,1,19,1
254,4,1,25,1,21,1,-14,1,-8,1,23,1,-29,1,-42,1,-36,1,27,1,15,1,21,1
255,4,1,25,1,21,1,-14,1,-8,1,23,1,-29,1,-41,1,-35,1,30,1,18,1,22,1
256,4,1,25,1,21,1,-14,1,-8,1,23,1,-29,1,-40,1,-33,1,34,1,20,1,24,1
257,4,1,26,1,22,1,-15,1,-9,1,24,1,-28,1,-38,1,-30,1,37,1,22,1,25,1
258,5,1,27,1,22,1,-16,1,-8,1,25,1,-28,1,-36,1,-27,1,40,1,24,1,27,1
259,6,1,27,1,21,1,-16,1,-7,1,24,1,-27,1,-35,1,-25,1,43,1,26,1,29,1
260,6,1,27,1,21,1,-16,1,-7,1,24,1,-27,1,-34,1,-25,1,45,1,28,1,29,1
261,7,1,27,1,20,1,-17,1,-6,1,24,1,-28,1,-34,1,-24,1,46,1,29,1,30,1
262,8,1,26,1,18,1,-17,1,-5,1,22,1,-28,1,-33,1,-23,1,48,1,31,1,31,1
263,7,1,24,1,17,1,-15,1,-5,1,21,1,-28,1,-32,1,-25,1,48,1,31,1,31,1
264,9,1,25,1,16,1,-17,1,-3,1,21,1,-26,1,-30,1,-26,1,49,1,33,1,33,1
265,10,1,25,1,15,1,-17,1,-2,1,20,1,-25,1,-29,1,-27,1,50,1,35,1,35,1
266,8,1,23,1,15,1,-15,1,-3,1,19,1,-25,1,-29,1,-29,1,51,1,35,1,36,1
267,7,1,21,1,14,1,-14,1,-3,1,18,1,-26,1,-28,1,-31,1,50,1,34,1,37,1
268,7,1,20,1,13,1,-13,1,-3,1,17,1,-25,1,-28,1,-32,1,50,1,34,1,38,1
269,8,1,20,1,12,1,-14,1,-2,1,16,1,-25,1,-27,1,-32,1,51,1,35,1,38,1
270,8,1,19,1,11,1,-13,1,-1,1,15,1,-25,1,-26,1,-34,1,51,1,34,1,37,1
271,7,1,17,1,10,1,-12,1,-1,1,14,1,-24,1,-25,1,-34,1,50,1,31,1,37,1
272,7,1,15,1,8,1,-11,1,0,1,12,1,-22,1,-24,1,-35,1,49,1,31,1,37,1
273,8,1,14,1,6,1,-11,1,1,1,10,1,-20,1,-23,1,-34,1,49,1,31,1,38,1
274,8,1,14,1,6,1,-11,1,1,1,10,1,-18,1,-22,1,-34,1,49,1,30,1,39,1
275,8,1,14,1,6,1,-11,1,1,1,10,1,-18,1,-23,1,-36,1,49,1,29,1,39,1
276,8,1,13,1,5,1,-10,1,2,1,9,1,-18,1,-22,1,-37,1,48,1,28,1,38,1
277,9,1,13,1,4,1,-11,1,3,1,9,1,-18,1,-21,1,-36,1,47,1,27,1,37,1
278,8,1,11,1,3,1,-9,1,3,1,7,1,-18,1,-20,1,-35,1,46,1,25,1,37,1
279,7,1,10,1,3,1,-8,1,2,1,7,1,-18,1,-17,1,-34,1,46,1,24,1,36,1
280,6,1,10,1,4,1,-8,1,1,1,7,1,-18,1,-13,1,-33,1,45,1,24,1,36,1
281,5,1,9,1,4,1,-7,1,1,1,7,1,-18,1,-12,1,-32,1,45,1,24,1,36,1
282,5,1,9,1,4,1,-7,1,1,1,7,1,-17,1,-11,1,-31,1,44,1,23,1,36,1
283,5,1,9,1,4,1,-7,1,1,1,7,1,-18,1,-11,1,-31,1,43,1,21,1,35,1
284,5,1,9,1,4,1,-7,1,1,1,7,1,-17,1,-9,1,-31,1,41,1,18,1,34,1
285,7,1,10,1,3,1,-8,1,2,1,7,1,-18,1,-8,1,-31,1,40,1,17,1,34,1
286,8,1,11,1,3,1,-9,1,3,1,7,1,-19,1,-7,1,-30,1,39,1,17,1,33,1
287,7,1,10,1,3,1,-8,1,2,1,7,1,-19,1,-6,1,-29,1,38,1,17,1,33,1
288,6,1,8,1,2,1,-7,1,2,1,5,1,-18,1,-4,1,-29,1,38,1,16,1,34,1
289,7,1,8,1,1,1,-7,1,3,1,5,1,-19,1,-4,1,-30,1,36,1,16,1,34,1
290,8,1,8,1,0,1,-8,1,4,1,4,1,-19,1,-5,1,-31,1,36,1,15,1,35,1
291,7,1,7,1,0,1,-7,1,4,1,4,1,-19,1,-5,1,-33,1,36,1,15,1,36,1
292,7,1,6,1,-1,1,-6,1,4,1,3,1,-18,1,-5,1,-35,1,36,1,16,1,35,1
293,7,1,4,1,-3,1,-5,1,5,1,1,1,-17,1,-5,1,-36,1,35,1,15,1,35,1
294,7,1,4,1,-3,1,-5,1,5,1,1,1,-17,1,-5,1,-37,1,36,1,16,1,37,1
295,7,1,4,1,-3,1,-5,1,5,1,1,1,-17,1,-5,1,-38,1,35,1,16,1,38,1
296,6,1,4,1,-2,1,-5,1,4,1,1,1,-16,1,-4,1,-40,1,35,1,17,1,40,1
297,6,1,3,1,-3,1,-4,1,5,1,0,1,-16,1,-5,1,-42,1,35,1,17,1,38,1
298,6,1,3,1,-3,1,-4,1,5,1,0,1,-15,1,-4,1,-45,1,35,1,16,1,38,1
299,6,1,4,1,-2,1,-5,1,4,1,1,1,-15,1,-4,1,-47,1,33,1,14,1,38,1
300,6,1,4,1,-2,1,-5,1,4,1,1,1,-15,1,-5,1,-49,1,33,1,13,1,38,1
301,7,1,4,1,-3,1,-5,1,5,1,1,1,-15,1,-6,1,-50,1,33,1,13,1,38,1
302,7,1,5,1,-2,1,-6,1,5,1,2,1,-15,1,-6,1,-49,1,33,1,13,1,38,1
303,9,1,6,1,-3,1,-7,1,6,1,2,1,-16,1,-6,1,-50,1,33,1,13,1,38,1
304,9,1,5,1,-4,1,-7,1,7,1,1,1,-16,1,-7,1,-50,1,33,1,12,1,38,1
305,8,1,5,1,-3,1,-6,1,6,1,1,1,-16,1,-7,1,-49,1,34,1,12,1,39,1
306,9,1,6,1,-3,1,-7,1,6,1,2,1,-16,1,-8,1,-47,1,34,1,13,1,39,1
307,8,1,6,1,-2,1,-7,1,5,1,2,1,-16,1,-8,1,-46,1,34,1,12,1,38,1
308,7,1,5,1,-2,1,-6,1,5,1,2,1,-16,1,-7,1,-45,1,34,1,11,1,37,1
309,7,1,5,1,-2,1,-6,1,5,1,2,1,-15,1,-7,1,-44,1,33,1,11,1,37,1
310,6,1,4,1,-2,1,-5,1,4,1,1,1,-14,1,-7,1,-43,1,33,1,11,1,37,1
311,5,1,3,1,-2,1,-4,1,4,1,1,1,-14,1,-7,1,-41,1,32,1,10,1,37,1
312,6,1,4,1,-2,1,-5,1,4,1,1,1,-14,1,-7,1,-41,1,32,1,10,1,38,1
313,7,1,4,1,-3,1,-5,1,5,1,1,1,-14,1,-8,1,-40,1,31,1,9,1,38,1
314,6,1,4,1,-2,1,-5,1,4,1,1,1,-15,1,-8,1,-40,1,30,1,9,1,38,1
315,6,1,4,1,-2,1,-5,1,4,1,1,1,-15,1,-9,1,-39,1,30,1,8,1,38,1
316,6,1,4,1,-2,1,-5,1,4,1,1,1,-15,1,-9,1,-39,1,29,1,8,1,38,1
317,6,1,3,1,-3,1,-4,1,5,1,0,1,-13,1,-9,1,-39,1,29,1,8,1,38,1
318,6,1,4,1,-2,1,-5,1,4,1,1,1,-13,1,-9,1,-38,1,29,1,8,1,37,1
319,6,1,4,1,-2,1,-5,1,4,1,1,1,-12,1,-10,1,-37,1,29,1,9,1,38,1
320,6,1,4,1,-2,1,-5,1,4,1,1,1,-12,1,-10,1,-36,1,30,1,9,1,38,1
321,5,1,3,1,-2,1,-4,1,4,1,1,1,-12,1,-11,1,-35,1,30,1,9,1,39,1
322,5,1,3,1,-2,1,-4,1,4,1,1,1,-12,1,-12,1,-33,1,30,1,9,1,39,1
323,5,1,2,1,-3,1,-3,1,4,1,0,1,-11,1,-12,1,-31,1,30,1,8,1,39,1
324,6,1,1,1,-5,1,-3,1,6,1,-2,1,-10,1,-12,1,-30,1,30,1,8,1,39,1
325,6,1,0,1,-6,1,-3,1,6,1,-3,1,-10,1,-13,1,-30,1,29,1,8,1,40,1
326,6,1,1,1,-5,1,-3,1,6,1,-2,1,-10,1,-13,1,-29,1,29,1,8,1,40,1
327,6,1,2,1,-4,1,-4,1,5,1,-1,1,-9,1,-13,1,-27,1,29,1,8,1,40,1
328,5,1,2,1,-3,1,-3,1,4,1,0,1,-10,1,-13,1,-25,1,28,1,8,1,41,1
329,5,1,2,1,-3,1,-3,1,4,1,0,1,-9,1,-13,1,-25,1,27,1,7,1,40,1
330,4,1,3,1,-1,1,-3,1,3,1,1,1,-9,1,-13,1,-24,1,26,1,6,1,40,1
331,4,1,3,1,-1,1,-3,1,3,1,1,1,-8,1,-15,1,-24,1,25,1,6,1,39,1
332,3,1,4,1,1,1,-3,1,1,1,3,1,-7,1,-15,1,-23,1,25,1,5,1,39,1
333,1,1,3,1,2,1,-2,1,0,1,3,1,-6,1,-16,1,-23,1,25,1,5,1,38,1
334,0,1,3,1,3,1,-1,1,-1,1,3,1,-5,1,-16,1,-22,1,25,1,5,1,38,1
335,0,1,4,1,4,1,-2,1,-2,1,4,1,-5,1,-17,1,-22,1,26,1,3,1,37,1
336,1,1,5,1,4,1,-3,1,-1,1,5,1,-7,1,-20,1,-23,1,25,1,2,1,37,1
337,2,1,5,1,3,1,-3,1,0,1,4,1,-7,1,-21,1,-23,1,24,1,2,1,37,1
338,4,1,4,1,0,1,-4,1,2,1,2,1,-6,1,-21,1,-24,1,24,1,2,1,37,1
339,4,1,4,1,0,1,-4,1,2,1,2,1,-5,1,-20,1,-23,1,23,1,2,1,37,1
340,4,1,3,1,-1,1,-3,1,3,1,1,1,-6,1,-21,1,-23,1,22,1,2,1,36,1
341,5,1,3,1,-2,1,-4,1,4,1,1,1,-6,1,-21,1,-24,1,21,1,2,1,36,1
342,5,1,2,1,-3,1,-3,1,4,1,0,1,-6,1,-21,1,-26,1,20,1,2,1,37,1
343,5,1,2,1,-3,1,-3,1,4,1,0,1,-7,1,-23,1,-26,1,20,1,2,1,37,1
344,4,1,1,1,-3,1,-2,1,4,1,-1,1,-8,1,-23,1,-26,1,20,1,2,1,38,1
345,4,1,1,1,-3,1,-2,1,4,1,-1,1,-6,1,-23,1,-26,1,20,1,1,1,39,1
346,5,1,3,1,-2,1,-4,1,4,1,1,1,-6,1,-22,1,-27,1,20,1,1,1,39,1
347,4,1,3,1,-1,1,-3,1,3,1,1,1,-5,1,-23,1,-28,1,20,1,0,1,38,1
348,3,1,3,1,0,1,-3,1,2,1,2,1,-4,1,-24,1,-28,1,19,1,0,1,38,1
349,3,1,3,1,0,1,-3,1,2,1,2,1,-4,1,-25,1,-29,1,18,1,-1,1,37,1
350,3,1,3,1,0,1,-3,1,2,1,2,1,-4,1,-26,1,-31,1,18,1,-2,1,37,1
351,3,1,3,1,0,1,-3,1,2,1,2,1,-5,1,-26,1,-32,1,18,1,-2,1,37,1
352,3,1,3,1,0,1,-3,1,2,1,2,1,-5,1,-25,1,-32,1,17,1,-1,1,38,1
353,3,1,4,1,1,1,-3,1,1,1,3,1,-4,1,-26,1,-32,1,17,1,-1,1,38,1
354,3,1,6,1,3,1,-4,1,0,1,5,1,-3,1,-26,1,-33,1,16,1,-1,1,38,1
355,4,1,6,1,2,1,-5,1,1,1,4,1,-4,1,-27,1,-35,1,16,1,-2,1,38,1
356,4,1,6,1,2,1,-5,1,1,1,4,1,-4,1,-27,1,-36,1,15,1,-2,1,39,1
357,3,1,6,1,3,1,-4,1,0,1,5,1,-4,1,-28,1,-38,1,15,1,-3,1,39,1
358,3,1,6,1,3,1,-4,1,0,1,5,1,-3,1,-29,1,-39,1,15,1,-3,1,40,1
359,3,1,6,1,3,1,-4,1,0,1,5,1,-3,1,-29,1,-39,1,14,1,-4,1,40,1
360,4,1,7,1,3,1,-5,1,1,1,5,1,-2,1,-30,1,-39,1,14,1,-6,1,40,1
361,4,1,7,1,3,1,-5,1,1,1,5,1,-2,1,-31,1,-41,1,14,1,-5,1,40,1
362,5,1,6,1,1,1,-5,1,2,1,4,1,-2,1,-31,1,-41,1,14,1,-6,1,41,1
363,5,1,6,1,1,1,-5,1,2,1,4,1,-1,1,-32,1,-41,1,14,1,-5,1,41,1
364,4,1,5,1,1,1,-4,1,2,1,3,1,0,1,-32,1,-41,1,14,1,-5,1,42,1
365,3,1,5,1,2,1,-4,1,1,1,4,1,0,1,-32,1,-42,1,11,1,-5,1,42,1
366,3,1,6,1,3,1,-4,1,0,1,5,1,0,1,-33,1,-42,1,11,1,-6,1,42,1
367,1,1,5,1,4,1,-3,1,-1,1,5,1,-1,1,-33,1,-42,1,11,1,-6,1,42,1
368,1,1,5,1,4,1,-3,1,-1,1,5,1,0,1,-34,1,-43,1,11,1,-6,1,41,1
369,1,1,6,1,5,1,-3,1,-2,1,6,1,0,1,-35,1,-43,1,11,1,-6,1,41,1
370,1,1,6,1,5,1,-3,1,-2,1,6,1,0,1,-36,1,-42,1,12,1,-6,1,42,1
371,2,1,6,1,4,1,-4,1,-1,1,5,1,0,1,-36,1,-41,1,12,1,-6,1,42,1
372,2,1,6,1,4,1,-4,1,-1,1,5,1,0,1,-36,1,-40,1,12,1,-6,1,43,1
373,2,1,6,1,4,1,-4,1,-1,1,5,1,0,1,-37,1,-39,1,12,1,-6,1,43,1
374,2,1,5,1,3,1,-3,1,0,1,4,1,-1,1,-37,1,-38,1,11,1,-6,1,44,1
375,2,1,5,1,3,1,-3,1,0,1,4,1,-1,1,-38,1,-38,1,10,1,-6,1,44,1
376,2,1,5,1,3,1,-3,1,0,1,4,1,-2,1,-38,1,-37,1,9,1,-6,1,43,1
377,1,1,5,1,4,1,-3,1,-1,1,5,1,-3,1,-39,1,-35,1,9,1,-6,1,42,1
378,1,1,5,1,4,1,-3,1,-1,1,5,1,-3,1,-39,1,-32,1,9,1,-7,1,43,1
379,2,1,6,1,4,1,-4,1,-1,1,5,1,-3,1,-39,1,-30,1,9,1,-7,1,43,1
380,4,1,7,1,3,1,-5,1,1,1,5,1,-3,1,-38,1,-27,1,9,1,-6,1,43,1
381,3,1,7,1,4,1,-5,1,0,1,6,1,-3,1,-38,1,-25,1,8,1,-5,1,44,1
382,3,1,7,1,4,1,-5,1,0,1,6,1,-5,1,-37,1,-22,1,8,1,-5,1,44,1
383,4,1,8,1,4,1,-6,1,0,1,6,1,-4,1,-37,1,-20,1,8,1,-4,1,45,1
384,5,1,7,1,2,1,-6,1,2,1,5,1,-4,1,-38,1,-18,1,8,1,-3,1,46,1
385,5,1,7,1,2,1,-6,1,2,1,5,1,-5,1,-38,1,-18,1,7,1,-4,1,47,1
386,4,1,5,1,1,1,-4,1,2,1,3,1,-5,1,-40,1,-17,1,7,1,-5,1,47,1
387,3,1,5,1,2,1,-4,1,1,1,4,1,-6,1,-39,1,-16,1,7,1,-5,1,46,1
388,2,1,5,1,3,1,-3,1,0,1,4,1,-6,1,-40,1,-13,1,8,1,-5,1,47,1
389,3,1,6,1,3,1,-4,1,0,1,5,1,-7,1,-40,1,-11,1,8,1,-5,1,48,1
390,3,1,6,1,3,1,-4,1,0,1,5,1,-8,1,-40,1,-10,1,9,1,-4,1,48,1
391,3,1,5,1,2,1,-4,1,1,1,4,1,-10,1,-40,1,-8,1,9,1,-4,1,49,1
392,3,1,5,1,2,1,-4,1,1,1,4,1,-10,1,-41,1,-7,1,9,1,-4,1,50,1
393,3,1,6,1,3,1,-4,1,0,1,5,1,-10,1,-41,1,-5,1,9,1,-4,1,50,1
394,4,1,6,1,2,1,-5,1,1,1,4,1,-10,1,-42,1,-6,1,9,1,-4,1,49,1
395,5,1,7,1,2,1,-6,1,2,1,5,1,-10,1,-43,1,-5,1,9,1,-3,1,49,1
396,5,1,8,1,3,1,-6,1,1,1,6,1,-11,1,-44,1,-4,1,9,1,-3,1,50,1
397,5,1,8,1,3,1,-6,1,1,1,6,1,-11,1,-44,1,-4,1,9,1,-3,1,49,1
398,5,1,8,1,3,1,-6,1,1,1,6,1,-11,1,-44,1,-2,1,9,1,-3,1,50,1
399,5,1,8,1,3,1,-6,1,1,1,6,1,-11,1,-44,1,0,1,10,1,-2,1,50,1
400,6,1,10,1,4,1,-8,1,1,1,7,1,-11,1,-45,1,1,1,10,1,-1,1,51,1
401,6,1,12,1,6,1,-9,1,0,1,9,1,-10,1,-46,1,1,1,11,1,0,1,52,1
402,5,1,14,1,9,1,-9,1,-2,1,12,1,-10,1,-46,1,3,1,12,1,2,1,54,1
403,6,1,17,1,11,1,-11,1,-2,1,14,1,-10,1,-46,1,4,1,12,1,3,1,55,1
404,6,1,19,1,13,1,-12,1,-3,1,16,1,-9,1,-47,1,5,1,13,1,5,1,57,1
405,5,1,21,1,16,1,-13,1,-5,1,19,1,-9,1,-47,1,5,1,14,1,6,1,58,1
406,5,1,23,1,18,1,-14,1,-6,1,21,1,-10,1,-48,1,6,1,15,1,8,1,59,1
407,5,1,25,1,20,1,-15,1,-7,1,23,1,-10,1,-48,1,7,1,16,1,9,1,61,1
408,6,1,26,1,20,1,-16,1,-7,1,23,1,-9,1,-48,1,8,1,17,1,11,1,63,1
409,6,1,28,1,22,1,-17,1,-8,1,25,1,-8,1,-48,1,9,1,18,1,12,1,64,1
410,5,1,29,1,24,1,-17,1,-9,1,27,1,-7,1,-48,1,10,1,19,1,13,1,65,1
411,5,1,31,1,26,1,-18,1,-10,1,29,1,-7,1,-47,1,12,1,20,1,15,1,66,1
412,5,1,32,1,27,1,-18,1,-11,1,30,1,-8,1,-46,1,13,1,21,1,16,1,68,1
413,5,1,34,1,29,1,-19,1,-12,1,32,1,-9,1,-47,1,14,1,22,1,17,1,67,1
414,6,1,36,1,30,1,-21,1,-12,1,33,1,-11,1,-48,1,15,1,24,1,18,1,67,1
415,8,1,39,1,31,1,-23,1,-11,1,35,1,-14,1,-49,1,15,1,24,1,19,1,68,1
416,10,1,41,1,31,1,-25,1,-10,1,36,1,-17,1,-49,1,14,1,26,1,21,1,70,1
417,13,1,43,1,30,1,-28,1,-8,1,37,1,-22,1,-50,1,14,1,26,1,23,1,71,1
418,15,1,45,1,30,1,-30,1,-7,1,38,1,-27,1,-52,1,14,1,27,1,24,1,73,1
419,17,1,46,1,29,1,-31,1,-6,1,38,1,-32,1,-55,1,12,1,26,1,24,1,73,1
420,18,1,47,1,29,1,-32,1,-5,1,38,1,-37,1,-57,1,10,1,26,1,24,1,73,1
421,20,1,47,1,27,1,-33,1,-3,1,37,1,-40,1,-58,1,10,1,26,1,24,1,74,1
422,20,1,46,1,26,1,-33,1,-3,1,36,1,-42,1,-59,1,9,1,25,1,24,1,74,1
423,21,1,45,1,24,1,-33,1,-1,1,35,1,-43,1,-61,1,7,1,24,1,24,1,74,1
424,22,1,43,1,21,1,-32,1,1,1,32,1,-44,1,-63,1,8,1,22,1,22,1,74,1
425,22,1,41,1,19,1,-31,1,2,1,30,1,-44,1,-64,1,8,1,22,1,22,1,74,1
426,26,1,41,1,15,1,-33,1,6,1,28,1,-43,1,-63,1,8,1,22,1,22,1,74,1
427,29,1,41,1,12,1,-35,1,9,1,27,1,-42,1,-63,1,7,1,22,1,22,1,74,1
428,30,1,39,1,9,1,-34,1,11,1,24,1,-41,1,-62,1,7,1,22,1,23,1,73,1
429,31,1,38,1,7,1,-34,1,12,1,23,1,-39,1,-61,1,7,1,23,1,24,1,73,1
430,33,1,38,1,5,1,-35,1,14,1,22,1,-38,1,-60,1,7,1,25,1,26,1,74,1
431,34,1,38,1,4,1,-36,1,15,1,21,1,-38,1,-59,1,7,1,27,1,28,1,76,1
432,35,1,39,1,4,1,-37,1,16,1,22,1,-37,1,-58,1,7,1,29,1,30,1,79,1
433,36,1,40,1,4,1,-38,1,16,1,22,1,-34,1,-55,1,7,1,32,1,33,1,81,1
434,36,1,39,1,3,1,-37,1,17,1,21,1,-32,1,-54,1,6,1,33,1,34,1,83,1
435,37,1,38,1,1,1,-37,1,18,1,20,1,-31,1,-53,1,6,1,35,1,35,1,84,1
436,38,1,36,1,-2,1,-37,1,20,1,17,1,-29,1,-51,1,5,1,36,1,35,1,84,1
437,38,1,35,1,-3,1,-36,1,21,1,16,1,-26,1,-50,1,5,1,36,1,35,1,84,1
438,36,1,34,1,-2,1,-35,1,19,1,16,1,-23,1,-48,1,6,1,37,1,35,1,85,1
439,35,1,33,1,-2,1,-34,1,19,1,16,1,-22,1,-48,1,6,1,38,1,36,1,83,1
440,34,1,31,1,-3,1,-32,1,19,1,14,1,-21,1,-48,1,6,1,38,1,35,1,82,1
441,31,1,29,1,-2,1,-30,1,17,1,14,1,-19,1,-45,1,5,1,38,1,35,1,82,1
442,29,1,27,1,-2,1,-28,1,16,1,13,1,-17,1,-45,1,3,1,36,1,34,1,81,1
443,26,1,25,1,-1,1,-25,1,14,1,12,1,-16,1,-46,1,2,1,35,1,33,1,80,1
444,23,1,23,1,0,1,-23,1,12,1,12,1,-15,1,-47,1,1,1,33,1,31,1,78,1
445,20,1,21,1,1,1,-20,1,10,1,11,1,-14,1,-50,1,-2,1,29,1,29,1,75,1
446,17,1,18,1,1,1,-17,1,8,1,10,1,-13,1,-52,1,-4,1,25,1,25,1,72,1
447,14,1,16,1,2,1,-15,1,6,1,9,1,-12,1,-53,1,-5,1,23,1,21,1,69,1
448,11,1,13,1,2,1,-12,1,5,1,8,1,-10,1,-53,1,-6,1,21,1,19,1,67,1
449,8,1,10,1,2,1,-9,1,3,1,6,1,-9,1,-53,1,-8,1,19,1,17,1,64,1
450,8,1,6,1,-2,1,-7,1,5,1,2,1,-10,1,-55,1,-10,1,17,1,14,1,62,1
451,6,1,3,1,-3,1,-4,1,5,1,0,1,-8,1,-55,1,-12,1,15,1,11,1,59,1
452,5,1,0,1,-5,1,-2,1,5,1,-2,1,-7,1,-54,1,-13,1,13,1,9,1,56,1
453,4,1,-1,1,-5,1,-1,1,4,1,-3,1,-6,1,-54,1,-15,1,12,1,8,1,54,1
454,5,1,-2,1,-7,1,-1,1,6,1,-4,1,-4,1,-53,1,-16,1,12,1,7,1,54,1
455,6,1,-4,1,-10,1,-1,1,8,1,-7,1,-4,1,-54,1,-16,1,11,1,6,1,53,1
456,5,1,-5,1,-10,1,0,1,7,1,-7,1,-3,1,-53,1,-16,1,11,1,6,1,53,1
457,4,1,-6,1,-10,1,1,1,7,1,-8,1,-2,1,-52,1,-16,1,11,1,6,1,53,1
458,4,1,-7,1,-11,1,1,1,7,1,-9,1,-3,1,-52,1,-16,1,10,1,6,1,52,1
459,3,1,-8,1,-11,1,2,1,7,1,-9,1,-4,1,-52,1,-17,1,10,1,6,1,52,1
460,2,1,-8,1,-10,1,3,1,6,1,-9,1,-4,1,-53,1,-19,1,9,1,6,1,52,1
461,3,1,-6,1,-9,1,1,1,6,1,-7,1,-4,1,-54,1,-20,1,9,1,6,1,52,1
462,4,1,-6,1,-10,1,1,1,7,1,-8,1,-4,1,-53,1,-20,1,10,1,6,1,53,1
463,4,1,-7,1,-11,1,1,1,7,1,-9,1,-3,1,-53,1,-19,1,10,1,6,1,53,1
464,2,1,-7,1,-9,1,2,1,5,1,-8,1,-1,1,-52,1,-20,1,11,1,7,1,53,1
465,1,1,-7,1,-8,1,3,1,4,1,-7,1,-1,1,-52,1,-21,1,11,1,7,1,53,1
466,2,1,-7,1,-9,1,2,1,5,1,-8,1,-2,1,-53,1,-21,1,11,1,7,1,52,1
467,2,1,-8,1,-10,1,3,1,6,1,-9,1,-1,1,-52,1,-21,1,12,1,7,1,52,1
468,3,1,-7,1,-10,1,2,1,6,1,-8,1,-2,1,-51,1,-20,1,12,1,7,1,51,1
469,2,1,-7,1,-9,1,2,1,5,1,-8,1,-1,1,-50,1,-19,1,13,1,8,1,52,1
470,1,1,-5,1,-6,1,2,1,3,1,-5,1,0,1,-50,1,-18,1,14,1,10,1,54,1
471,0,1,-5,1,-5,1,2,1,2,1,-5,1,1,1,-49,1,-17,1,15,1,10,1,53,1
472,-1,1,-4,1,-3,1,2,1,1,1,-4,1,4,1,-46,1,-15,1,15,1,10,1,52,1
473,-4,1,-4,1,0,1,4,1,-2,1,-2,1,9,1,-42,1,-11,1,16,1,9,1,49,1
474,-8,1,-4,1,4,1,6,1,-6,1,0,1,16,1,-36,1,-6,1,18,1,8,1,46,1
475,-14,1,-3,1,11,1,8,1,-13,1,4,1,24,1,-27,1,0,1,22,1,8,1,43,1
476,-20,1,-1,1,19,1,10,1,-20,1,9,1,33,1,-17,1,9,1,29,1,11,1,40,1
477,-27,1,1,1,28,1,13,1,-27,1,14,1,44,1,-4,1,20,1,39,1,16,1,40,1
478,-35,1,5,1,40,1,15,1,-37,1,22,1,56,1,11,1,36,1,53,1,25,1,39,1
479,-42,1,9,1,51,1,16,1,-46,1,30,1,71,1,29,1,58,1,75,1,40,1,40,1
480,-47,1,15,1,62,1,16,1,-54,1,38,1,86,1,52,1,88,1,109,1,67,1,47,1
481,-49,1,23,1,72,1,13,1,-60,1,47,1,102,1,81,1,130,1,155,1,105,1,59,1
482,-49,1,31,1,80,1,9,1,-64,1,55,1,118,1,114,1,179,1,210,1,151,1,75,1
483,-48,1,42,1,90,1,3,1,-69,1,66,1,135,1,152,1,234,1,270,1,200,1,94,1
484,-46,1,54,1,100,1,-4,1,-73,1,77,1,152,1,192,1,293,1,333,1,251,1,115,1
485,-39,1,67,1,106,1,-14,1,-72,1,86,1,168,1,236,1,357,1,402,1,306,1,140,1
486,-28,1,83,1,111,1,-27,1,-69,1,97,1,183,1,281,1,425,1,476,1,367,1,169,1
487,-13,1,100,1,113,1,-43,1,-63,1,106,1,196,1,326,1,493,1,551,1,427,1,199,1
488,5,1,114,1,109,1,-59,1,-52,1,112,1,207,1,373,1,563,1,628,1,487,1,228,1
489,26,1,122,1,96,1,-74,1,-35,1,109,1,218,1,418,1,629,1,698,1,539,1,253,1
490,47,1,126,1,79,1,-86,1,-16,1,103,1,226,1,460,1,690,1,760,1,584,1,274,1
491,72,1,130,1,58,1,-101,1,7,1,94,1,229,1,496,1,739,1,806,1,616,1,293,1
492,95,1,132,1,37,1,-113,1,29,1,85,1,226,1,518,1,761,1,816,1,623,1,305,1
493,112,1,126,1,14,1,-119,1,49,1,70,1,220,1,523,1,744,1,778,1,596,1,306,1
494,116,1,104,1,-12,1,-110,1,64,1,46,1,216,1,510,1,677,1,664,1,490,1,265,1
495,110,1,66,1,-44,1,-88,1,77,1,11,1,212,1,481,1,555,1,470,1,291,1,170,1
496,98,1,20,1,-78,1,-59,1,88,1,-29,1,212,1,444,1,418,1,259,1,82,1,70,1
497,81,1,-19,1,-100,1,-31,1,90,1,-59,1,208,1,404,1,286,1,83,1,-76,1,-4,1
498,62,1,-44,1,-106,1,-9,1,84,1,-75,1,197,1,358,1,179,1,-43,1,-174,1,-48,1
499,45,1,-61,1,-106,1,8,1,75,1,-83,1,186,1,319,1,103,1,-119,1,-228,1,-73,1
500,33,1,-76,1,-109,1,21,1,71,1,-92,1,173,1,280,1,47,1,-163,1,-255,1,-88,1
501,20,1,-85,1,-105,1,32,1,62,1,-95,1,161,1,240,1,4,1,-189,1,-264,1,-96,1
502,8,1,-89,1,-97,1,40,1,52,1,-93,1,149,1,203,1,-26,1,-197,1,-257,1,-95,1
503,-3,1,-91,1,-88,1,47,1,42,1,-90,1,136,1,167,1,-49,1,-195,1,-241,1,-89,1
504,-10,1,-93,1,-83,1,51,1,36,1,-88,1,122,1,130,1,-67,1,-186,1,-218,1,-78,1
505,-14,1,-93,1,-79,1,53,1,32,1,-86,1,105,1,94,1,-80,1,-172,1,-191,1,-62,1
506,-15,1,-90,1,-75,1,52,1,30,1,-83,1,83,1,55,1,-92,1,-157,1,-163,1,-44,1
507,-13,1,-83,1,-70,1,48,1,28,1,-77,1,58,1,17,1,-105,1,-146,1,-140,1,-24,1
508,-11,1,-76,1,-65,1,43,1,27,1,-71,1,39,1,-15,1,-115,1,-134,1,-121,1,-8,1
509,-9,1,-70,1,-61,1,39,1,26,1,-66,1,25,1,-37,1,-118,1,-123,1,-107,1,1,1
510,-8,1,-63,1,-55,1,35,1,23,1,-59,1,18,1,-50,1,-119,1,-113,1,-97,1,7,1
511,-7,1,-56,1,-49,1,31,1,21,1,-53,1,12,1,-60,1,-119,1,-105,1,-90,1,12,1
512,-6,1,-49,1,-43,1,27,1,18,1,-46,1,5,1,-70,1,-118,1,-99,1,-83,1,15,1
513,-7,1,-42,1,-35,1,24,1,14,1,-39,1,1,1,-76,1,-117,1,-94,1,-74,1,19,1
514,-6,1,-37,1,-31,1,21,1,12,1,-34,1,0,1,-80,1,-114,1,-89,1,-65,1,25,1
515,-5,1,-33,1,-28,1,19,1,11,1,-31,1,-2,1,-82,1,-111,1,-85,1,-57,1,30,1
516,-4,1,-30,1,-26,1,17,1,11,1,-28,1,-4,1,-82,1,-106,1,-81,1,-50,1,36,1
517,-5,1,-29,1,-24,1,17,1,9,1,-27,1,-6,1,-83,1,-103,1,-77,1,-46,1,40,1
518,-5,1,-28,1,-23,1,16,1,9,1,-26,1,-9,1,-83,1,-101,1,-75,1,-45,1,43,1
519,-6,1,-28,1,-22,1,17,1,8,1,-25,1,-10,1,-83,1,-101,1,-74,1,-46,1,44,1
520,-7,1,-29,1,-22,1,18,1,7,1,-26,1,-12,1,-83,1,-102,1,-74,1,-48,1,42,1
521,-6,1,-28,1,-22,1,17,1,8,1,-25,1,-12,1,-84,1,-103,1,-74,1,-49,1,40,1
522,-5,1,-28,1,-23,1,16,1,9,1,-26,1,-13,1,-84,1,-104,1,-75,1,-50,1,39,1
523,-4,1,-28,1,-24,1,16,1,10,1,-26,1,-12,1,-83,1,-104,1,-75,1,-49,1,38,1
524,-4,1,-27,1,-23,1,15,1,9,1,-25,1,-12,1,-82,1,-105,1,-74,1,-48,1,39,1
525,-5,1,-26,1,-21,1,15,1,8,1,-24,1,-12,1,-82,1,-104,1,-73,1,-46,1,39,1
526,-5,1,-25,1,-20,1,15,1,7,1,-23,1,-12,1,-82,1,-102,1,-73,1,-45,1,41,1
527,-5,1,-25,1,-20,1,15,1,7,1,-23,1,-11,1,-81,1,-100,1,-73,1,-44,1,42,1
528,-5,1,-24,1,-19,1,14,1,7,1,-22,1,-11,1,-80,1,-99,1,-72,1,-43,1,42,1
529,-3,1,-23,1,-20,1,13,1,8,1,-22,1,-11,1,-80,1,-98,1,-72,1,-43,1,42,1
530,-3,1,-22,1,-19,1,12,1,8,1,-21,1,-11,1,-81,1,-97,1,-72,1,-43,1,42,1
531,-3,1,-22,1,-19,1,12,1,8,1,-21,1,-12,1,-80,1,-95,1,-72,1,-44,1,41,1
532,-3,1,-22,1,-19,1,12,1,8,1,-21,1,-11,1,-79,1,-93,1,-72,1,-44,1,41,1
533,-3,1,-22,1,-19,1,12,1,8,1,-21,1,-11,1,-79,1,-92,1,-72,1,-44,1,41,1
534,-4,1,-23,1,-19,1,13,1,7,1,-21,1,-11,1,-78,1,-90,1,-72,1,-43,1,41,1
535,-5,1,-23,1,-18,1,14,1,6,1,-21,1,-11,1,-78,1,-90,1,-72,1,-43,1,40,1
536,-4,1,-24,1,-20,1,14,1,8,1,-22,1,-12,1,-77,1,-89,1,-72,1,-43,1,40,1
537,-5,1,-23,1,-18,1,14,1,6,1,-21,1,-12,1,-75,1,-88,1,-72,1,-43,1,40,1
538,-5,1,-23,1,-18,1,14,1,6,1,-21,1,-12,1,-74,1,-87,1,-72,1,-42,1,40,1
539,-4,1,-23,1,-19,1,13,1,7,1,-21,1,-12,1,-74,1,-87,1,-72,1,-43,1,40,1
540,-3,1,-23,1,-20,1,13,1,8,1,-22,1,-12,1,-74,1,-87,1,-72,1,-42,1,40,1
541,-3,1,-23,1,-20,1,13,1,8,1,-22,1,-12,1,-74,1,-86,1,-71,1,-43,1,39,1
542,-3,1,-23,1,-20,1,13,1,8,1,-22,1,-12,1,-75,1,-85,1,-71,1,-43,1,39,1
543,-3,1,-21,1,-18,1,12,1,7,1,-20,1,-12,1,-74,1,-84,1,-72,1,-43,1,39,1
544,-4,1,-21,1,-17,1,12,1,6,1,-19,1,-11,1,-75,1,-83,1,-72,1,-43,1,38,1
545,-4,1,-20,1,-16,1,12,1,6,1,-18,1,-12,1,-75,1,-83,1,-73,1,-43,1,39,1
546,-4,1,-19,1,-15,1,11,1,5,1,-17,1,-12,1,-74,1,-81,1,-74,1,-43,1,39,1
547,-4,1,-19,1,-15,1,11,1,5,1,-17,1,-12,1,-73,1,-80,1,-74,1,-43,1,39,1
548,-4,1,-19,1,-15,1,11,1,5,1,-17,1,-11,1,-72,1,-78,1,-74,1,-43,1,40,1
549,-5,1,-19,1,-14,1,12,1,4,1,-17,1,-11,1,-72,1,-77,1,-74,1,-43,1,40,1
550,-4,1,-19,1,-15,1,11,1,5,1,-17,1,-12,1,-73,1,-77,1,-74,1,-43,1,40,1
551,-4,1,-19,1,-15,1,11,1,5,1,-17,1,-12,1,-72,1,-75,1,-74,1,-44,1,40,1
552,-4,1,-19,1,-15,1,11,1,5,1,-17,1,-13,1,-72,1,-72,1,-74,1,-44,1,40,1
553,-4,1,-19,1,-15,1,11,1,5,1,-17,1,-13,1,-72,1,-70,1,-73,1,-45,1,39,1
554,-4,1,-19,1,-15,1,11,1,5,1,-17,1,-13,1,-72,1,-69,1,-73,1,-45,1,38,1
555,-2,1,-19,1,-17,1,10,1,7,1,-18,1,-14,1,-73,1,-70,1,-74,1,-45,1,37,1
556,-2,1,-19,1,-17,1,10,1,7,1,-18,1,-14,1,-73,1,-71,1,-75,1,-45,1,36,1
557,-3,1,-19,1,-16,1,11,1,6,1,-18,1,-14,1,-73,1,-71,1,-75,1,-46,1,36,1
558,-3,1,-18,1,-15,1,10,1,6,1,-17,1,-14,1,-73,1,-70,1,-76,1,-46,1,35,1
559,-3,1,-18,1,-15,1,10,1,6,1,-17,1,-15,1,-73,1,-70,1,-76,1,-46,1,35,1
560,-2,1,-18,1,-16,1,10,1,7,1,-17,1,-15,1,-73,1,-70,1,-76,1,-46,1,35,1
561,-2,1,-18,1,-16,1,10,1,7,1,-17,1,-16,1,-73,1,-70,1,-77,1,-46,1,34,1
562,-3,1,-18,1,-15,1,10,1,6,1,-17,1,-16,1,-73,1,-70,1,-77,1,-47,1,34,1
563,-3,1,-18,1,-15,1,10,1,6,1,-17,1,-15,1,-73,1,-69,1,-78,1,-47,1,33,1
564,-3,1,-19,1,-16,1,11,1,6,1,-18,1,-15,1,-72,1,-69,1,-78,1,-47,1,32,1
565,-3,1,-18,1,-15,1,10,1,6,1,-17,1,-16,1,-73,1,-69,1,-79,1,-48,1,31,1
566,-3,1,-18,1,-15,1,10,1,6,1,-17,1,-16,1,-73,1,-68,1,-80,1,-49,1,30,1
567,-4,1,-17,1,-13,1,10,1,4,1,-15,1,-16,1,-72,1,-66,1,-80,1,-49,1,31,1
568,-4,1,-16,1,-12,1,10,1,4,1,-14,1,-15,1,-71,1,-64,1,-80,1,-49,1,30,1
569,-4,1,-16,1,-12,1,10,1,4,1,-14,1,-15,1,-72,1,-63,1,-81,1,-49,1,29,1
570,-4,1,-16,1,-12,1,10,1,4,1,-14,1,-16,1,-72,1,-62,1,-81,1,-49,1,29,1
571,-3,1,-16,1,-13,1,9,1,5,1,-15,1,-17,1,-72,1,-63,1,-81,1,-49,1,28,1
572,-3,1,-15,1,-12,1,9,1,4,1,-14,1,-16,1,-72,1,-62,1,-82,1,-50,1,28,1
573,-4,1,-14,1,-10,1,9,1,3,1,-12,1,-15,1,-72,1,-61,1,-83,1,-50,1,27,1
574,-4,1,-14,1,-10,1,9,1,3,1,-12,1,-15,1,-72,1,-60,1,-83,1,-51,1,26,1
575,-4,1,-14,1,-10,1,9,1,3,1,-12,1,-16,1,-72,1,-59,1,-84,1,-51,1,25,1
576,-5,1,-14,1,-9,1,9,1,2,1,-12,1,-16,1,-73,1,-59,1,-84,1,-52,1,24,1
577,-5,1,-15,1,-10,1,10,1,2,1,-13,1,-16,1,-72,1,-58,1,-86,1,-53,1,24,1
578,-3,1,-14,1,-11,1,8,1,4,1,-13,1,-16,1,-71,1,-57,1,-86,1,-53,1,25,1
579,-2,1,-13,1,-11,1,7,1,4,1,-12,1,-16,1,-71,1,-56,1,-87,1,-54,1,24,1
580,-2,1,-14,1,-12,1,8,1,5,1,-13,1,-16,1,-72,1,-56,1,-87,1,-55,1,24,1
581,-3,1,-15,1,-12,1,9,1,4,1,-14,1,-17,1,-72,1,-56,1,-88,1,-56,1,23,1
582,-4,1,-15,1,-11,1,9,1,3,1,-13,1,-17,1,-72,1,-55,1,-89,1,-56,1,23,1
583,-4,1,-15,1,-11,1,9,1,3,1,-13,1,-16,1,-71,1,-54,1,-90,1,-58,1,22,1
584,-4,1,-16,1,-12,1,10,1,4,1,-14,1,-16,1,-71,1,-54,1,-90,1,-58,1,21,1
585,-4,1,-15,1,-11,1,9,1,3,1,-13,1,-16,1,-71,1,-54,1,-91,1,-59,1,20,1
586,-5,1,-15,1,-10,1,10,1,2,1,-13,1,-17,1,-70,1,-54,1,-91,1,-60,1,19,1
587,-5,1,-15,1,-10,1,10,1,2,1,-13,1,-17,1,-70,1,-54,1,-92,1,-61,1,19,1
588,-5,1,-14,1,-9,1,9,1,2,1,-12,1,-17,1,-71,1,-54,1,-92,1,-61,1,19,1
589,-6,1,-14,1,-8,1,10,1,1,1,-11,1,-17,1,-71,1,-53,1,-94,1,-62,1,18,1
590,-6,1,-13,1,-7,1,9,1,0,1,-10,1,-18,1,-71,1,-52,1,-95,1,-63,1,17,1
591,-5,1,-13,1,-8,1,9,1,1,1,-11,1,-18,1,-72,1,-53,1,-96,1,-64,1,16,1
592,-5,1,-13,1,-8,1,9,1,1,1,-11,1,-19,1,-72,1,-54,1,-98,1,-65,1,15,1
593,-5,1,-13,1,-8,1,9,1,1,1,-11,1,-19,1,-71,1,-54,1,-99,1,-66,1,14,1
594,-7,1,-13,1,-6,1,10,1,-1,1,-10,1,-18,1,-70,1,-54,1,-99,1,-67,1,12,1
595,-8,1,-13,1,-5,1,10,1,-2,1,-9,1,-18,1,-70,1,-54,1,-99,1,-68,1,11,1
596,-7,1,-13,1,-6,1,10,1,-1,1,-10,1,-18,1,-70,1,-55,1,-100,1,-69,1,10,1
597,-6,1,-13,1,-7,1,9,1,0,1,-10,1,-17,1,-69,1,-56,1,-100,1,-70,1,10,1
598,-6,1,-13,1,-7,1,9,1,0,1,-10,1,-17,1,-68,1,-55,1,-101,1,-70,1,9,1
599,-6,1,-13,1,-7,1,9,1,0,1,-10,1,-17,1,-68,1,-56,1,-103,1,-71,1,8,1
600,-7,1,-13,1,-6,1,10,1,-1,1,-10,1,-16,1,-68,1,-56,1,-103,1,-72,1,8,1
601,-8,1,-12,1,-4,1,10,1,-2,1,-8,1,-15,1,-68,1,-56,1,-104,1,-73,1,8,1
602,-9,1,-12,1,-3,1,10,1,-3,1,-8,1,-14,1,-68,1,-59,1,-104,1,-73,1,6,1
603,-10,1,-11,1,-1,1,10,1,-5,1,-6,1,-13,1,-69,1,-61,1,-105,1,-74,1,6,1
604,-11,1,-11,1,0,1,11,1,-6,1,-6,1,-13,1,-69,1,-63,1,-107,1,-75,1,5,1
605,-11,1,-10,1,1,1,10,1,-6,1,-5,1,-13,1,-69,1,-65,1,-108,1,-75,1,5,1
606,-10,1,-9,1,1,1,9,1,-6,1,-4,1,-13,1,-69,1,-67,1,-108,1,-76,1,4,1
607,-10,1,-8,1,2,1,9,1,-6,1,-3,1,-12,1,-69,1,-69,1,-109,1,-77,1,4,1
608,-9,1,-7,1,2,1,8,1,-6,1,-3,1,-10,1,-68,1,-71,1,-109,1,-77,1,3,1
609,-9,1,-7,1,2,1,8,1,-6,1,-3,1,-9,1,-67,1,-72,1,-108,1,-77,1,4,1
610,-10,1,-6,1,4,1,8,1,-7,1,-1,1,-8,1,-69,1,-74,1,-108,1,-77,1,3,1
611,-11,1,-6,1,5,1,8,1,-8,1,-1,1,-8,1,-68,1,-75,1,-108,1,-77,1,2,1
612,-11,1,-5,1,6,1,8,1,-9,1,0,1,-7,1,-68,1,-75,1,-107,1,-77,1,2,1
613,-11,1,-4,1,7,1,7,1,-9,1,1,1,-6,1,-68,1,-76,1,-107,1,-76,1,1,1
614,-11,1,-3,1,8,1,7,1,-10,1,2,1,-6,1,-68,1,-76,1,-107,1,-75,1,1,1
615,-11,1,-3,1,8,1,7,1,-10,1,2,1,-7,1,-67,1,-77,1,-105,1,-73,1,1,1
616,-12,1,-2,1,10,1,7,1,-11,1,4,1,-7,1,-67,1,-76,1,-104,1,-72,1,0,1
617,-12,1,0,1,12,1,6,1,-12,1,6,1,-7,1,-67,1,-76,1,-102,1,-69,1,0,1
618,-11,1,0,1,11,1,5,1,-11,1,5,1,-7,1,-66,1,-75,1,-100,1,-67,1,1,1
619,-10,1,1,1,11,1,4,1,-10,1,6,1,-7,1,-66,1,-75,1,-98,1,-64,1,1,1
620,-10,1,3,1,13,1,3,1,-11,1,8,1,-8,1,-66,1,-74,1,-96,1,-61,1,1,1
621,-11,1,3,1,14,1,4,1,-12,1,8,1,-8,1,-66,1,-73,1,-93,1,-58,1,2,1
622,-11,1,4,1,15,1,3,1,-13,1,9,1,-8,1,-66,1,-71,1,-90,1,-55,1,3,1
623,-11,1,6,1,17,1,2,1,-14,1,11,1,-8,1,-65,1,-69,1,-86,1,-52,1,5,1
624,-12,1,7,1,19,1,2,1,-15,1,13,1,-8,1,-64,1,-67,1,-82,1,-48,1,7,1
625,-13,1,7,1,20,1,3,1,-16,1,13,1,-9,1,-63,1,-64,1,-78,1,-46,1,9,1
626,-12,1,9,1,21,1,1,1,-16,1,15,1,-10,1,-63,1,-63,1,-74,1,-42,1,11,1
627,-9,1,10,1,19,1,0,1,-14,1,14,1,-11,1,-63,1,-63,1,-71,1,-39,1,13,1
628,-7,1,11,1,18,1,-2,1,-12,1,14,1,-11,1,-62,1,-61,1,-68,1,-36,1,14,1
629,-7,1,11,1,18,1,-2,1,-12,1,14,1,-11,1,-61,1,-58,1,-63,1,-32,1,15,1
630,-7,1,12,1,19,1,-2,1,-13,1,15,1,-12,1,-59,1,-57,1,-59,1,-28,1,17,1
631,-6,1,12,1,18,1,-3,1,-12,1,15,1,-13,1,-58,1,-54,1,-54,1,-24,1,20,1
632,-5,1,12,1,17,1,-3,1,-11,1,14,1,-14,1,-56,1,-53,1,-50,1,-21,1,21,1
633,-3,1,13,1,16,1,-5,1,-9,1,14,1,-16,1,-54,1,-51,1,-46,1,-18,1,22,1
634,-2,1,13,1,15,1,-5,1,-8,1,14,1,-16,1,-53,1,-49,1,-42,1,-14,1,24,1
635,-1,1,13,1,14,1,-6,1,-7,1,13,1,-17,1,-50,1,-46,1,-36,1,-9,1,27,1
636,0,1,13,1,13,1,-6,1,-6,1,13,1,-17,1,-48,1,-42,1,-31,1,-4,1,29,1
637,0,1,14,1,14,1,-7,1,-7,1,14,1,-17,1,-46,1,-38,1,-26,1,0,1,32,1
638,0,1,14,1,14,1,-7,1,-7,1,14,1,-16,1,-44,1,-33,1,-20,1,5,1,34,1
639,1,1,15,1,14,1,-8,1,-6,1,15,1,-15,1,-43,1,-29,1,-15,1,9,1,37,1
640,1,1,15,1,14,1,-8,1,-6,1,15,1,-14,1,-41,1,-24,1,-10,1,13,1,39,1
641,2,1,15,1,13,1,-8,1,-5,1,14,1,-13,1,-39,1,-19,1,-6,1,17,1,41,1
642,2,1,15,1,13,1,-8,1,-5,1,14,1,-13,1,-37,1,-14,1,-1,1,21,1,43,1
643,3,1,15,1,12,1,-9,1,-4,1,14,1,-12,1,-34,1,-10,1,3,1,24,1,45,1
644,3,1,15,1,12,1,-9,1,-4,1,14,1,-10,1,-31,1,-7,1,7,1,27,1,46,1
645,4,1,15,1,11,1,-9,1,-3,1,13,1,-10,1,-30,1,-3,1,10,1,29,1,47,1
646,7,1,15,1,8,1,-11,1,0,1,12,1,-10,1,-29,1,0,1,13,1,30,1,48,1
647,7,1,14,1,7,1,-10,1,0,1,11,1,-9,1,-27,1,2,1,16,1,32,1,49,1
648,8,1,13,1,5,1,-10,1,2,1,9,1,-7,1,-26,1,3,1,18,1,33,1,51,1
649,8,1,12,1,4,1,-10,1,2,1,8,1,-7,1,-24,1,5,1,20,1,34,1,51,1
650,8,1,12,1,4,1,-10,1,2,1,8,1,-6,1,-23,1,7,1,21,1,34,1,52,1
651,9,1,12,1,3,1,-10,1,3,1,8,1,-6,1,-22,1,9,1,22,1,35,1,52,1
652,9,1,12,1,3,1,-10,1,3,1,8,1,-6,1,-20,1,12,1,24,1,35,1,52,1
653,10,1,12,1,2,1,-11,1,4,1,7,1,-5,1,-18,1,13,1,25,1,35,1,52,1
654,10,1,11,1,1,1,-10,1,5,1,6,1,-6,1,-15,1,14,1,26,1,35,1,52,1
655,10,1,10,1,0,1,-10,1,5,1,5,1,-6,1,-14,1,14,1,26,1,35,1,52,1
656,10,1,10,1,0,1,-10,1,5,1,5,1,-6,1,-12,1,15,1,26,1,35,1,52,1
657,11,1,9,1,-2,1,-10,1,7,1,4,1,-5,1,-11,1,16,1,26,1,36,1,51,1
658,11,1,8,1,-3,1,-9,1,7,1,3,1,-5,1,-11,1,17,1,26,1,35,1,51,1
659,10,1,6,1,-4,1,-8,1,7,1,1,1,-5,1,-10,1,18,1,26,1,34,1,51,1
660,10,1,5,1,-5,1,-7,1,8,1,0,1,-5,1,-9,1,19,1,26,1,34,1,50,1
661,11,1,6,1,-5,1,-8,1,8,1,1,1,-4,1,-7,1,23,1,25,1,34,1,51,1
662,12,1,5,1,-7,1,-8,1,10,1,-1,1,-4,1,-6,1,24,1,26,1,34,1,52,1
663,11,1,4,1,-7,1,-7,1,9,1,-1,1,-3,1,-5,1,26,1,26,1,34,1,52,1
664,11,1,3,1,-8,1,-7,1,10,1,-2,1,-3,1,-5,1,28,1,26,1,34,1,51,1
665,11,1,2,1,-9,1,-6,1,10,1,-3,1,-4,1,-4,1,28,1,25,1,33,1,50,1
666,12,1,2,1,-10,1,-7,1,11,1,-4,1,-4,1,-4,1,29,1,24,1,32,1,49,1
667,12,1,1,1,-11,1,-6,1,12,1,-5,1,-4,1,-3,1,29,1,24,1,32,1,50,1
668,12,1,1,1,-11,1,-6,1,12,1,-5,1,-3,1,-2,1,30,1,23,1,31,1,49,1
669,10,1,0,1,-10,1,-5,1,10,1,-5,1,-3,1,-1,1,30,1,22,1,31,1,49,1
670,10,1,0,1,-10,1,-5,1,10,1,-5,1,-3,1,-1,1,31,1,21,1,30,1,48,1
671,10,1,0,1,-10,1,-5,1,10,1,-5,1,-3,1,-1,1,30,1,20,1,29,1,47,1
672,12,1,-1,1,-13,1,-5,1,12,1,-7,1,-3,1,-1,1,30,1,18,1,29,1,46,1
673,11,1,-1,1,-12,1,-5,1,11,1,-6,1,-2,1,0,1,31,1,18,1,28,1,45,1
674,10,1,-2,1,-12,1,-4,1,11,1,-7,1,-2,1,0,1,32,1,18,1,27,1,44,1
675,10,1,-1,1,-11,1,-4,1,10,1,-6,1,-1,1,0,1,32,1,18,1,26,1,44,1
676,10,1,-1,1,-11,1,-4,1,10,1,-6,1,-1,1,0,1,34,1,18,1,26,1,43,1
677,10,1,-2,1,-12,1,-4,1,11,1,-7,1,-1,1,0,1,35,1,17,1,25,1,43,1
678,10,1,-2,1,-12,1,-4,1,11,1,-7,1,-1,1,1,1,36,1,17,1,25,1,43,1
679,11,1,-2,1,-13,1,-4,1,12,1,-7,1,-1,1,0,1,37,1,16,1,24,1,43,1
680,10,1,-2,1,-12,1,-4,1,11,1,-7,1,-1,1,0,1,39,1,16,1,23,1,42,1
681,10,1,-3,1,-13,1,-3,1,11,1,-8,1,-2,1,0,1,40,1,15,1,23,1,41,1
682,11,1,-3,1,-14,1,-4,1,12,1,-8,1,-2,1,0,1,40,1,14,1,22,1,42,1
683,10,1,-3,1,-13,1,-3,1,11,1,-8,1,-1,1,1,1,41,1,14,1,22,1,41,1
684,9,1,-3,1,-12,1,-3,1,10,1,-7,1,0,1,2,1,42,1,14,1,21,1,40,1
685,8,1,-4,1,-12,1,-2,1,10,1,-8,1,0,1,3,1,41,1,14,1,20,1,39,1
686,8,1,-4,1,-12,1,-2,1,10,1,-8,1,0,1,3,1,42,1,14,1,20,1,39,1
687,8,1,-4,1,-12,1,-2,1,10,1,-8,1,-1,1,2,1,41,1,15,1,20,1,38,1
688,8,1,-5,1,-13,1,-1,1,10,1,-9,1,-1,1,2,1,41,1,15,1,20,1,37,1
689,8,1,-5,1,-13,1,-1,1,10,1,-9,1,-1,1,2,1,40,1,15,1,19,1,36,1
690,8,1,-5,1,-13,1,-1,1,10,1,-9,1,-1,1,2,1,38,1,15,1,20,1,36,1
691,7,1,-5,1,-12,1,-1,1,9,1,-8,1,-2,1,3,1,36,1,15,1,20,1,35,1
692,7,1,-5,1,-12,1,-1,1,9,1,-8,1,-2,1,3,1,35,1,15,1,19,1,34,1
693,7,1,-5,1,-12,1,-1,1,9,1,-8,1,-2,1,4,1,35,1,14,1,18,1,34,1
694,7,1,-5,1,-12,1,-1,1,9,1,-8,1,-2,1,4,1,35,1,14,1,17,1,33,1
695,8,1,-5,1,-13,1,-1,1,10,1,-9,1,-2,1,4,1,34,1,14,1,16,1,32,1
696,9,1,-5,1,-14,1,-2,1,11,1,-9,1,-3,1,4,1,33,1,13,1,16,1,31,1
697,8,1,-5,1,-13,1,-1,1,10,1,-9,1,-2,1,4,1,33,1,13,1,16,1,31,1
698,7,1,-5,1,-12,1,-1,1,9,1,-8,1,-1,1,5,1,33,1,13,1,15,1,30,1
699,7,1,-4,1,-11,1,-1,1,9,1,-7,1,-2,1,6,1,34,1,13,1,15,1,30,1
700,7,1,-4,1,-11,1,-1,1,9,1,-7,1,-3,1,6,1,34,1,13,1,14,1,29,1
701,6,1,-5,1,-11,1,0,1,8,1,-8,1,-3,1,7,1,35,1,12,1,14,1,30,1
702,6,1,-5,1,-11,1,0,1,8,1,-8,1,-4,1,8,1,36,1,12,1,14,1,30,1
703,7,1,-5,1,-12,1,-1,1,9,1,-8,1,-5,1,9,1,38,1,12,1,14,1,30,1
704,6,1,-5,1,-11,1,0,1,8,1,-8,1,-6,1,10,1,38,1,11,1,14,1,30,1
705,6,1,-5,1,-11,1,0,1,8,1,-8,1,-6,1,11,1,39,1,11,1,15,1,29,1
706,6,1,-6,1,-12,1,0,1,9,1,-9,1,-7,1,11,1,39,1,10,1,15,1,28,1
707,6,1,-6,1,-12,1,0,1,9,1,-9,1,-7,1,11,1,39,1,10,1,14,1,28,1
708,6,1,-6,1,-12,1,0,1,9,1,-9,1,-7,1,12,1,39,1,10,1,14,1,27,1
709,6,1,-6,1,-12,1,0,1,9,1,-9,1,-7,1,12,1,39,1,9,1,14,1,28,1
710,6,1,-7,1,-13,1,0,1,9,1,-10,1,-8,1,13,1,37,1,9,1,13,1,28,1
711,6,1,-7,1,-13,1,0,1,9,1,-10,1,-8,1,13,1,38,1,9,1,13,1,28,1
712,5,1,-7,1,-12,1,1,1,8,1,-9,1,-8,1,14,1,39,1,10,1,13,1,29,1
713,4,1,-7,1,-11,1,1,1,7,1,-9,1,-8,1,15,1,39,1,9,1,12,1,28,1
714,4,1,-7,1,-11,1,1,1,7,1,-9,1,-8,1,14,1,38,1,8,1,12,1,28,1
715,4,1,-8,1,-12,1,2,1,8,1,-10,1,-9,1,15,1,37,1,7,1,11,1,28,1
716,6,1,-8,1,-14,1,1,1,10,1,-11,1,-9,1,15,1,37,1,6,1,11,1,29,1
717,6,1,-8,1,-14,1,1,1,10,1,-11,1,-8,1,16,1,38,1,6,1,11,1,29,1
718,5,1,-8,1,-13,1,1,1,9,1,-10,1,-7,1,17,1,39,1,7,1,11,1,29,1
719,4,1,-8,1,-12,1,2,1,8,1,-10,1,-7,1,18,1,41,1,7,1,11,1,29,1
720,4,1,-9,1,-13,1,2,1,8,1,-11,1,-7,1,19,1,42,1,8,1,11,1,29,1
721,4,1,-9,1,-13,1,2,1,8,1,-11,1,-7,1,18,1,43,1,8,1,10,1,29,1
722,5,1,-9,1,-14,1,2,1,9,1,-11,1,-7,1,18,1,43,1,8,1,9,1,28,1
723,5,1,-9,1,-14,1,2,1,9,1,-11,1,-7,1,19,1,44,1,8,1,9,1,28,1
724,5,1,-10,1,-15,1,2,1,10,1,-12,1,-7,1,19,1,44,1,7,1,8,1,28,1
725,5,1,-10,1,-15,1,2,1,10,1,-12,1,-7,1,19,1,44,1,7,1,8,1,28,1
726,5,1,-11,1,-16,1,3,1,10,1,-13,1,-8,1,20,1,44,1,5,1,7,1,28,1
727,2,1,-12,1,-14,1,5,1,8,1,-13,1,-7,1,20,1,43,1,5,1,7,1,27,1
728,2,1,-11,1,-13,1,4,1,7,1,-12,1,-6,1,20,1,42,1,6,1,7,1,28,1
729,3,1,-9,1,-12,1,3,1,7,1,-10,1,-5,1,21,1,41,1,7,1,7,1,28,1
730,4,1,-9,1,-13,1,2,1,8,1,-11,1,-5,1,21,1,40,1,7,1,7,1,28,1
731,5,1,-9,1,-14,1,2,1,9,1,-11,1,-6,1,21,1,39,1,6,1,7,1,28,1
732,5,1,-11,1,-16,1,3,1,10,1,-13,1,-6,1,21,1,38,1,7,1,7,1,28,1
733,6,1,-11,1,-17,1,2,1,11,1,-14,1,-6,1,22,1,37,1,7,1,7,1,27,1
734,7,1,-12,1,-19,1,2,1,13,1,-15,1,-7,1,22,1,35,1,6,1,8,1,26,1
735,7,1,-12,1,-19,1,2,1,13,1,-15,1,-8,1,21,1,33,1,7,1,7,1,26,1
736,6,1,-12,1,-18,1,3,1,12,1,-15,1,-8,1,20,1,31,1,7,1,7,1,26,1
737,5,1,-12,1,-17,1,3,1,11,1,-14,1,-7,1,20,1,30,1,7,1,7,1,25,1
738,4,1,-11,1,-15,1,3,1,9,1,-13,1,-6,1,21,1,30,1,7,1,7,1,25,1
739,3,1,-11,1,-14,1,4,1,8,1,-12,1,-6,1,21,1,30,1,7,1,6,1,25,1
740,3,1,-11,1,-14,1,4,1,8,1,-12,1,-6,1,21,1,29,1,7,1,5,1,23,1
741,3,1,-12,1,-15,1,4,1,9,1,-13,1,-4,1,22,1,29,1,6,1,5,1,23,1
742,3,1,-12,1,-15,1,4,1,9,1,-13,1,-3,1,22,1,28,1,6,1,5,1,22,1
743,4,1,-12,1,-16,1,4,1,10,1,-14,1,-2,1,22,1,29,1,6,1,5,1,22,1
744,5,1,-12,1,-17,1,3,1,11,1,-14,1,-1,1,23,1,29,1,6,1,4,1,21,1
745,6,1,-12,1,-18,1,3,1,12,1,-15,1,-1,1,23,1,30,1,6,1,4,1,21,1
746,6,1,-12,1,-18,1,3,1,12,1,-15,1,-1,1,23,1,30,1,6,1,4,1,20,1
747,5,1,-12,1,-17,1,3,1,11,1,-14,1,0,1,23,1,31,1,5,1,4,1,21,1
748,4,1,-13,1,-17,1,4,1,10,1,-15,1,0,1,23,1,33,1,5,1,5,1,21,1
749,4,1,-13,1,-17,1,4,1,10,1,-15,1,1,1,23,1,34,1,5,1,5,1,21,1
750,5,1,-13,1,-18,1,4,1,11,1,-15,1,2,1,22,1,35,1,6,1,5,1,22,1
751,5,1,-14,1,-19,1,4,1,12,1,-16,1,2,1,22,1,37,1,6,1,5,1,22,1
752,7,1,-14,1,-21,1,3,1,14,1,-17,1,3,1,21,1,39,1,7,1,5,1,22,1
753,8,1,-14,1,-22,1,3,1,15,1,-18,1,3,1,21,1,41,1,7,1,5,1,21,1
754,7,1,-15,1,-22,1,4,1,14,1,-18,1,4,1,21,1,43,1,7,1,5,1,22,1
755,6,1,-15,1,-21,1,4,1,13,1,-18,1,4,1,21,1,45,1,7,1,6,1,22,1
756,5,1,-14,1,-19,1,4,1,12,1,-16,1,3,1,21,1,46,1,7,1,5,1,21,1
757,4,1,-14,1,-18,1,5,1,11,1,-16,1,4,1,21,1,48,1,7,1,6,1,22,1
758,4,1,-15,1,-19,1,5,1,11,1,-17,1,5,1,22,1,50,1,8,1,6,1,21,1
759,5,1,-14,1,-19,1,4,1,12,1,-16,1,5,1,22,1,52,1,8,1,6,1,22,1
760,5,1,-15,1,-20,1,5,1,12,1,-17,1,6,1,22,1,52,1,9,1,6,1,22,1
761,6,1,-14,1,-20,1,4,1,13,1,-17,1,6,1,22,1,54,1,10,1,6,1,21,1
762,6,1,-13,1,-19,1,3,1,12,1,-16,1,6,1,22,1,55,1,11,1,7,1,21,1
763,7,1,-11,1,-18,1,2,1,12,1,-14,1,5,1,22,1,56,1,12,1,8,1,22,1
764,7,1,-9,1,-16,1,1,1,11,1,-12,1,4,1,21,1,58,1,12,1,9,1,23,1
765,8,1,-7,1,-15,1,0,1,11,1,-11,1,4,1,21,1,60,1,13,1,10,1,24,1
766,9,1,-3,1,-12,1,-3,1,10,1,-7,1,4,1,21,1,63,1,15,1,12,1,24,1
767,9,1,0,1,-9,1,-4,1,9,1,-4,1,4,1,22,1,65,1,17,1,13,1,25,1
768,9,1,2,1,-7,1,-5,1,8,1,-2,1,5,1,23,1,65,1,18,1,15,1,24,1
769,9,1,4,1,-5,1,-6,1,7,1,0,1,6,1,24,1,67,1,19,1,16,1,24,1
770,8,1,6,1,-2,1,-7,1,5,1,2,1,8,1,25,1,68,1,20,1,17,1,25,1
771,8,1,9,1,1,1,-8,1,4,1,5,1,10,1,25,1,69,1,21,1,18,1,27,1
772,7,1,11,1,4,1,-9,1,2,1,8,1,12,1,27,1,71,1,22,1,20,1,28,1
773,7,1,13,1,6,1,-10,1,1,1,10,1,13,1,28,1,72,1,22,1,21,1,28,1
774,8,1,15,1,7,1,-11,1,1,1,11,1,13,1,28,1,73,1,23,1,23,1,28,1
775,8,1,17,1,9,1,-12,1,0,1,13,1,11,1,28,1,72,1,25,1,24,1,29,1
776,9,1,20,1,11,1,-14,1,-1,1,16,1,9,1,27,1,73,1,26,1,25,1,29,1
777,11,1,22,1,11,1,-16,1,0,1,17,1,8,1,27,1,74,1,27,1,26,1,29,1
778,14,1,24,1,10,1,-19,1,2,1,17,1,6,1,26,1,74,1,29,1,28,1,30,1
779,17,1,26,1,9,1,-21,1,4,1,18,1,2,1,25,1,74,1,30,1,29,1,31,1
780,19,1,28,1,9,1,-23,1,5,1,19,1,-2,1,23,1,73,1,30,1,30,1,31,1
781,20,1,29,1,9,1,-24,1,6,1,19,1,-7,1,22,1,72,1,29,1,32,1,31,1
782,22,1,30,1,8,1,-26,1,7,1,19,1,-11,1,20,1,71,1,29,1,33,1,30,1
783,22,1,30,1,8,1,-26,1,7,1,19,1,-13,1,19,1,70,1,28,1,32,1,30,1
784,23,1,29,1,6,1,-26,1,9,1,18,1,-15,1,18,1,68,1,27,1,31,1,29,1
785,24,1,27,1,3,1,-25,1,11,1,15,1,-18,1,15,1,66,1,25,1,30,1,28,1
786,24,1,25,1,1,1,-24,1,12,1,13,1,-19,1,15,1,64,1,25,1,29,1,28,1
787,25,1,23,1,-2,1,-24,1,14,1,11,1,-19,1,14,1,63,1,24,1,28,1,28,1
788,26,1,21,1,-5,1,-23,1,16,1,8,1,-19,1,15,1,61,1,24,1,28,1,27,1
789,27,1,18,1,-9,1,-22,1,18,1,5,1,-20,1,15,1,59,1,22,1,27,1,26,1
790,28,1,17,1,-11,1,-22,1,20,1,3,1,-21,1,15,1,58,1,22,1,27,1,25,1
791,28,1,16,1,-12,1,-22,1,20,1,2,1,-21,1,16,1,58,1,22,1,27,1,24,1
792,29,1,16,1,-13,1,-22,1,21,1,2,1,-21,1,18,1,59,1,23,1,28,1,24,1
793,31,1,17,1,-14,1,-24,1,23,1,2,1,-21,1,20,1,59,1,25,1,29,1,24,1
794,34,1,17,1,-17,1,-25,1,26,1,0,1,-21,1,22,1,59,1,25,1,30,1,24,1
795,35,1,17,1,-18,1,-26,1,27,1,0,1,-22,1,23,1,59,1,26,1,31,1,24,1
796,36,1,16,1,-20,1,-26,1,28,1,-2,1,-20,1,25,1,60,1,29,1,33,1,26,1
797,37,1,16,1,-21,1,-26,1,29,1,-2,1,-20,1,27,1,61,1,32,1,35,1,28,1
798,38,1,16,1,-22,1,-27,1,30,1,-3,1,-19,1,29,1,61,1,33,1,35,1,29,1
799,40,1,16,1,-24,1,-28,1,32,1,-4,1,-18,1,29,1,61,1,35,1,36,1,28,1
800,39,1,16,1,-23,1,-27,1,31,1,-3,1,-17,1,30,1,62,1,36,1,36,1,29,1
801,38,1,15,1,-23,1,-26,1,31,1,-4,1,-16,1,30,1,62,1,37,1,36,1,27,1
802,36,1,14,1,-22,1,-25,1,29,1,-4,1,-15,1,32,1,61,1,37,1,36,1,26,1
803,33,1,12,1,-21,1,-22,1,27,1,-4,1,-13,1,34,1,60,1,38,1,35,1,24,1
804,30,1,10,1,-20,1,-20,1,25,1,-5,1,-12,1,36,1,59,1,37,1,35,1,24,1
805,27,1,7,1,-20,1,-17,1,24,1,-6,1,-13,1,35,1,57,1,35,1,33,1,22,1
806,27,1,6,1,-21,1,-16,1,24,1,-7,1,-11,1,35,1,54,1,33,1,32,1,20,1
807,25,1,4,1,-21,1,-14,1,23,1,-8,1,-10,1,34,1,51,1,31,1,30,1,17,1
808,21,1,2,1,-19,1,-11,1,20,1,-8,1,-7,1,34,1,47,1,28,1,27,1,13,1
809,16,1,-1,1,-17,1,-7,1,16,1,-9,1,-6,1,33,1,42,1,25,1,24,1,10,1
810,12,1,-3,1,-15,1,-4,1,13,1,-9,1,-5,1,32,1,37,1,22,1,21,1,7,1
811,10,1,-5,1,-15,1,-2,1,12,1,-10,1,-6,1,31,1,32,1,20,1,19,1,4,1
812,8,1,-8,1,-16,1,0,1,12,1,-12,1,-6,1,31,1,28,1,17,1,16,1,1,1
813,7,1,-10,1,-17,1,1,1,12,1,-13,1,-7,1,32,1,25,1,14,1,14,1,-3,1
814,6,1,-12,1,-18,1,3,1,12,1,-15,1,-7,1,33,1,22,1,12,1,12,1,-5,1
815,6,1,-13,1,-19,1,3,1,12,1,-16,1,-8,1,33,1,19,1,10,1,10,1,-8,1
816,5,1,-15,1,-20,1,5,1,12,1,-17,1,-9,1,33,1,16,1,8,1,8,1,-10,1
817,4,1,-17,1,-21,1,6,1,12,1,-19,1,-9,1,34,1,15,1,8,1,6,1,-12,1
818,3,1,-19,1,-22,1,8,1,12,1,-20,1,-10,1,35,1,13,1,7,1,5,1,-13,1
819,3,1,-20,1,-23,1,8,1,13,1,-21,1,-12,1,35,1,13,1,7,1,5,1,-13,1
820,3,1,-21,1,-24,1,9,1,13,1,-22,1,-13,1,36,1,13,1,7,1,6,1,-14,1
821,2,1,-21,1,-23,1,9,1,12,1,-22,1,-14,1,36,1,12,1,7,1,5,1,-15,1
822,3,1,-22,1,-25,1,9,1,14,1,-23,1,-15,1,35,1,11,1,7,1,5,1,-17,1
823,3,1,-22,1,-25,1,9,1,14,1,-23,1,-16,1,34,1,12,1,7,1,5,1,-17,1
824,2,1,-22,1,-24,1,10,1,13,1,-23,1,-16,1,34,1,13,1,6,1,5,1,-17,1
825,1,1,-22,1,-23,1,10,1,12,1,-22,1,-16,1,33,1,13,1,6,1,4,1,-18,1
826,1,1,-22,1,-23,1,10,1,12,1,-22,1,-17,1,32,1,12,1,6,1,4,1,-19,1
827,2,1,-22,1,-24,1,10,1,13,1,-23,1,-17,1,31,1,11,1,6,1,4,1,-20,1
828,1,1,-22,1,-23,1,10,1,12,1,-22,1,-16,1,30,1,11,1,6,1,4,1,-20,1
829,0,1,-23,1,-23,1,11,1,11,1,-23,1,-16,1,29,1,11,1,7,1,4,1,-20,1
830,0,1,-23,1,-23,1,11,1,11,1,-23,1,-17,1,27,1,11,1,7,1,4,1,-21,1
831,0,1,-23,1,-23,1,11,1,11,1,-23,1,-18,1,27,1,12,1,8,1,4,1,-23,1
832,0,1,-22,1,-22,1,11,1,11,1,-22,1,-19,1,25,1,13,1,8,1,4,1,-25,1
833,1,1,-20,1,-21,1,9,1,11,1,-20,1,-17,1,25,1,15,1,9,1,5,1,-26,1
834,-1,1,-19,1,-18,1,10,1,8,1,-19,1,-16,1,24,1,17,1,10,1,6,1,-26,1
835,-5,1,-18,1,-13,1,11,1,4,1,-16,1,-15,1,24,1,19,1,11,1,7,1,-28,1
836,-9,1,-18,1,-9,1,13,1,0,1,-14,1,-12,1,25,1,22,1,12,1,7,1,-30,1
837,-12,1,-17,1,-5,1,14,1,-4,1,-11,1,-7,1,28,1,24,1,13,1,5,1,-35,1
838,-16,1,-16,1,0,1,16,1,-8,1,-8,1,-2,1,33,1,27,1,15,1,4,1,-40,1
839,-21,1,-15,1,6,1,18,1,-14,1,-5,1,6,1,41,1,35,1,20,1,4,1,-45,1
840,-26,1,-13,1,13,1,19,1,-20,1,0,1,14,1,50,1,44,1,25,1,6,1,-48,1
841,-34,1,-10,1,24,1,22,1,-29,1,7,1,24,1,61,1,57,1,33,1,10,1,-50,1
842,-42,1,-5,1,37,1,23,1,-40,1,16,1,36,1,74,1,74,1,46,1,18,1,-52,1
843,-50,1,0,1,50,1,25,1,-50,1,25,1,51,1,92,1,98,1,67,1,33,1,-50,1
844,-55,1,6,1,61,1,24,1,-58,1,33,1,67,1,116,1,134,1,102,1,60,1,-43,1
845,-56,1,15,1,71,1,20,1,-63,1,43,1,82,1,144,1,178,1,148,1,96,1,-31,1
846,-56,1,26,1,82,1,15,1,-69,1,54,1,98,1,178,1,230,1,205,1,141,1,-16,1
847,-54,1,38,1,92,1,8,1,-73,1,65,1,114,1,216,1,287,1,266,1,188,1,1,1
848,-49,1,52,1,101,1,-1,1,-75,1,76,1,130,1,256,1,347,1,329,1,238,1,20,1
849,-42,1,67,1,109,1,-12,1,-75,1,88,1,144,1,299,1,413,1,398,1,292,1,43,1
850,-31,1,82,1,113,1,-25,1,-72,1,97,1,156,1,341,1,480,1,466,1,349,1,68,1
851,-16,1,98,1,114,1,-41,1,-65,1,106,1,167,1,383,1,548,1,537,1,407,1,96,1
852,2,1,110,1,108,1,-56,1,-53,1,109,1,177,1,427,1,617,1,609,1,461,1,120,1
853,21,1,117,1,96,1,-69,1,-37,1,107,1,188,1,471,1,684,1,673,1,507,1,141,1
854,43,1,120,1,77,1,-81,1,-17,1,99,1,197,1,511,1,743,1,729,1,543,1,158,1
855,66,1,122,1,56,1,-94,1,5,1,89,1,199,1,542,1,786,1,764,1,562,1,170,1
856,87,1,119,1,32,1,-103,1,28,1,76,1,197,1,561,1,800,1,762,1,556,1,174,1
857,100,1,106,1,6,1,-103,1,47,1,56,1,193,1,565,1,771,1,704,1,505,1,158,1
858,101,1,73,1,-28,1,-87,1,65,1,23,1,190,1,549,1,681,1,556,1,358,1,89,1
859,94,1,26,1,-68,1,-60,1,81,1,-21,1,189,1,520,1,550,1,356,1,158,1,-10,1
860,83,1,-21,1,-104,1,-31,1,93,1,-62,1,187,1,485,1,415,1,166,1,-19,1,-97,1
861,68,1,-56,1,-124,1,-6,1,96,1,-90,1,178,1,443,1,291,1,16,1,-140,1,-156,1
862,51,1,-78,1,-129,1,13,1,90,1,-103,1,167,1,400,1,196,1,-84,1,-212,1,-188,1
863,36,1,-93,1,-129,1,28,1,82,1,-111,1,154,1,361,1,131,1,-142,1,-249,1,-204,1
864,24,1,-103,1,-127,1,39,1,75,1,-115,1,139,1,321,1,81,1,-175,1,-264,1,-211,1
865,12,1,-106,1,-118,1,47,1,65,1,-112,1,125,1,279,1,43,1,-191,1,-264,1,-212,1
866,1,1,-107,1,-108,1,53,1,54,1,-107,1,111,1,241,1,16,1,-193,1,-253,1,-208,1
867,-7,1,-106,1,-99,1,56,1,46,1,-103,1,96,1,203,1,-4,1,-187,1,-234,1,-200,1
868,-12,1,-104,1,-92,1,58,1,40,1,-98,1,78,1,165,1,-19,1,-172,1,-207,1,-187,1
869,-13,1,-99,1,-86,1,56,1,36,1,-93,1,55,1,127,1,-30,1,-154,1,-176,1,-168,1
870,-11,1,-92,1,-81,1,51,1,35,1,-87,1,29,1,84,1,-44,1,-140,1,-146,1,-149,1
871,-9,1,-83,1,-74,1,46,1,32,1,-79,1,5,1,44,1,-57,1,-128,1,-121,1,-131,1
872,-7,1,-74,1,-67,1,40,1,30,1,-71,1,-12,1,15,1,-64,1,-117,1,-103,1,-117,1
873,-6,1,-65,1,-59,1,35,1,26,1,-62,1,-24,1,-5,1,-66,1,-108,1,-91,1,-109,1
874,-5,1,-56,1,-51,1,30,1,23,1,-54,1,-34,1,-22,1,-68,1,-101,1,-84,1,-105,1
875,-4,1,-48,1,-44,1,26,1,20,1,-46,1,-42,1,-36,1,-70,1,-96,1,-78,1,-102,1
876,-4,1,-40,1,-36,1,22,1,16,1,-38,1,-47,1,-46,1,-70,1,-92,1,-72,1,-99,1
877,-3,1,-34,1,-31,1,18,1,14,1,-33,1,-50,1,-52,1,-68,1,-87,1,-66,1,-96,1
878,-3,1,-31,1,-28,1,17,1,12,1,-30,1,-51,1,-55,1,-66,1,-81,1,-59,1,-92,1
879,-3,1,-28,1,-25,1,15,1,11,1,-27,1,-53,1,-56,1,-64,1,-76,1,-51,1,-87,1
880,-4,1,-27,1,-23,1,15,1,9,1,-25,1,-56,1,-58,1,-64,1,-72,1,-46,1,-84,1
881,-4,1,-27,1,-23,1,15,1,9,1,-25,1,-58,1,-60,1,-64,1,-70,1,-42,1,-82,1
882,-5,1,-27,1,-22,1,16,1,8,1,-25,1,-59,1,-61,1,-65,1,-70,1,-42,1,-82,1
883,-6,1,-27,1,-21,1,16,1,7,1,-24,1,-59,1,-62,1,-66,1,-71,1,-43,1,-82,1
884,-7,1,-28,1,-21,1,17,1,7,1,-25,1,-60,1,-64,1,-67,1,-71,1,-45,1,-84,1
885,-7,1,-27,1,-20,1,17,1,6,1,-24,1,-60,1,-66,1,-67,1,-71,1,-46,1,-85,1
886,-6,1,-26,1,-20,1,16,1,7,1,-23,1,-59,1,-67,1,-68,1,-71,1,-47,1,-85,1
887,-4,1,-26,1,-22,1,15,1,9,1,-24,1,-59,1,-68,1,-69,1,-71,1,-46,1,-85,1
888,-4,1,-26,1,-22,1,15,1,9,1,-24,1,-58,1,-68,1,-70,1,-70,1,-45,1,-83,1
889,-5,1,-25,1,-20,1,15,1,7,1,-23,1,-58,1,-68,1,-70,1,-69,1,-43,1,-81,1
890,-5,1,-25,1,-20,1,15,1,7,1,-23,1,-58,1,-69,1,-73,1,-68,1,-42,1,-80,1
891,-5,1,-25,1,-20,1,15,1,7,1,-23,1,-58,1,-70,1,-75,1,-67,1,-41,1,-80,1
892,-4,1,-24,1,-20,1,14,1,8,1,-22,1,-57,1,-71,1,-77,1,-67,1,-41,1,-81,1
893,-3,1,-23,1,-20,1,13,1,8,1,-22,1,-56,1,-72,1,-79,1,-67,1,-42,1,-83,1
894,-3,1,-23,1,-20,1,13,1,8,1,-22,1,-55,1,-73,1,-81,1,-67,1,-42,1,-84,1
895,-4,1,-23,1,-19,1,13,1,7,1,-21,1,-54,1,-73,1,-82,1,-68,1,-42,1,-86,1
896,-4,1,-22,1,-18,1,13,1,7,1,-20,1,-53,1,-73,1,-83,1,-69,1,-42,1,-87,1
897,-5,1,-22,1,-17,1,13,1,6,1,-20,1,-52,1,-73,1,-83,1,-69,1,-42,1,-88,1
898,-3,1,-23,1,-20,1,13,1,8,1,-22,1,-51,1,-72,1,-82,1,-69,1,-42,1,-89,1
899,-3,1,-23,1,-20,1,13,1,8,1,-22,1,-49,1,-71,1,-82,1,-69,1,-41,1,-88,1
900,-3,1,-23,1,-20,1,13,1,8,1,-22,1,-48,1,-71,1,-82,1,-68,1,-40,1,-88,1
901,-3,1,-22,1,-19,1,12,1,8,1,-21,1,-47,1,-70,1,-82,1,-67,1,-39,1,-89,1
902,-4,1,-23,1,-19,1,13,1,7,1,-21,1,-47,1,-70,1,-82,1,-67,1,-39,1,-91,1
903,-4,1,-25,1,-21,1,14,1,8,1,-23,1,-47,1,-71,1,-83,1,-67,1,-40,1,-93,1
904,-4,1,-26,1,-22,1,15,1,9,1,-24,1,-47,1,-72,1,-84,1,-68,1,-41,1,-96,1
905,-5,1,-27,1,-22,1,16,1,8,1,-25,1,-48,1,-73,1,-86,1,-69,1,-43,1,-98,1
906,-5,1,-25,1,-20,1,15,1,7,1,-23,1,-48,1,-72,1,-84,1,-69,1,-43,1,-99,1
907,-3,1,-24,1,-21,1,13,1,9,1,-23,1,-48,1,-72,1,-82,1,-69,1,-42,1,-100,1
908,-3,1,-24,1,-21,1,13,1,9,1,-23,1,-47,1,-71,1,-79,1,-70,1,-42,1,-102,1
909,-3,1,-24,1,-21,1,13,1,9,1,-23,1,-46,1,-72,1,-77,1,-71,1,-42,1,-103,1
910,-3,1,-24,1,-21,1,13,1,9,1,-23,1,-43,1,-72,1,-75,1,-70,1,-42,1,-105,1
911,-3,1,-24,1,-21,1,13,1,9,1,-23,1,-40,1,-72,1,-72,1,-71,1,-43,1,-107,1
912,-3,1,-23,1,-20,1,13,1,8,1,-22,1,-37,1,-72,1,-69,1,-72,1,-43,1,-108,1
913,-3,1,-23,1,-20,1,13,1,8,1,-22,1,-34,1,-70,1,-66,1,-72,1,-43,1,-109,1
914,-3,1,-22,1,-19,1,12,1,8,1,-21,1,-33,1,-69,1,-63,1,-73,1,-43,1,-111,1
915,-3,1,-22,1,-19,1,12,1,8,1,-21,1,-31,1,-70,1,-61,1,-73,1,-44,1,-112,1
916,-3,1,-22,1,-19,1,12,1,8,1,-21,1,-30,1,-71,1,-59,1,-73,1,-44,1,-113,1
917,-3,1,-22,1,-19,1,12,1,8,1,-21,1,-27,1,-72,1,-56,1,-73,1,-44,1,-112,1
918,-3,1,-22,1,-19,1,12,1,8,1,-21,1,-25,1,-72,1,-54,1,-74,1,-45,1,-112,1
919,-4,1,-22,1,-18,1,13,1,7,1,-20,1,-23,1,-72,1,-52,1,-75,1,-45,1,-111,1
920,-4,1,-23,1,-19,1,13,1,7,1,-21,1,-22,1,-73,1,-50,1,-75,1,-45,1,-111,1
921,-5,1,-23,1,-18,1,14,1,6,1,-21,1,-23,1,-73,1,-47,1,-75,1,-46,1,-112,1
922,-4,1,-22,1,-18,1,13,1,7,1,-20,1,-23,1,-74,1,-45,1,-76,1,-47,1,-113,1
923,-3,1,-21,1,-18,1,12,1,7,1,-20,1,-24,1,-74,1,-44,1,-76,1,-48,1,-114,1
924,-3,1,-21,1,-18,1,12,1,7,1,-20,1,-25,1,-74,1,-44,1,-77,1,-50,1,-116,1
925,-3,1,-21,1,-18,1,12,1,7,1,-20,1,-26,1,-74,1,-45,1,-77,1,-51,1,-117,1
926,-4,1,-20,1,-16,1,12,1,6,1,-18,1,-24,1,-74,1,-44,1,-77,1,-51,1,-118,1
927,-4,1,-20,1,-16,1,12,1,6,1,-18,1,-23,1,-73,1,-44,1,-77,1,-52,1,-121,1
928,-4,1,-20,1,-16,1,12,1,6,1,-18,1,-22,1,-71,1,-45,1,-77,1,-53,1,-123,1
929,-3,1,-20,1,-17,1,11,1,7,1,-19,1,-21,1,-71,1,-46,1,-78,1,-55,1,-125,1
930,-3,1,-20,1,-17,1,11,1,7,1,-19,1,-21,1,-70,1,-47,1,-79,1,-56,1,-127,1
931,-4,1,-19,1,-15,1,11,1,5,1,-17,1,-19,1,-70,1,-47,1,-79,1,-55,1,-130,1
932,-4,1,-19,1,-15,1,11,1,5,1,-17,1,-19,1,-71,1,-47,1,-80,1,-55,1,-134,1
933,-5,1,-20,1,-15,1,12,1,5,1,-18,1,-19,1,-71,1,-46,1,-81,1,-56,1,-136,1
934,-6,1,-21,1,-15,1,13,1,4,1,-18,1,-19,1,-72,1,-46,1,-81,1,-57,1,-139,1
935,-5,1,-19,1,-14,1,12,1,4,1,-17,1,-19,1,-74,1,-46,1,-82,1,-59,1,-141,1
936,-4,1,-18,1,-14,1,11,1,5,1,-16,1,-20,1,-75,1,-45,1,-83,1,-60,1,-142,1
937,-5,1,-18,1,-13,1,11,1,4,1,-16,1,-20,1,-75,1,-45,1,-84,1,-61,1,-143,1
938,-4,1,-17,1,-13,1,10,1,4,1,-15,1,-20,1,-75,1,-45,1,-85,1,-61,1,-144,1
939,-5,1,-18,1,-13,1,11,1,4,1,-16,1,-20,1,-77,1,-47,1,-86,1,-63,1,-146,1
940,-5,1,-18,1,-13,1,11,1,4,1,-16,1,-21,1,-78,1,-49,1,-87,1,-64,1,-148,1
941,-5,1,-20,1,-15,1,12,1,5,1,-18,1,-21,1,-79,1,-50,1,-87,1,-65,1,-149,1
942,-5,1,-20,1,-15,1,12,1,5,1,-18,1,-21,1,-79,1,-51,1,-88,1,-67,1,-151,1
943,-5,1,-21,1,-16,1,13,1,5,1,-19,1,-21,1,-78,1,-50,1,-89,1,-68,1,-153,1
944,-6,1,-22,1,-16,1,14,1,5,1,-19,1,-21,1,-78,1,-50,1,-90,1,-68,1,-155,1
945,-6,1,-23,1,-17,1,14,1,5,1,-20,1,-21,1,-77,1,-51,1,-90,1,-68,1,-157,1
946,-7,1,-24,1,-17,1,15,1,5,1,-21,1,-22,1,-77,1,-53,1,-91,1,-69,1,-158,1
947,-7,1,-24,1,-17,1,15,1,5,1,-21,1,-21,1,-76,1,-54,1,-91,1,-70,1,-160,1
948,-6,1,-23,1,-17,1,14,1,5,1,-20,1,-21,1,-74,1,-55,1,-90,1,-71,1,-163,1
949,-7,1,-23,1,-16,1,15,1,4,1,-20,1,-21,1,-74,1,-58,1,-91,1,-72,1,-167,1
950,-7,1,-23,1,-16,1,15,1,4,1,-20,1,-23,1,-74,1,-60,1,-92,1,-74,1,-170,1
951,-8,1,-23,1,-15,1,15,1,3,1,-19,1,-24,1,-74,1,-62,1,-92,1,-74,1,-172,1
952,-8,1,-22,1,-14,1,15,1,3,1,-18,1,-25,1,-75,1,-63,1,-93,1,-76,1,-173,1
953,-7,1,-21,1,-14,1,14,1,3,1,-18,1,-26,1,-75,1,-63,1,-94,1,-78,1,-174,1
954,-7,1,-20,1,-13,1,13,1,3,1,-17,1,-26,1,-77,1,-65,1,-98,1,-80,1,-175,1
955,-8,1,-19,1,-11,1,13,1,1,1,-15,1,-27,1,-79,1,-65,1,-99,1,-82,1,-177,1
956,-9,1,-19,1,-10,1,14,1,0,1,-15,1,-27,1,-80,1,-66,1,-101,1,-82,1,-177,1
957,-10,1,-18,1,-8,1,14,1,-1,1,-13,1,-27,1,-81,1,-66,1,-101,1,-83,1,-179,1
958,-10,1,-18,1,-8,1,14,1,-1,1,-13,1,-27,1,-83,1,-66,1,-102,1,-84,1,-181,1
959,-10,1,-17,1,-7,1,13,1,-2,1,-12,1,-28,1,-84,1,-68,1,-103,1,-85,1,-183,1
960,-10,1,-17,1,-7,1,13,1,-2,1,-12,1,-29,1,-85,1,-70,1,-104,1,-86,1,-185,1
961,-11,1,-18,1,-7,1,14,1,-2,1,-13,1,-30,1,-86,1,-73,1,-105,1,-87,1,-187,1
962,-11,1,-17,1,-6,1,14,1,-3,1,-12,1,-30,1,-86,1,-75,1,-106,1,-89,1,-189,1
963,-11,1,-16,1,-5,1,13,1,-3,1,-11,1,-31,1,-86,1,-77,1,-106,1,-90,1,-191,1
964,-13,1,-16,1,-3,1,14,1,-5,1,-10,1,-31,1,-86,1,-80,1,-106,1,-91,1,-193,1
965,-14,1,-16,1,-2,1,15,1,-6,1,-9,1,-32,1,-86,1,-84,1,-107,1,-92,1,-195,1
966,-15,1,-17,1,-2,1,16,1,-7,1,-10,1,-32,1,-86,1,-89,1,-108,1,-94,1,-197,1
967,-14,1,-16,1,-2,1,15,1,-6,1,-9,1,-32,1,-85,1,-92,1,-108,1,-94,1,-200,1
968,-14,1,-15,1,-1,1,14,1,-7,1,-8,1,-31,1,-85,1,-95,1,-109,1,-94,1,-201,1
969,-15,1,-15,1,0,1,15,1,-8,1,-8,1,-31,1,-85,1,-99,1,-110,1,-95,1,-203,1
970,-16,1,-14,1,2,1,15,1,-9,1,-6,1,-31,1,-87,1,-104,1,-112,1,-96,1,-205,1
971,-16,1,-14,1,2,1,15,1,-9,1,-6,1,-30,1,-89,1,-107,1,-112,1,-96,1,-207,1
972,-17,1,-13,1,4,1,15,1,-11,1,-5,1,-30,1,-90,1,-110,1,-112,1,-96,1,-208,1
973,-16,1,-11,1,5,1,13,1,-11,1,-3,1,-30,1,-90,1,-112,1,-111,1,-95,1,-208,1
974,-17,1,-10,1,7,1,13,1,-12,1,-2,1,-30,1,-91,1,-114,1,-111,1,-95,1,-208,1
975,-17,1,-10,1,7,1,13,1,-12,1,-2,1,-30,1,-91,1,-116,1,-111,1,-94,1,-208,1
976,-18,1,-8,1,10,1,13,1,-14,1,1,1,-31,1,-91,1,-118,1,-111,1,-93,1,-209,1
977,-17,1,-7,1,10,1,12,1,-14,1,1,1,-31,1,-89,1,-119,1,-109,1,-92,1,-208,1
978,-17,1,-6,1,11,1,11,1,-14,1,2,1,-31,1,-88,1,-119,1,-107,1,-90,1,-207,1
979,-17,1,-5,1,12,1,11,1,-15,1,3,1,-32,1,-87,1,-119,1,-105,1,-88,1,-205,1
980,-17,1,-4,1,13,1,10,1,-15,1,4,1,-31,1,-87,1,-119,1,-102,1,-85,1,-203,1
981,-18,1,-4,1,14,1,11,1,-16,1,5,1,-31,1,-87,1,-119,1,-99,1,-82,1,-200,1
982,-16,1,-5,1,11,1,10,1,-14,1,3,1,-31,1,-87,1,-121,1,-98,1,-80,1,-200,1
983,-16,1,-5,1,11,1,10,1,-14,1,3,1,-31,1,-87,1,-121,1,-95,1,-78,1,-198,1
984,-16,1,-3,1,13,1,9,1,-15,1,5,1,-32,1,-87,1,-121,1,-92,1,-76,1,-196,1
985,-16,1,-2,1,14,1,9,1,-15,1,6,1,-34,1,-88,1,-121,1,-89,1,-73,1,-195,1
986,-16,1,-1,1,15,1,8,1,-16,1,7,1,-35,1,-88,1,-122,1,-86,1,-70,1,-195,1
987,-16,1,0,1,16,1,8,1,-16,1,8,1,-37,1,-88,1,-121,1,-83,1,-66,1,-193,1
988,-16,1,1,1,17,1,7,1,-16,1,9,1,-37,1,-86,1,-119,1,-80,1,-63,1,-193,1
989,-15,1,3,1,18,1,6,1,-16,1,10,1,-37,1,-86,1,-117,1,-76,1,-59,1,-191,1
990,-15,1,6,1,21,1,4,1,-18,1,13,1,-38,1,-85,1,-115,1,-72,1,-56,1,-188,1
991,-14,1,9,1,23,1,2,1,-18,1,16,1,-39,1,-85,1,-111,1,-67,1,-52,1,-186,1
992,-13,1,11,1,24,1,1,1,-18,1,17,1,-39,1,-84,1,-107,1,-62,1,-47,1,-183,1
993,-12,1,10,1,22,1,1,1,-17,1,16,1,-39,1,-84,1,-103,1,-58,1,-43,1,-182,1
994,-10,1,10,1,20,1,0,1,-15,1,15,1,-38,1,-82,1,-97,1,-55,1,-39,1,-180,1
995,-7,1,11,1,18,1,-2,1,-12,1,14,1,-37,1,-80,1,-90,1,-50,1,-33,1,-177,1
996,-6,1,11,1,17,1,-2,1,-11,1,14,1,-36,1,-78,1,-83,1,-45,1,-28,1,-174,1
997,-5,1,11,1,16,1,-3,1,-10,1,13,1,-35,1,-76,1,-76,1,-40,1,-24,1,-172,1
998,-5,1,11,1,16,1,-3,1,-10,1,13,1,-34,1,-74,1,-71,1,-35,1,-20,1,-171,1
999,-3,1,12,1,15,1,-4,1,-9,1,13,1,-33,1,-72,1,-67,1,-30,1,-16,1,-169,1
1000,-3,1,12,1,15,1,-4,1,-9,1,13,1,-34,1,-70,1,-65,1,-25,1,-12,1,-168,1
1001,-2,1,12,1,14,1,-5,1,-8,1,13,1,-33,1,-67,1,-63,1,-20,1,-8,1,-166,1
1002,-1,1,13,1,14,1,-6,1,-7,1,13,1,-34,1,-66,1,-60,1,-15,1,-4,1,-164,1
1003,-1,1,12,1,13,1,-5,1,-7,1,12,1,-33,1,-64,1,-56,1,-10,1,1,1,-162,1
1004,-1,1,12,1,13,1,-5,1,-7,1,12,1,-33,1,-62,1,-52,1,-5,1,5,1,-160,1
1005,0,1,12,1,12,1,-6,1,-6,1,12,1,-32,1,-59,1,-49,1,-1,1,9,1,-157,1
1006,1,1,11,1,10,1,-6,1,-4,1,11,1,-32,1,-56,1,-46,1,3,1,13,1,-156,1
1007,3,1,11,1,8,1,-7,1,-2,1,10,1,-31,1,-54,1,-43,1,7,1,16,1,-155,1
1008,4,1,9,1,5,1,-6,1,0,1,7,1,-30,1,-51,1,-41,1,11,1,19,1,-152,1
1009,5,1,9,1,4,1,-7,1,1,1,7,1,-30,1,-48,1,-40,1,14,1,21,1,-149,1
1010,7,1,9,1,2,1,-8,1,3,1,6,1,-30,1,-46,1,-39,1,16,1,24,1,-147,1
1011,6,1,9,1,3,1,-7,1,2,1,6,1,-30,1,-43,1,-39,1,18,1,26,1,-146,1
1012,6,1,9,1,3,1,-7,1,2,1,6,1,-31,1,-41,1,-38,1,20,1,27,1,-146,1
1013,6,1,10,1,4,1,-8,1,1,1,7,1,-33,1,-40,1,-38,1,21,1,27,1,-144,1
1014,7,1,10,1,3,1,-8,1,2,1,7,1,-34,1,-40,1,-39,1,22,1,27,1,-142,1
1015,8,1,11,1,3,1,-9,1,3,1,7,1,-35,1,-39,1,-41,1,23,1,26,1,-140,1
1016,8,1,11,1,3,1,-9,1,3,1,7,1,-37,1,-39,1,-42,1,24,1,26,1,-137,1
1017,9,1,11,1,2,1,-10,1,4,1,7,1,-36,1,-38,1,-43,1,25,1,26,1,-135,1
1018,9,1,10,1,1,1,-9,1,4,1,6,1,-36,1,-37,1,-42,1,26,1,27,1,-133,1
1019,9,1,10,1,1,1,-9,1,4,1,6,1,-36,1,-36,1,-41,1,27,1,27,1,-130,1
1020,9,1,9,1,0,1,-9,1,5,1,5,1,-36,1,-36,1,-40,1,27,1,26,1,-126,1
1021,9,1,9,1,0,1,-9,1,5,1,5,1,-35,1,-36,1,-40,1,27,1,25,1,-123,1
1022,8,1,7,1,-1,1,-7,1,5,1,3,1,-34,1,-35,1,-40,1,28,1,24,1,-121,1
1023,8,1,5,1,-3,1,-6,1,6,1,1,1,-33,1,-34,1,-39,1,28,1,24,1,-118,1
1024,8,1,4,1,-4,1,-6,1,6,1,0,1,-33,1,-33,1,-39,1,29,1,23,1,-116,1
1025,8,1,3,1,-5,1,-5,1,7,1,-1,1,-33,1,-33,1,-39,1,28,1,22,1,-116,1
1026,8,1,2,1,-6,1,-5,1,7,1,-2,1,-32,1,-33,1,-39,1,28,1,21,1,-116,1
1027,8,1,0,1,-8,1,-4,1,8,1,-4,1,-31,1,-34,1,-38,1,28,1,21,1,-116,1
1028,8,1,-1,1,-9,1,-3,1,8,1,-5,1,-31,1,-33,1,-38,1,27,1,20,1,-116,1
1029,8,1,-1,1,-9,1,-3,1,8,1,-5,1,-30,1,-33,1,-38,1,26,1,19,1,-117,1
1030,9,1,-1,1,-10,1,-4,1,9,1,-5,1,-30,1,-32,1,-40,1,24,1,19,1,-117,1
1031,8,1,0,1,-8,1,-4,1,8,1,-4,1,-30,1,-31,1,-41,1,23,1,18,1,-117,1
1032,8,1,0,1,-8,1,-4,1,8,1,-4,1,-30,1,-29,1,-42,1,23,1,18,1,-117,1
1033,9,1,0,1,-9,1,-4,1,9,1,-4,1,-29,1,-29,1,-44,1,22,1,16,1,-117,1
1034,10,1,0,1,-10,1,-5,1,10,1,-5,1,-28,1,-28,1,-46,1,21,1,15,1,-117,1
1035,10,1,-1,1,-11,1,-4,1,10,1,-6,1,-26,1,-28,1,-47,1,20,1,15,1,-117,1
1036,10,1,-2,1,-12,1,-4,1,11,1,-7,1,-25,1,-28,1,-49,1,19,1,14,1,-118,1
1037,10,1,-1,1,-11,1,-4,1,10,1,-6,1,-25,1,-28,1,-51,1,18,1,12,1,-117,1
1038,10,1,0,1,-10,1,-5,1,10,1,-5,1,-23,1,-29,1,-51,1,17,1,12,1,-117,1
1039,9,1,1,1,-8,1,-5,1,9,1,-3,1,-22,1,-29,1,-52,1,17,1,12,1,-116,1
1040,8,1,1,1,-7,1,-4,1,8,1,-3,1,-21,1,-29,1,-53,1,18,1,12,1,-115,1
1041,7,1,0,1,-7,1,-3,1,7,1,-3,1,-20,1,-29,1,-55,1,17,1,11,1,-114,1
1042,7,1,-1,1,-8,1,-3,1,7,1,-4,1,-19,1,-28,1,-56,1,17,1,11,1,-113,1
1043,7,1,-1,1,-8,1,-3,1,7,1,-4,1,-18,1,-29,1,-58,1,16,1,11,1,-111,1
1044,8,1,-2,1,-10,1,-3,1,9,1,-6,1,-17,1,-28,1,-58,1,16,1,12,1,-109,1
1045,8,1,-2,1,-10,1,-3,1,9,1,-6,1,-17,1,-28,1,-58,1,16,1,12,1,-108,1
1046,8,1,-2,1,-10,1,-3,1,9,1,-6,1,-17,1,-28,1,-58,1,15,1,11,1,-107,1
1047,6,1,-3,1,-9,1,-1,1,7,1,-6,1,-16,1,-27,1,-59,1,14,1,8,1,-107,1
1048,6,1,-4,1,-10,1,-1,1,8,1,-7,1,-16,1,-27,1,-60,1,13,1,7,1,-108,1
1049,5,1,-7,1,-12,1,1,1,8,1,-9,1,-17,1,-28,1,-61,1,13,1,4,1,-109,1
1050,5,1,-7,1,-12,1,1,1,8,1,-9,1,-17,1,-28,1,-63,1,13,1,3,1,-109,1
1051,6,1,-6,1,-12,1,0,1,9,1,-9,1,-18,1,-29,1,-64,1,11,1,2,1,-109,1
1052,8,1,-5,1,-13,1,-1,1,10,1,-9,1,-18,1,-30,1,-65,1,11,1,2,1,-108,1
1053,8,1,-4,1,-12,1,-2,1,10,1,-8,1,-18,1,-29,1,-65,1,11,1,1,1,-107,1
1054,7,1,-4,1,-11,1,-1,1,9,1,-7,1,-18,1,-30,1,-65,1,11,1,1,1,-105,1
1055,8,1,-4,1,-12,1,-2,1,10,1,-8,1,-18,1,-30,1,-66,1,12,1,2,1,-103,1
1056,7,1,-4,1,-11,1,-1,1,9,1,-7,1,-19,1,-30,1,-66,1,12,1,2,1,-102,1
1057,6,1,-4,1,-10,1,-1,1,8,1,-7,1,-19,1,-29,1,-65,1,12,1,3,1,-101,1
1058,6,1,-3,1,-9,1,-1,1,7,1,-6,1,-19,1,-29,1,-65,1,12,1,4,1,-100,1
1059,6,1,-2,1,-8,1,-2,1,7,1,-5,1,-20,1,-29,1,-65,1,12,1,4,1,-100,1
1060,6,1,-2,1,-8,1,-2,1,7,1,-5,1,-21,1,-29,1,-65,1,13,1,4,1,-99,1
1061,5,1,-2,1,-7,1,-1,1,6,1,-4,1,-22,1,-28,1,-67,1,13,1,4,1,-98,1
1062,4,1,-1,1,-5,1,-1,1,4,1,-3,1,-23,1,-28,1,-67,1,14,1,4,1,-96,1
1063,4,1,0,1,-4,1,-2,1,4,1,-2,1,-24,1,-28,1,-66,1,14,1,4,1,-94,1
1064,5,1,0,1,-5,1,-2,1,5,1,-2,1,-25,1,-28,1,-66,1,13,1,2,1,-94,1
1065,5,1,-2,1,-7,1,-1,1,6,1,-4,1,-25,1,-28,1,-66,1,13,1,0,1,-95,1
1066,6,1,-2,1,-8,1,-2,1,7,1,-5,1,-24,1,-28,1,-66,1,13,1,-2,1,-96,1
1067,6,1,-2,1,-8,1,-2,1,7,1,-5,1,-23,1,-29,1,-66,1,12,1,-3,1,-97,1
1068,6,1,-1,1,-7,1,-2,1,6,1,-4,1,-23,1,-29,1,-66,1,11,1,-3,1,-96,1
1069,5,1,0,1,-5,1,-2,1,5,1,-2,1,-23,1,-29,1,-67,1,11,1,-3,1,-94,1
1070,4,1,-1,1,-5,1,-1,1,4,1,-3,1,-24,1,-30,1,-69,1,11,1,-3,1,-93,1
1071,3,1,-3,1,-6,1,0,1,4,1,-4,1,-23,1,-30,1,-71,1,11,1,-3,1,-91,1
1072,1,1,-5,1,-6,1,2,1,3,1,-5,1,-23,1,-31,1,-73,1,11,1,-3,1,-91,1
1073,1,1,-5,1,-6,1,2,1,3,1,-5,1,-22,1,-30,1,-75,1,12,1,-2,1,-88,1
1074,2,1,-4,1,-6,1,1,1,4,1,-5,1,-22,1,-30,1,-77,1,12,1,0,1,-86,1
1075,4,1,-4,1,-8,1,0,1,6,1,-6,1,-22,1,-30,1,-79,1,13,1,0,1,-85,1
1076,5,1,-5,1,-10,1,0,1,7,1,-7,1,-22,1,-30,1,-81,1,12,1,0,1,-84,1
1077,5,1,-5,1,-10,1,0,1,7,1,-7,1,-23,1,-30,1,-83,1,12,1,0,1,-83,1
1078,5,1,-3,1,-8,1,-1,1,6,1,-5,1,-23,1,-30,1,-85,1,12,1,-1,1,-83,1
1079,6,1,-2,1,-8,1,-2,1,7,1,-5,1,-24,1,-30,1,-86,1,12,1,-3,1,-82,1
1080,5,1,-2,1,-7,1,-1,1,6,1,-4,1,-24,1,-30,1,-87,1,12,1,-3,1,-83,1
1081,5,1,-3,1,-8,1,-1,1,6,1,-5,1,-23,1,-28,1,-88,1,12,1,-4,1,-82,1
1082,6,1,-3,1,-9,1,-1,1,7,1,-6,1,-24,1,-28,1,-89,1,12,1,-4,1,-83,1
1083,5,1,-3,1,-8,1,-1,1,6,1,-5,1,-25,1,-28,1,-91,1,12,1,-5,1,-82,1
1084,4,1,-3,1,-7,1,0,1,5,1,-5,1,-26,1,-29,1,-92,1,12,1,-4,1,-82,1
1085,3,1,-2,1,-5,1,0,1,4,1,-3,1,-26,1,-30,1,-94,1,12,1,-5,1,-81,1
1086,4,1,-1,1,-5,1,-1,1,4,1,-3,1,-27,1,-31,1,-94,1,11,1,-6,1,-80,1
1087,4,1,-1,1,-5,1,-1,1,4,1,-3,1,-28,1,-32,1,-94,1,10,1,-8,1,-81,1
1088,3,1,-2,1,-5,1,0,1,4,1,-3,1,-28,1,-33,1,-92,1,10,1,-10,1,-80,1
1089,4,1,-3,1,-7,1,0,1,5,1,-5,1,-29,1,-33,1,-92,1,11,1,-10,1,-79,1
1090,4,1,-4,1,-8,1,0,1,6,1,-6,1,-28,1,-33,1,-91,1,11,1,-10,1,-76,1
1091,4,1,-6,1,-10,1,1,1,7,1,-8,1,-28,1,-33,1,-91,1,11,1,-11,1,-76,1
1092,3,1,-6,1,-9,1,1,1,6,1,-7,1,-29,1,-33,1,-92,1,11,1,-11,1,-76,1
1093,3,1,-6,1,-9,1,1,1,6,1,-7,1,-30,1,-35,1,-92,1,11,1,-11,1,-76,1
1094,2,1,-5,1,-7,1,1,1,4,1,-6,1,-30,1,-35,1,-91,1,11,1,-11,1,-76,1
1095,2,1,-3,1,-5,1,0,1,3,1,-4,1,-32,1,-36,1,-90,1,10,1,-12,1,-75,1
1096,4,1,-2,1,-6,1,-1,1,5,1,-4,1,-33,1,-39,1,-90,1,10,1,-13,1,-74,1
1097,3,1,-3,1,-6,1,0,1,4,1,-4,1,-34,1,-39,1,-91,1,11,1,-13,1,-71,1
1098,4,1,-5,1,-9,1,0,1,6,1,-7,1,-34,1,-38,1,-92,1,11,1,-13,1,-71,1
1099,4,1,-5,1,-9,1,0,1,6,1,-7,1,-34,1,-38,1,-93,1,12,1,-14,1,-70,1
1100,5,1,-4,1,-9,1,0,1,7,1,-6,1,-34,1,-38,1,-96,1,12,1,-14,1,-69,1
1101,5,1,-3,1,-8,1,-1,1,6,1,-5,1,-34,1,-39,1,-96,1,13,1,-14,1,-69,1
1102,4,1,-3,1,-7,1,0,1,5,1,-5,1,-35,1,-38,1,-96,1,13,1,-13,1,-69,1
1103,2,1,-4,1,-6,1,1,1,4,1,-5,1,-34,1,-38,1,-96,1,14,1,-12,1,-67,1
1104,2,1,-4,1,-6,1,1,1,4,1,-5,1,-34,1,-39,1,-96,1,13,1,-12,1,-67,1
1105,4,1,-5,1,-9,1,0,1,6,1,-7,1,-35,1,-39,1,-96,1,13,1,-12,1,-67,1
1106,4,1,-5,1,-9,1,0,1,6,1,-7,1,-36,1,-40,1,-96,1,13,1,-12,1,-67,1
1107,5,1,-5,1,-10,1,0,1,7,1,-7,1,-36,1,-40,1,-97,1,14,1,-12,1,-66,1
1108,5,1,-6,1,-11,1,0,1,8,1,-8,1,-36,1,-41,1,-97,1,14,1,-12,1,-66,1
1109,5,1,-6,1,-11,1,0,1,8,1,-8,1,-36,1,-41,1,-97,1,13,1,-14,1,-68,1
1110,5,1,-5,1,-10,1,0,1,7,1,-7,1,-37,1,-43,1,-97,1,13,1,-14,1,-66,1
1111,5,1,-4,1,-9,1,0,1,7,1,-6,1,-38,1,-43,1,-97,1,13,1,-14,1,-65,1
1112,5,1,-4,1,-9,1,0,1,7,1,-6,1,-38,1,-43,1,-96,1,13,1,-14,1,-64,1
1113,5,1,-4,1,-9,1,0,1,7,1,-6,1,-37,1,-44,1,-95,1,13,1,-14,1,-63,1
1114,5,1,-4,1,-9,1,0,1,7,1,-6,1,-37,1,-44,1,-94,1,13,1,-14,1,-63,1
1115,5,1,-4,1,-9,1,0,1,7,1,-6,1,-37,1,-44,1,-92,1,13,1,-15,1,-62,1
1116,4,1,-5,1,-9,1,0,1,6,1,-7,1,-38,1,-46,1,-90,1,13,1,-14,1,-61,1
1117,4,1,-4,1,-8,1,0,1,6,1,-6,1,-38,1,-46,1,-87,1,12,1,-13,1,-59,1
1118,3,1,-3,1,-6,1,0,1,4,1,-4,1,-37,1,-46,1,-83,1,12,1,-13,1,-57,1
1119,3,1,-3,1,-6,1,0,1,4,1,-4,1,-38,1,-47,1,-80,1,13,1,-12,1,-55,1
1120,3,1,-2,1,-5,1,0,1,4,1,-3,1,-38,1,-49,1,-78,1,13,1,-12,1,-53,1
1121,4,1,-2,1,-6,1,-1,1,5,1,-4,1,-38,1,-49,1,-75,1,14,1,-11,1,-51,1
1122,4,1,-2,1,-6,1,-1,1,5,1,-4,1,-38,1,-49,1,-73,1,15,1,-10,1,-50,1
1123,5,1,-3,1,-8,1,-1,1,6,1,-5,1,-37,1,-50,1,-71,1,14,1,-10,1,-50,1
1124,5,1,-3,1,-8,1,-1,1,6,1,-5,1,-36,1,-50,1,-69,1,15,1,-10,1,-50,1
1125,4,1,-3,1,-7,1,0,1,5,1,-5,1,-35,1,-49,1,-66,1,15,1,-10,1,-50,1
1126,3,1,-4,1,-7,1,0,1,5,1,-5,1,-35,1,-49,1,-66,1,15,1,-10,1,-51,1
1127,3,1,-3,1,-6,1,0,1,4,1,-4,1,-34,1,-49,1,-64,1,14,1,-11,1,-50,1
1128,4,1,-4,1,-8,1,0,1,6,1,-6,1,-32,1,-48,1,-63,1,14,1,-11,1,-49,1
1129,4,1,-4,1,-8,1,0,1,6,1,-6,1,-31,1,-49,1,-61,1,15,1,-11,1,-48,1
1130,4,1,-4,1,-8,1,0,1,6,1,-6,1,-31,1,-49,1,-59,1,15,1,-11,1,-47,1
1131,4,1,-5,1,-9,1,0,1,6,1,-7,1,-30,1,-49,1,-59,1,15,1,-11,1,-45,1
1132,4,1,-4,1,-8,1,0,1,6,1,-6,1,-30,1,-50,1,-60,1,15,1,-11,1,-45,1
1133,4,1,-4,1,-8,1,0,1,6,1,-6,1,-29,1,-50,1,-60,1,16,1,-9,1,-43,1
1134,6,1,-2,1,-8,1,-2,1,7,1,-5,1,-30,1,-51,1,-60,1,17,1,-7,1,-43,1
1135,6,1,-2,1,-8,1,-2,1,7,1,-5,1,-32,1,-51,1,-60,1,17,1,-7,1,-43,1
1136,6,1,-1,1,-7,1,-2,1,6,1,-4,1,-34,1,-52,1,-60,1,16,1,-7,1,-44,1
1137,6,1,-2,1,-8,1,-2,1,7,1,-5,1,-35,1,-52,1,-59,1,15,1,-8,1,-43,1
1138,6,1,-2,1,-8,1,-2,1,7,1,-5,1,-35,1,-50,1,-58,1,16,1,-7,1,-42,1
1139,5,1,-3,1,-8,1,-1,1,6,1,-5,1,-35,1,-50,1,-57,1,17,1,-6,1,-40,1
1140,4,1,-4,1,-8,1,0,1,6,1,-6,1,-34,1,-49,1,-56,1,18,1,-6,1,-38,1
1141,4,1,-5,1,-9,1,0,1,6,1,-7,1,-34,1,-48,1,-54,1,18,1,-7,1,-38,1
1142,3,1,-4,1,-7,1,0,1,5,1,-5,1,-34,1,-48,1,-53,1,19,1,-8,1,-39,1
1143,2,1,-3,1,-5,1,0,1,3,1,-4,1,-33,1,-47,1,-51,1,19,1,-8,1,-39,1
1144,2,1,-1,1,-3,1,0,1,2,1,-2,1,-33,1,-47,1,-48,1,19,1,-7,1,-37,1
1145,4,1,0,1,-4,1,-2,1,4,1,-2,1,-35,1,-48,1,-46,1,19,1,-6,1,-36,1
1146,5,1,-2,1,-7,1,-1,1,6,1,-4,1,-36,1,-49,1,-44,1,19,1,-6,1,-34,1
1147,4,1,-3,1,-7,1,0,1,5,1,-5,1,-34,1,-48,1,-42,1,20,1,-5,1,-32,1
1148,3,1,-2,1,-5,1,0,1,4,1,-3,1,-34,1,-47,1,-41,1,21,1,-5,1,-31,1
1149,4,1,-1,1,-5,1,-1,1,4,1,-3,1,-33,1,-46,1,-41,1,21,1,-5,1,-31,1
1150,4,1,0,1,-4,1,-2,1,4,1,-2,1,-33,1,-45,1,-40,1,21,1,-6,1,-32,1
1151,4,1,0,1,-4,1,-2,1,4,1,-2,1,-33,1,-45,1,-40,1,21,1,-7,1,-32,1
1152,4,1,-1,1,-5,1,-1,1,4,1,-3,1,-32,1,-45,1,-38,1,22,1,-7,1,-31,1
1153,4,1,-2,1,-6,1,-1,1,5,1,-4,1,-32,1,-44,1,-37,1,23,1,-7,1,-30,1
1154,4,1,-4,1,-8,1,0,1,6,1,-6,1,-31,1,-44,1,-34,1,23,1,-7,1,-28,1
1155,5,1,-5,1,-10,1,0,1,7,1,-7,1,-31,1,-43,1,-32,1,23,1,-7,1,-26,1
1156,5,1,-5,1,-10,1,0,1,7,1,-7,1,-30,1,-42,1,-30,1,22,1,-7,1,-24,1
1157,4,1,-6,1,-10,1,1,1,7,1,-8,1,-29,1,-42,1,-29,1,22,1,-7,1,-24,1
1158,4,1,-6,1,-10,1,1,1,7,1,-8,1,-28,1,-41,1,-29,1,22,1,-7,1,-24,1
1159,4,1,-5,1,-9,1,0,1,6,1,-7,1,-26,1,-41,1,-28,1,23,1,-6,1,-23,1
1160,5,1,-4,1,-9,1,0,1,7,1,-6,1,-26,1,-43,1,-27,1,23,1,-6,1,-23,1
1161,5,1,-3,1,-8,1,-1,1,6,1,-5,1,-25,1,-44,1,-27,1,24,1,-5,1,-21,1
1162,4,1,-3,1,-7,1,0,1,5,1,-5,1,-25,1,-45,1,-27,1,23,1,-5,1,-20,1
1163,5,1,-4,1,-9,1,0,1,7,1,-6,1,-25,1,-45,1,-27,1,23,1,-5,1,-19,1
1164,6,1,-4,1,-10,1,-1,1,8,1,-7,1,-25,1,-46,1,-27,1,23,1,-6,1,-18,1
1165,5,1,-3,1,-8,1,-1,1,6,1,-5,1,-25,1,-46,1,-27,1,23,1,-6,1,-17,1
1166,6,1,-2,1,-8,1,-2,1,7,1,-5,1,-25,1,-46,1,-27,1,23,1,-6,1,-18,1
1167,7,1,0,1,-7,1,-3,1,7,1,-3,1,-23,1,-45,1,-27,1,23,1,-6,1,-17,1
1168,7,1,2,1,-5,1,-4,1,6,1,-1,1,-21,1,-45,1,-27,1,23,1,-6,1,-16,1
1169,6,1,3,1,-3,1,-4,1,5,1,0,1,-20,1,-45,1,-26,1,23,1,-6,1,-14,1
1170,5,1,2,1,-3,1,-3,1,4,1,0,1,-19,1,-44,1,-26,1,24,1,-4,1,-13,1
1171,4,1,3,1,-1,1,-3,1,3,1,1,1,-18,1,-44,1,-26,1,26,1,-3,1,-10,1
1172,3,1,3,1,0,1,-3,1,2,1,2,1,-19,1,-45,1,-27,1,26,1,-2,1,-8,1
1173,5,1,7,1,2,1,-6,1,2,1,5,1,-19,1,-45,1,-26,1,28,1,0,1,-6,1
1174,8,1,13,1,5,1,-10,1,2,1,9,1,-19,1,-44,1,-25,1,30,1,0,1,-4,1
1175,9,1,16,1,7,1,-12,1,1,1,12,1,-19,1,-44,1,-24,1,31,1,0,1,-3,1
1176,9,1,17,1,8,1,-13,1,1,1,13,1,-17,1,-43,1,-23,1,31,1,0,1,-1,1
1177,9,1,17,1,8,1,-13,1,1,1,13,1,-15,1,-42,1,-21,1,32,1,2,1,0,1
1178,10,1,18,1,8,1,-14,1,1,1,13,1,-13,1,-40,1,-19,1,34,1,4,1,2,1
1179,9,1,19,1,10,1,-14,1,0,1,15,1,-12,1,-39,1,-17,1,36,1,4,1,4,1
1180,8,1,20,1,12,1,-14,1,-2,1,16,1,-11,1,-38,1,-15,1,37,1,4,1,6,1
1181,8,1,22,1,14,1,-15,1,-3,1,18,1,-11,1,-38,1,-13,1,39,1,6,1,7,1
1182,8,1,22,1,14,1,-15,1,-3,1,18,1,-11,1,-38,1,-11,1,39,1,7,1,9,1
1183,8,1,24,1,16,1,-16,1,-4,1,20,1,-14,1,-39,1,-8,1,40,1,8,1,10,1
1184,8,1,25,1,17,1,-16,1,-4,1,21,1,-16,1,-42,1,-6,1,41,1,8,1,11,1
1185,8,1,27,1,19,1,-17,1,-5,1,23,1,-20,1,-43,1,-5,1,42,1,9,1,13,1
1186,10,1,30,1,20,1,-20,1,-5,1,25,1,-25,1,-45,1,-3,1,43,1,10,1,14,1
1187,11,1,32,1,21,1,-21,1,-5,1,27,1,-30,1,-46,1,-2,1,43,1,10,1,16,1
1188,12,1,32,1,20,1,-22,1,-4,1,26,1,-35,1,-46,1,-1,1,43,1,10,1,18,1
1189,13,1,31,1,18,1,-22,1,-2,1,25,1,-41,1,-45,1,-1,1,43,1,11,1,20,1
1190,15,1,30,1,15,1,-22,1,0,1,23,1,-46,1,-46,1,-2,1,43,1,11,1,21,1
1191,17,1,30,1,13,1,-23,1,2,1,22,1,-48,1,-45,1,-3,1,43,1,10,1,20,1
1192,18,1,32,1,14,1,-25,1,2,1,23,1,-51,1,-47,1,-3,1,42,1,9,1,18,1
1193,20,1,35,1,15,1,-27,1,3,1,25,1,-54,1,-49,1,-4,1,40,1,8,1,17,1
1194,21,1,37,1,16,1,-29,1,3,1,27,1,-56,1,-50,1,-4,1,40,1,8,1,17,1
1195,23,1,38,1,15,1,-30,1,4,1,27,1,-58,1,-50,1,-3,1,40,1,9,1,19,1
1196,24,1,37,1,13,1,-30,1,6,1,25,1,-58,1,-50,1,-3,1,40,1,10,1,22,1
1197,24,1,35,1,11,1,-29,1,7,1,23,1,-59,1,-50,1,-2,1,39,1,11,1,25,1
1198,25,1,33,1,8,1,-29,1,9,1,21,1,-59,1,-50,1,-1,1,39,1,11,1,27,1
1199,26,1,32,1,6,1,-29,1,10,1,19,1,-60,1,-50,1,0,1,40,1,12,1,29,1
1200,27,1,31,1,4,1,-29,1,12,1,18,1,-59,1,-49,1,2,1,41,1,12,1,30,1
1201,29,1,30,1,1,1,-29,1,14,1,16,1,-58,1,-48,1,5,1,42,1,13,1,31,1
1202,30,1,30,1,0,1,-30,1,15,1,15,1,-57,1,-46,1,8,1,44,1,15,1,34,1
1203,31,1,30,1,-1,1,-30,1,16,1,15,1,-56,1,-44,1,10,1,47,1,18,1,38,1
1204,32,1,29,1,-3,1,-30,1,18,1,13,1,-54,1,-41,1,11,1,49,1,21,1,40,1
1205,34,1,28,1,-6,1,-31,1,20,1,11,1,-53,1,-40,1,12,1,49,1,22,1,40,1
1206,36,1,28,1,-8,1,-32,1,22,1,10,1,-53,1,-39,1,13,1,49,1,20,1,39,1
1207,37,1,28,1,-9,1,-32,1,23,1,10,1,-52,1,-39,1,14,1,49,1,18,1,37,1
1208,37,1,29,1,-8,1,-33,1,23,1,11,1,-49,1,-38,1,15,1,49,1,16,1,37,1
1209,37,1,29,1,-8,1,-33,1,23,1,11,1,-47,1,-38,1,17,1,50,1,16,1,37,1
1210,36,1,26,1,-10,1,-31,1,23,1,8,1,-46,1,-38,1,20,1,52,1,18,1,39,1
1211,33,1,25,1,-8,1,-29,1,21,1,9,1,-43,1,-36,1,25,1,54,1,21,1,43,1
1212,31,1,23,1,-8,1,-27,1,20,1,8,1,-40,1,-36,1,28,1,54,1,22,1,45,1
1213,28,1,22,1,-6,1,-25,1,17,1,8,1,-37,1,-36,1,30,1,53,1,20,1,45,1
1214,27,1,21,1,-6,1,-24,1,17,1,8,1,-35,1,-38,1,32,1,51,1,18,1,43,1
1215,24,1,18,1,-6,1,-21,1,15,1,6,1,-32,1,-40,1,32,1,49,1,14,1,42,1
1216,20,1,15,1,-5,1,-17,1,13,1,5,1,-29,1,-40,1,31,1,46,1,11,1,41,1
1217,16,1,12,1,-4,1,-14,1,10,1,4,1,-26,1,-41,1,28,1,44,1,9,1,39,1
1218,13,1,10,1,-3,1,-11,1,8,1,4,1,-23,1,-41,1,27,1,43,1,9,1,39,1
1219,10,1,10,1,0,1,-10,1,5,1,5,1,-21,1,-41,1,25,1,42,1,8,1,37,1
1220,7,1,9,1,2,1,-8,1,3,1,6,1,-21,1,-41,1,22,1,40,1,6,1,33,1
1221,5,1,8,1,3,1,-6,1,1,1,6,1,-21,1,-42,1,16,1,36,1,1,1,28,1
1222,3,1,6,1,3,1,-4,1,0,1,5,1,-19,1,-43,1,11,1,32,1,-3,1,25,1
1223,2,1,2,1,0,1,-2,1,1,1,1,1,-17,1,-41,1,7,1,30,1,-5,1,24,1
1224,1,1,-3,1,-4,1,1,1,2,1,-3,1,-14,1,-40,1,4,1,29,1,-6,1,25,1
1225,0,1,-8,1,-8,1,4,1,4,1,-8,1,-13,1,-39,1,2,1,29,1,-6,1,25,1
1226,0,1,-10,1,-10,1,5,1,5,1,-10,1,-11,1,-38,1,-1,1,29,1,-6,1,25,1
1227,0,1,-10,1,-10,1,5,1,5,1,-10,1,-9,1,-37,1,-2,1,29,1,-6,1,24,1
1228,-1,1,-10,1,-9,1,5,1,4,1,-10,1,-8,1,-36,1,-3,1,28,1,-7,1,23,1
1229,0,1,-10,1,-10,1,5,1,5,1,-10,1,-7,1,-35,1,-3,1,29,1,-6,1,23,1
1230,1,1,-9,1,-10,1,4,1,5,1,-9,1,-7,1,-36,1,-4,1,28,1,-5,1,23,1
1231,2,1,-9,1,-11,1,3,1,6,1,-10,1,-7,1,-36,1,-5,1,28,1,-5,1,23,1
1232,2,1,-9,1,-11,1,3,1,6,1,-10,1,-6,1,-35,1,-4,1,28,1,-5,1,23,1
1233,1,1,-9,1,-10,1,4,1,5,1,-9,1,-5,1,-34,1,-3,1,28,1,-7,1,23,1
1234,0,1,-9,1,-9,1,4,1,4,1,-9,1,-3,1,-34,1,-3,1,27,1,-8,1,24,1
1235,0,1,-9,1,-9,1,4,1,4,1,-9,1,-3,1,-33,1,-4,1,27,1,-8,1,24,1
1236,-1,1,-8,1,-7,1,4,1,3,1,-8,1,-2,1,-33,1,-3,1,27,1,-9,1,26,1
1237,0,1,-7,1,-7,1,3,1,3,1,-7,1,-2,1,-32,1,-2,1,28,1,-7,1,29,1
1238,0,1,-7,1,-7,1,3,1,3,1,-7,1,-1,1,-31,1,-3,1,28,1,-6,1,31,1
1239,-1,1,-6,1,-5,1,3,1,2,1,-6,1,-2,1,-30,1,-5,1,29,1,-5,1,32,1
1240,-1,1,-5,1,-4,1,3,1,1,1,-5,1,-1,1,-29,1,-7,1,30,1,-3,1,33,1
1241,-1,1,-5,1,-4,1,3,1,1,1,-5,1,0,1,-27,1,-7,1,32,1,0,1,35,1
1242,-3,1,-5,1,-2,1,4,1,-1,1,-4,1,3,1,-25,1,-5,1,33,1,0,1,35,1
1243,-6,1,-5,1,1,1,5,1,-4,1,-2,1,7,1,-23,1,-2,1,35,1,1,1,35,1
1244,-9,1,-5,1,4,1,7,1,-7,1,-1,1,12,1,-20,1,3,1,36,1,0,1,32,1
1245,-13,1,-3,1,10,1,8,1,-12,1,3,1,17,1,-14,1,11,1,39,1,0,1,30,1
1246,-18,1,-1,1,17,1,9,1,-18,1,8,1,24,1,-5,1,22,1,44,1,1,1,27,1
1247,-26,1,-1,1,25,1,13,1,-26,1,12,1,34,1,7,1,36,1,52,1,5,1,25,1
1248,-32,1,2,1,34,1,15,1,-33,1,18,1,46,1,21,1,51,1,64,1,12,1,24,1
1249,-38,1,7,1,45,1,15,1,-41,1,26,1,60,1,39,1,71,1,80,1,23,1,25,1
1250,-44,1,11,1,55,1,16,1,-49,1,33,1,75,1,59,1,96,1,103,1,38,1,26,1
1251,-49,1,17,1,66,1,16,1,-57,1,41,1,90,1,82,1,127,1,137,1,64,1,33,1
1252,-52,1,26,1,78,1,13,1,-65,1,52,1,106,1,111,1,168,1,184,1,105,1,46,1
1253,-53,1,33,1,86,1,10,1,-69,1,59,1,122,1,144,1,216,1,242,1,152,1,64,1
1254,-51,1,43,1,94,1,4,1,-72,1,68,1,138,1,182,1,274,1,306,1,206,1,85,1
1255,-46,1,55,1,101,1,-4,1,-73,1,78,1,154,1,223,1,336,1,374,1,261,1,108,1
1256,-36,1,69,1,105,1,-16,1,-70,1,87,1,169,1,267,1,402,1,446,1,320,1,135,1
1257,-25,1,85,1,110,1,-30,1,-67,1,97,1,183,1,312,1,470,1,520,1,383,1,166,1
1258,-9,1,103,1,112,1,-47,1,-60,1,107,1,194,1,355,1,537,1,594,1,445,1,196,1
1259,9,1,121,1,112,1,-65,1,-51,1,117,1,204,1,400,1,605,1,670,1,506,1,225,1
1260,29,1,134,1,105,1,-81,1,-38,1,120,1,211,1,444,1,670,1,741,1,560,1,251,1
1261,52,1,140,1,88,1,-96,1,-18,1,114,1,216,1,485,1,728,1,802,1,604,1,274,1
1262,76,1,143,1,67,1,-109,1,5,1,105,1,217,1,520,1,772,1,847,1,636,1,295,1
1263,100,1,143,1,43,1,-121,1,29,1,93,1,213,1,542,1,791,1,858,1,643,1,310,1
1264,116,1,138,1,22,1,-127,1,47,1,80,1,205,1,547,1,774,1,820,1,615,1,312,1
1265,120,1,120,1,0,1,-120,1,60,1,60,1,199,1,536,1,710,1,712,1,514,1,272,1
1266,111,1,84,1,-27,1,-97,1,69,1,29,1,198,1,509,1,591,1,518,1,314,1,173,1
1267,95,1,40,1,-55,1,-67,1,75,1,-7,1,198,1,473,1,447,1,296,1,89,1,61,1
1268,77,1,3,1,-74,1,-40,1,76,1,-35,1,195,1,434,1,312,1,110,1,-81,1,-23,1
1269,57,1,-20,1,-77,1,-18,1,67,1,-48,1,185,1,387,1,195,1,-25,1,-187,1,-72,1
1270,40,1,-36,1,-76,1,-2,1,58,1,-56,1,172,1,343,1,108,1,-109,1,-248,1,-100,1
1271,28,1,-50,1,-78,1,11,1,53,1,-64,1,160,1,300,1,42,1,-162,1,-281,1,-116,1
1272,15,1,-62,1,-77,1,23,1,46,1,-69,1,150,1,258,1,-10,1,-190,1,-292,1,-121,1
1273,3,1,-69,1,-72,1,33,1,37,1,-70,1,141,1,219,1,-45,1,-200,1,-284,1,-118,1
1274,-7,1,-74,1,-67,1,40,1,30,1,-71,1,133,1,186,1,-68,1,-197,1,-265,1,-109,1
1275,-15,1,-78,1,-63,1,46,1,24,1,-71,1,121,1,150,1,-86,1,-186,1,-240,1,-96,1
1276,-21,1,-80,1,-59,1,50,1,19,1,-70,1,106,1,115,1,-97,1,-170,1,-211,1,-80,1
1277,-23,1,-80,1,-57,1,51,1,17,1,-69,1,86,1,80,1,-105,1,-152,1,-181,1,-64,1
1278,-21,1,-75,1,-54,1,48,1,16,1,-65,1,62,1,44,1,-115,1,-138,1,-156,1,-47,1
1279,-17,1,-68,1,-51,1,42,1,17,1,-60,1,39,1,10,1,-124,1,-125,1,-136,1,-33,1
1280,-14,1,-64,1,-50,1,39,1,18,1,-57,1,23,1,-11,1,-126,1,-112,1,-121,1,-22,1
1281,-12,1,-61,1,-49,1,36,1,18,1,-55,1,15,1,-24,1,-124,1,-100,1,-112,1,-14,1
1282,-11,1,-57,1,-46,1,34,1,17,1,-52,1,11,1,-32,1,-122,1,-91,1,-105,1,-10,1
1283,-9,1,-52,1,-43,1,30,1,17,1,-48,1,6,1,-40,1,-120,1,-83,1,-97,1,-5,1
1284,-9,1,-44,1,-35,1,26,1,13,1,-40,1,2,1,-47,1,-119,1,-77,1,-87,1,-1,1
1285,-9,1,-33,1,-24,1,21,1,7,1,-29,1,-1,1,-51,1,-117,1,-71,1,-77,1,4,1
1286,-9,1,-26,1,-17,1,17,1,4,1,-22,1,-3,1,-52,1,-115,1,-66,1,-68,1,10,1
1287,-9,1,-22,1,-13,1,15,1,2,1,-18,1,-5,1,-51,1,-113,1,-61,1,-61,1,17,1
1288,-9,1,-22,1,-13,1,15,1,2,1,-18,1,-8,1,-51,1,-110,1,-56,1,-56,1,23,1
1289,-9,1,-23,1,-14,1,16,1,2,1,-19,1,-12,1,-52,1,-109,1,-53,1,-55,1,26,1
1290,-10,1,-24,1,-14,1,17,1,2,1,-19,1,-15,1,-53,1,-109,1,-52,1,-57,1,27,1
1291,-10,1,-26,1,-16,1,18,1,3,1,-21,1,-17,1,-54,1,-109,1,-51,1,-59,1,25,1
1292,-10,1,-25,1,-15,1,17,1,2,1,-20,1,-18,1,-56,1,-110,1,-52,1,-62,1,23,1
1293,-8,1,-24,1,-16,1,16,1,4,1,-20,1,-19,1,-58,1,-110,1,-52,1,-63,1,22,1
1294,-8,1,-23,1,-15,1,15,1,3,1,-19,1,-20,1,-60,1,-109,1,-51,1,-60,1,23,1
1295,-8,1,-22,1,-14,1,15,1,3,1,-18,1,-20,1,-59,1,-107,1,-50,1,-56,1,26,1
1296,-8,1,-22,1,-14,1,15,1,3,1,-18,1,-20,1,-57,1,-104,1,-48,1,-52,1,28,1
1297,-9,1,-22,1,-13,1,15,1,2,1,-18,1,-19,1,-54,1,-102,1,-48,1,-51,1,29,1
1298,-9,1,-20,1,-11,1,14,1,1,1,-16,1,-20,1,-52,1,-101,1,-47,1,-51,1,29,1
1299,-9,1,-19,1,-10,1,14,1,0,1,-15,1,-21,1,-51,1,-100,1,-47,1,-51,1,31,1
1300,-9,1,-19,1,-10,1,14,1,0,1,-15,1,-22,1,-50,1,-99,1,-46,1,-51,1,32,1
1301,-8,1,-18,1,-10,1,13,1,1,1,-14,1,-24,1,-49,1,-98,1,-46,1,-53,1,32,1
1302,-7,1,-18,1,-11,1,12,1,2,1,-15,1,-25,1,-49,1,-98,1,-46,1,-55,1,32,1
1303,-7,1,-18,1,-11,1,12,1,2,1,-15,1,-25,1,-49,1,-97,1,-46,1,-56,1,32,1
1304,-8,1,-18,1,-10,1,13,1,1,1,-14,1,-25,1,-49,1,-95,1,-46,1,-55,1,32,1
1305,-7,1,-19,1,-12,1,13,1,2,1,-16,1,-24,1,-48,1,-93,1,-45,1,-53,1,33,1
1306,-6,1,-19,1,-13,1,12,1,3,1,-16,1,-24,1,-49,1,-92,1,-45,1,-52,1,35,1
1307,-6,1,-19,1,-13,1,12,1,3,1,-16,1,-24,1,-48,1,-90,1,-45,1,-52,1,35,1
1308,-6,1,-17,1,-11,1,11,1,2,1,-14,1,-25,1,-47,1,-89,1,-45,1,-51,1,35,1
1309,-7,1,-17,1,-10,1,12,1,1,1,-14,1,-25,1,-46,1,-88,1,-45,1,-51,1,35,1
1310,-8,1,-16,1,-8,1,12,1,0,1,-12,1,-26,1,-45,1,-87,1,-45,1,-52,1,35,1
1311,-9,1,-19,1,-10,1,14,1,0,1,-15,1,-26,1,-44,1,-84,1,-45,1,-53,1,35,1
1312,-9,1,-20,1,-11,1,14,1,1,1,-16,1,-28,1,-43,1,-83,1,-45,1,-53,1,34,1
1313,-9,1,-20,1,-11,1,14,1,1,1,-16,1,-28,1,-42,1,-83,1,-45,1,-54,1,34,1
1314,-9,1,-21,1,-12,1,15,1,1,1,-17,1,-28,1,-42,1,-84,1,-45,1,-54,1,33,1
1315,-9,1,-21,1,-12,1,15,1,1,1,-17,1,-29,1,-41,1,-83,1,-45,1,-53,1,34,1
1316,-9,1,-20,1,-11,1,14,1,1,1,-16,1,-29,1,-41,1,-83,1,-45,1,-53,1,33,1
1317,-8,1,-18,1,-10,1,13,1,1,1,-14,1,-29,1,-40,1,-82,1,-44,1,-52,1,33,1
1318,-7,1,-18,1,-11,1,12,1,2,1,-15,1,-29,1,-40,1,-81,1,-44,1,-52,1,33,1
1319,-8,1,-19,1,-11,1,13,1,1,1,-15,1,-29,1,-39,1,-80,1,-45,1,-52,1,33,1
1320,-8,1,-19,1,-11,1,13,1,1,1,-15,1,-30,1,-38,1,-76,1,-46,1,-53,1,33,1
1321,-8,1,-19,1,-11,1,13,1,1,1,-15,1,-31,1,-38,1,-73,1,-46,1,-54,1,34,1
1322,-7,1,-17,1,-10,1,12,1,1,1,-14,1,-31,1,-36,1,-68,1,-46,1,-54,1,34,1
1323,-6,1,-15,1,-9,1,10,1,1,1,-12,1,-31,1,-35,1,-65,1,-45,1,-52,1,34,1
1324,-5,1,-15,1,-10,1,10,1,2,1,-13,1,-32,1,-35,1,-62,1,-45,1,-52,1,34,1
1325,-5,1,-15,1,-10,1,10,1,2,1,-13,1,-33,1,-36,1,-61,1,-46,1,-54,1,33,1
1326,-6,1,-14,1,-8,1,10,1,1,1,-11,1,-34,1,-35,1,-61,1,-46,1,-55,1,32,1
1327,-5,1,-13,1,-8,1,9,1,1,1,-11,1,-34,1,-35,1,-60,1,-46,1,-54,1,33,1
1328,-4,1,-11,1,-7,1,7,1,1,1,-9,1,-33,1,-34,1,-62,1,-46,1,-55,1,33,1
1329,-4,1,-11,1,-7,1,7,1,1,1,-9,1,-34,1,-35,1,-63,1,-47,1,-55,1,32,1
1330,-4,1,-12,1,-8,1,8,1,2,1,-10,1,-34,1,-35,1,-66,1,-48,1,-56,1,31,1
1331,-5,1,-13,1,-8,1,9,1,1,1,-11,1,-34,1,-35,1,-68,1,-49,1,-57,1,31,1
1332,-6,1,-13,1,-7,1,9,1,0,1,-10,1,-34,1,-34,1,-71,1,-49,1,-56,1,30,1
1333,-7,1,-12,1,-5,1,9,1,-1,1,-9,1,-34,1,-34,1,-72,1,-49,1,-56,1,31,1
1334,-5,1,-11,1,-6,1,8,1,0,1,-9,1,-35,1,-33,1,-74,1,-50,1,-56,1,31,1
1335,-5,1,-11,1,-6,1,8,1,0,1,-9,1,-36,1,-34,1,-75,1,-51,1,-57,1,31,1
1336,-6,1,-13,1,-7,1,9,1,0,1,-10,1,-36,1,-35,1,-76,1,-52,1,-58,1,31,1
1337,-6,1,-13,1,-7,1,9,1,0,1,-10,1,-36,1,-35,1,-78,1,-53,1,-59,1,30,1
1338,-6,1,-13,1,-7,1,9,1,0,1,-10,1,-36,1,-34,1,-78,1,-53,1,-59,1,31,1
1339,-5,1,-14,1,-9,1,9,1,2,1,-12,1,-37,1,-34,1,-79,1,-54,1,-59,1,30,1
1340,-4,1,-13,1,-9,1,8,1,2,1,-11,1,-38,1,-34,1,-80,1,-53,1,-59,1,31,1
1341,-5,1,-12,1,-7,1,8,1,1,1,-10,1,-38,1,-34,1,-80,1,-53,1,-58,1,31,1
1342,-5,1,-11,1,-6,1,8,1,0,1,-9,1,-39,1,-33,1,-80,1,-53,1,-59,1,31,1
1343,-5,1,-11,1,-6,1,8,1,0,1,-9,1,-39,1,-32,1,-79,1,-54,1,-60,1,29,1
1344,-5,1,-10,1,-5,1,7,1,0,1,-8,1,-39,1,-32,1,-78,1,-54,1,-61,1,30,1
1345,-5,1,-10,1,-5,1,7,1,0,1,-8,1,-40,1,-32,1,-78,1,-54,1,-61,1,30,1
1346,-5,1,-9,1,-4,1,7,1,-1,1,-7,1,-39,1,-32,1,-79,1,-55,1,-61,1,31,1
1347,-6,1,-10,1,-4,1,8,1,-1,1,-7,1,-38,1,-31,1,-78,1,-56,1,-61,1,32,1
1348,-8,1,-11,1,-3,1,9,1,-3,1,-7,1,-37,1,-30,1,-79,1,-56,1,-61,1,31,1
1349,-8,1,-12,1,-4,1,10,1,-2,1,-8,1,-37,1,-30,1,-80,1,-57,1,-62,1,31,1
1350,-7,1,-12,1,-5,1,9,1,-1,1,-9,1,-37,1,-30,1,-81,1,-57,1,-63,1,30,1
1351,-7,1,-11,1,-4,1,9,1,-2,1,-8,1,-37,1,-28,1,-82,1,-57,1,-64,1,31,1
1352,-8,1,-10,1,-2,1,9,1,-3,1,-6,1,-37,1,-28,1,-82,1,-58,1,-65,1,30,1
1353,-7,1,-9,1,-2,1,8,1,-3,1,-6,1,-37,1,-28,1,-82,1,-58,1,-66,1,30,1
1354,-6,1,-9,1,-3,1,7,1,-2,1,-6,1,-38,1,-29,1,-82,1,-59,1,-66,1,29,1
1355,-6,1,-8,1,-2,1,7,1,-2,1,-5,1,-38,1,-29,1,-81,1,-59,1,-67,1,28,1
1356,-6,1,-9,1,-3,1,7,1,-2,1,-6,1,-39,1,-29,1,-80,1,-60,1,-68,1,27,1
1357,-6,1,-9,1,-3,1,7,1,-2,1,-6,1,-38,1,-29,1,-78,1,-60,1,-68,1,28,1
1358,-5,1,-8,1,-3,1,6,1,-1,1,-6,1,-38,1,-29,1,-77,1,-61,1,-69,1,28,1
1359,-5,1,-8,1,-3,1,6,1,-1,1,-6,1,-37,1,-29,1,-77,1,-61,1,-70,1,27,1
1360,-6,1,-8,1,-2,1,7,1,-2,1,-5,1,-37,1,-30,1,-76,1,-62,1,-71,1,27,1
1361,-6,1,-9,1,-3,1,7,1,-2,1,-6,1,-37,1,-30,1,-74,1,-62,1,-71,1,28,1
1362,-7,1,-8,1,-1,1,7,1,-3,1,-5,1,-37,1,-30,1,-73,1,-63,1,-72,1,28,1
1363,-8,1,-6,1,2,1,7,1,-5,1,-2,1,-38,1,-31,1,-72,1,-63,1,-73,1,28,1
1364,-8,1,-5,1,3,1,6,1,-6,1,-1,1,-38,1,-32,1,-71,1,-64,1,-74,1,28,1
1365,-8,1,-5,1,3,1,6,1,-6,1,-1,1,-38,1,-32,1,-71,1,-64,1,-76,1,26,1
1366,-8,1,-6,1,2,1,7,1,-5,1,-2,1,-37,1,-33,1,-70,1,-65,1,-78,1,26,1
1367,-8,1,-7,1,1,1,7,1,-5,1,-3,1,-36,1,-32,1,-70,1,-65,1,-77,1,25,1
1368,-8,1,-6,1,2,1,7,1,-5,1,-2,1,-36,1,-33,1,-69,1,-67,1,-76,1,27,1
1369,-8,1,-5,1,3,1,6,1,-6,1,-1,1,-36,1,-34,1,-68,1,-67,1,-77,1,26,1
1370,-9,1,-4,1,5,1,6,1,-7,1,0,1,-36,1,-35,1,-68,1,-69,1,-77,1,24,1
1371,-9,1,-3,1,6,1,6,1,-8,1,1,1,-36,1,-36,1,-67,1,-70,1,-78,1,24,1
1372,-9,1,-2,1,7,1,5,1,-8,1,2,1,-35,1,-36,1,-66,1,-71,1,-79,1,23,1
1373,-9,1,-2,1,7,1,5,1,-8,1,2,1,-34,1,-36,1,-65,1,-71,1,-79,1,23,1
1374,-10,1,-2,1,8,1,6,1,-9,1,3,1,-35,1,-37,1,-67,1,-71,1,-80,1,23,1
1375,-11,1,-3,1,8,1,7,1,-10,1,2,1,-35,1,-38,1,-68,1,-71,1,-81,1,24,1
1376,-11,1,-3,1,8,1,7,1,-10,1,2,1,-34,1,-38,1,-69,1,-70,1,-80,1,25,1
1377,-10,1,-2,1,8,1,6,1,-9,1,3,1,-33,1,-38,1,-70,1,-70,1,-80,1,25,1
1378,-11,1,-1,1,10,1,6,1,-11,1,4,1,-32,1,-38,1,-71,1,-71,1,-80,1,24,1
1379,-12,1,0,1,12,1,6,1,-12,1,6,1,-31,1,-38,1,-71,1,-71,1,-81,1,23,1
1380,-12,1,1,1,13,1,5,1,-12,1,7,1,-31,1,-40,1,-71,1,-71,1,-80,1,22,1
1381,-13,1,2,1,15,1,5,1,-14,1,8,1,-31,1,-41,1,-71,1,-70,1,-79,1,23,1
1382,-14,1,2,1,16,1,6,1,-15,1,9,1,-32,1,-42,1,-72,1,-70,1,-79,1,23,1
1383,-13,1,3,1,16,1,5,1,-14,1,9,1,-33,1,-44,1,-73,1,-70,1,-78,1,24,1
1384,-12,1,5,1,17,1,3,1,-14,1,11,1,-33,1,-44,1,-73,1,-70,1,-77,1,24,1
1385,-12,1,6,1,18,1,3,1,-15,1,12,1,-34,1,-45,1,-74,1,-68,1,-76,1,25,1
1386,-12,1,8,1,20,1,2,1,-16,1,14,1,-34,1,-44,1,-73,1,-66,1,-74,1,25,1
1387,-11,1,8,1,19,1,1,1,-15,1,13,1,-33,1,-44,1,-72,1,-65,1,-72,1,27,1
1388,-10,1,9,1,19,1,0,1,-14,1,14,1,-33,1,-44,1,-71,1,-63,1,-70,1,27,1
1389,-10,1,10,1,20,1,0,1,-15,1,15,1,-33,1,-44,1,-71,1,-61,1,-68,1,29,1
1390,-10,1,11,1,21,1,0,1,-15,1,16,1,-34,1,-44,1,-70,1,-59,1,-65,1,30,1
1391,-11,1,12,1,23,1,0,1,-17,1,17,1,-35,1,-45,1,-69,1,-56,1,-61,1,32,1
1392,-12,1,13,1,25,1,0,1,-18,1,19,1,-36,1,-45,1,-69,1,-53,1,-58,1,33,1
1393,-10,1,15,1,25,1,-2,1,-17,1,20,1,-36,1,-44,1,-65,1,-49,1,-55,1,35,1
1394,-10,1,15,1,25,1,-2,1,-17,1,20,1,-37,1,-44,1,-62,1,-46,1,-52,1,37,1
1395,-8,1,16,1,24,1,-4,1,-16,1,20,1,-38,1,-46,1,-61,1,-42,1,-48,1,40,1
1396,-8,1,17,1,25,1,-4,1,-16,1,21,1,-37,1,-45,1,-58,1,-38,1,-44,1,42,1
1397,-8,1,18,1,26,1,-5,1,-17,1,22,1,-37,1,-44,1,-57,1,-35,1,-39,1,45,1
1398,-7,1,19,1,26,1,-6,1,-16,1,22,1,-37,1,-45,1,-56,1,-31,1,-35,1,46,1
1399,-7,1,20,1,27,1,-6,1,-17,1,23,1,-36,1,-44,1,-55,1,-28,1,-31,1,48,1
1400,-7,1,20,1,27,1,-6,1,-17,1,23,1,-36,1,-44,1,-54,1,-26,1,-26,1,50,1
1401,-7,1,21,1,28,1,-7,1,-17,1,24,1,-37,1,-44,1,-52,1,-21,1,-22,1,53,1
1402,-4,1,24,1,28,1,-10,1,-16,1,26,1,-36,1,-44,1,-51,1,-17,1,-18,1,54,1
1403,-3,1,26,1,29,1,-11,1,-16,1,27,1,-36,1,-43,1,-48,1,-12,1,-14,1,57,1
1404,-2,1,27,1,29,1,-12,1,-15,1,28,1,-37,1,-43,1,-45,1,-8,1,-10,1,59,1
1405,-1,1,28,1,29,1,-13,1,-15,1,28,1,-38,1,-42,1,-42,1,-3,1,-5,1,61,1
1406,0,1,28,1,28,1,-14,1,-14,1,28,1,-39,1,-41,1,-39,1,1,1,-2,1,63,1
1407,1,1,29,1,28,1,-15,1,-13,1,29,1,-39,1,-41,1,-36,1,6,1,3,1,66,1
1408,1,1,29,1,28,1,-15,1,-13,1,29,1,-39,1,-40,1,-33,1,11,1,7,1,68,1
1409,1,1,30,1,29,1,-15,1,-14,1,30,1,-39,1,-39,1,-31,1,15,1,12,1,70,1
1410,2,1,30,1,28,1,-16,1,-13,1,29,1,-40,1,-38,1,-29,1,19,1,17,1,73,1
1411,3,1,29,1,26,1,-16,1,-11,1,28,1,-39,1,-36,1,-27,1,24,1,21,1,74,1
1412,3,1,28,1,25,1,-15,1,-11,1,27,1,-39,1,-34,1,-24,1,28,1,24,1,76,1
1413,3,1,28,1,25,1,-15,1,-11,1,27,1,-39,1,-34,1,-22,1,32,1,27,1,77,1
1414,4,1,28,1,24,1,-16,1,-10,1,26,1,-39,1,-33,1,-19,1,36,1,31,1,79,1
1415,6,1,28,1,22,1,-17,1,-8,1,25,1,-39,1,-31,1,-16,1,41,1,34,1,81,1
1416,7,1,29,1,22,1,-18,1,-7,1,26,1,-39,1,-30,1,-12,1,43,1,36,1,83,1
1417,8,1,28,1,20,1,-18,1,-6,1,24,1,-38,1,-29,1,-10,1,45,1,38,1,84,1
1418,9,1,28,1,19,1,-18,1,-5,1,24,1,-38,1,-27,1,-7,1,47,1,40,1,85,1
1419,9,1,28,1,19,1,-18,1,-5,1,24,1,-36,1,-26,1,-5,1,49,1,43,1,85,1
1420,8,1,26,1,18,1,-17,1,-5,1,22,1,-35,1,-26,1,-5,1,50,1,43,1,86,1
1421,8,1,26,1,18,1,-17,1,-5,1,22,1,-34,1,-25,1,-4,1,51,1,44,1,86,1
1422,9,1,25,1,16,1,-17,1,-3,1,21,1,-34,1,-23,1,-3,1,52,1,45,1,87,1
1423,8,1,24,1,16,1,-16,1,-4,1,20,1,-33,1,-23,1,-3,1,54,1,45,1,88,1
1424,7,1,22,1,15,1,-14,1,-4,1,19,1,-33,1,-23,1,-4,1,54,1,45,1,88,1
1425,8,1,22,1,14,1,-15,1,-3,1,18,1,-32,1,-22,1,-5,1,55,1,44,1,87,1
1426,9,1,22,1,13,1,-15,1,-2,1,18,1,-31,1,-22,1,-5,1,54,1,44,1,87,1
1427,10,1,21,1,11,1,-15,1,0,1,16,1,-30,1,-21,1,-5,1,54,1,44,1,86,1
1428,9,1,20,1,11,1,-14,1,-1,1,16,1,-29,1,-20,1,-6,1,53,1,43,1,87,1
1429,9,1,20,1,11,1,-14,1,-1,1,16,1,-29,1,-20,1,-7,1,53,1,42,1,87,1
1430,9,1,19,1,10,1,-14,1,0,1,15,1,-28,1,-19,1,-8,1,52,1,41,1,85,1
1431,10,1,18,1,8,1,-14,1,1,1,13,1,-27,1,-18,1,-7,1,51,1,41,1,85,1
1432,11,1,17,1,6,1,-14,1,3,1,12,1,-25,1,-18,1,-7,1,51,1,40,1,85,1
1433,11,1,16,1,5,1,-13,1,3,1,11,1,-24,1,-17,1,-6,1,51,1,39,1,85,1
1434,11,1,14,1,3,1,-12,1,4,1,9,1,-23,1,-17,1,-5,1,50,1,39,1,85,1
1435,12,1,13,1,1,1,-12,1,6,1,7,1,-23,1,-17,1,-5,1,49,1,36,1,83,1
1436,12,1,13,1,1,1,-12,1,6,1,7,1,-22,1,-16,1,-4,1,48,1,34,1,82,1
1437,11,1,12,1,1,1,-11,1,5,1,7,1,-21,1,-15,1,-3,1,47,1,34,1,81,1
1438,10,1,12,1,2,1,-11,1,4,1,7,1,-20,1,-16,1,-2,1,45,1,33,1,80,1
1439,9,1,12,1,3,1,-10,1,3,1,8,1,-20,1,-17,1,-1,1,44,1,32,1,79,1
1440,9,1,12,1,3,1,-10,1,3,1,8,1,-19,1,-17,1,0,1,42,1,31,1,79,1
1441,8,1,11,1,3,1,-9,1,3,1,7,1,-19,1,-18,1,0,1,41,1,30,1,78,1
1442,7,1,11,1,4,1,-9,1,2,1,8,1,-18,1,-18,1,2,1,40,1,29,1,78,1
1443,7,1,10,1,3,1,-8,1,2,1,7,1,-17,1,-17,1,2,1,40,1,28,1,78,1
1444,8,1,10,1,2,1,-9,1,3,1,6,1,-18,1,-18,1,2,1,38,1,27,1,76,1
1445,9,1,10,1,1,1,-9,1,4,1,6,1,-17,1,-18,1,1,1,37,1,26,1,76,1
1446,10,1,9,1,-1,1,-9,1,6,1,4,1,-17,1,-17,1,0,1,37,1,27,1,77,1
1447,10,1,8,1,-2,1,-9,1,6,1,3,1,-16,1,-17,1,0,1,36,1,26,1,77,1
1448,10,1,7,1,-3,1,-8,1,7,1,2,1,-16,1,-18,1,0,1,35,1,25,1,78,1
1449,10,1,6,1,-4,1,-8,1,7,1,1,1,-15,1,-18,1,0,1,34,1,25,1,77,1
1450,10,1,6,1,-4,1,-8,1,7,1,1,1,-15,1,-19,1,-1,1,34,1,25,1,77,1
1451,11,1,6,1,-5,1,-8,1,8,1,1,1,-14,1,-20,1,0,1,33,1,24,1,77,1
1452,10,1,5,1,-5,1,-7,1,8,1,0,1,-13,1,-20,1,0,1,33,1,23,1,77,1
1453,9,1,4,1,-5,1,-6,1,7,1,0,1,-12,1,-19,1,0,1,32,1,23,1,77,1
1454,9,1,4,1,-5,1,-6,1,7,1,0,1,-12,1,-19,1,0,1,32,1,22,1,75,1
1455,9,1,4,1,-5,1,-6,1,7,1,0,1,-12,1,-20,1,0,1,32,1,22,1,75,1
1456,9,1,5,1,-4,1,-7,1,7,1,1,1,-11,1,-20,1,0,1,32,1,21,1,75,1
1457,9,1,6,1,-3,1,-7,1,6,1,2,1,-11,1,-21,1,0,1,31,1,20,1,74,1
1458,10,1,6,1,-4,1,-8,1,7,1,1,1,-12,1,-21,1,1,1,31,1,19,1,74,1
1459,9,1,7,1,-2,1,-8,1,6,1,3,1,-12,1,-22,1,2,1,31,1,18,1,73,1
1460,9,1,7,1,-2,1,-8,1,6,1,3,1,-12,1,-22,1,3,1,30,1,18,1,73,1
1461,8,1,7,1,-1,1,-7,1,5,1,3,1,-11,1,-22,1,3,1,30,1,17,1,73,1
1462,9,1,7,1,-2,1,-8,1,6,1,3,1,-11,1,-22,1,3,1,30,1,17,1,72,1
1463,9,1,5,1,-4,1,-7,1,7,1,1,1,-10,1,-23,1,3,1,29,1,17,1,72,1
1464,9,1,4,1,-5,1,-6,1,7,1,0,1,-9,1,-23,1,4,1,29,1,16,1,71,1
1465,10,1,4,1,-6,1,-7,1,8,1,-1,1,-8,1,-22,1,3,1,29,1,17,1,72,1
1466,10,1,4,1,-6,1,-7,1,8,1,-1,1,-6,1,-22,1,4,1,29,1,18,1,73,1
1467,9,1,3,1,-6,1,-6,1,8,1,-1,1,-5,1,-20,1,5,1,29,1,18,1,73,1
1468,9,1,2,1,-7,1,-5,1,8,1,-2,1,-4,1,-20,1,5,1,28,1,18,1,73,1
1469,9,1,2,1,-7,1,-5,1,8,1,-2,1,-4,1,-20,1,4,1,28,1,18,1,74,1
1470,9,1,2,1,-7,1,-5,1,8,1,-2,1,-4,1,-21,1,4,1,28,1,17,1,73,1
1471,9,1,2,1,-7,1,-5,1,8,1,-2,1,-4,1,-21,1,4,1,27,1,16,1,73,1
1472,9,1,2,1,-7,1,-5,1,8,1,-2,1,-4,1,-22,1,4,1,26,1,16,1,73,1
1473,9,1,3,1,-6,1,-6,1,8,1,-1,1,-4,1,-22,1,3,1,26,1,16,1,73,1
1474,8,1,4,1,-4,1,-6,1,6,1,0,1,-4,1,-22,1,3,1,26,1,16,1,73,1
1475,8,1,4,1,-4,1,-6,1,6,1,0,1,-4,1,-23,1,3,1,26,1,16,1,73,1
1476,7,1,5,1,-2,1,-6,1,5,1,2,1,-4,1,-24,1,4,1,26,1,15,1,72,1
1477,7,1,4,1,-3,1,-5,1,5,1,1,1,-3,1,-23,1,3,1,27,1,15,1,72,1
1478,7,1,4,1,-3,1,-5,1,5,1,1,1,-2,1,-22,1,5,1,27,1,15,1,72,1
1479,7,1,3,1,-4,1,-5,1,6,1,0,1,-3,1,-22,1,7,1,26,1,14,1,71,1
1480,8,1,3,1,-5,1,-5,1,7,1,-1,1,-3,1,-23,1,9,1,25,1,14,1,71,1
1481,8,1,3,1,-5,1,-5,1,7,1,-1,1,-2,1,-23,1,9,1,25,1,14,1,70,1
1482,8,1,3,1,-5,1,-5,1,7,1,-1,1,-1,1,-24,1,11,1,25,1,14,1,70,1
1483,8,1,3,1,-5,1,-5,1,7,1,-1,1,0,1,-25,1,12,1,24,1,14,1,70,1
1484,8,1,2,1,-6,1,-5,1,7,1,-2,1,1,1,-26,1,13,1,24,1,15,1,69,1
1485,7,1,2,1,-5,1,-4,1,6,1,-1,1,1,1,-26,1,13,1,25,1,14,1,68,1
1486,7,1,2,1,-5,1,-4,1,6,1,-1,1,2,1,-26,1,13,1,25,1,14,1,68,1
1487,6,1,2,1,-4,1,-4,1,5,1,-1,1,3,1,-26,1,15,1,25,1,14,1,67,1
1488,5,1,2,1,-3,1,-3,1,4,1,0,1,4,1,-25,1,17,1,25,1,14,1,66,1
1489,5,1,2,1,-3,1,-3,1,4,1,0,1,4,1,-26,1,16,1,24,1,13,1,66,1
1490,6,1,2,1,-4,1,-4,1,5,1,-1,1,3,1,-26,1,15,1,22,1,12,1,65,1
1491,6,1,2,1,-4,1,-4,1,5,1,-1,1,3,1,-26,1,15,1,22,1,12,1,64,1
1492,7,1,2,1,-5,1,-4,1,6,1,-1,1,4,1,-26,1,16,1,21,1,11,1,64,1
1493,6,1,1,1,-5,1,-3,1,6,1,-2,1,4,1,-26,1,15,1,21,1,11,1,65,1
1494,6,1,1,1,-5,1,-3,1,6,1,-2,1,5,1,-27,1,15,1,20,1,11,1,65,1
1495,7,1,1,1,-6,1,-4,1,7,1,-2,1,5,1,-28,1,15,1,20,1,11,1,65,1
1496,7,1,1,1,-6,1,-4,1,7,1,-2,1,5,1,-27,1,15,1,21,1,11,1,65,1
1497,7,1,1,1,-6,1,-4,1,7,1,-2,1,5,1,-27,1,14,1,20,1,10,1,64,1
1498,7,1,1,1,-6,1,-4,1,7,1,-2,1,5,1,-28,1,12,1,20,1,9,1,64,1
1499,5,1,1,1,-4,1,-3,1,5,1,-1,1,5,1,-28,1,11,1,20,1,10,1,64,1
1500,5,1,2,1,-3,1,-3,1,4,1,0,1,5,1,-28,1,11,1,19,1,9,1,65,1
1501,5,1,2,1,-3,1,-3,1,4,1,0,1,5,1,-28,1,11,1,18,1,9,1,64,1
1502,6,1,2,1,-4,1,-4,1,5,1,-1,1,5,1,-29,1,10,1,18,1,9,1,64,1
1503,7,1,1,1,-6,1,-4,1,7,1,-2,1,4,1,-30,1,11,1,18,1,8,1,64,1
1504,7,1,1,1,-6,1,-4,1,7,1,-2,1,2,1,-30,1,12,1,17,1,7,1,63,1
1505,8,1,1,1,-7,1,-4,1,8,1,-3,1,2,1,-30,1,12,1,16,1,7,1,63,1
1506,8,1,1,1,-7,1,-4,1,8,1,-3,1,2,1,-30,1,11,1,16,1,6,1,64,1
1507,8,1,1,1,-7,1,-4,1,8,1,-3,1,2,1,-30,1,11,1,15,1,6,1,63,1
1508,8,1,1,1,-7,1,-4,1,8,1,-3,1,2,1,-31,1,12,1,15,1,6,1,62,1
1509,8,1,1,1,-7,1,-4,1,8,1,-3,1,2,1,-31,1,13,1,14,1,5,1,62,1
1510,8,1,1,1,-7,1,-4,1,8,1,-3,1,2,1,-32,1,14,1,14,1,5,1,62,1
1511,8,1,2,1,-6,1,-5,1,7,1,-2,1,2,1,-32,1,14,1,14,1,5,1,62,1
1512,9,1,2,1,-7,1,-5,1,8,1,-2,1,1,1,-32,1,16,1,14,1,5,1,60,1
1513,8,1,1,1,-7,1,-4,1,8,1,-3,1,1,1,-32,1,16,1,14,1,5,1,61,1
1514,6,1,0,1,-6,1,-3,1,6,1,-3,1,1,1,-33,1,16,1,12,1,5,1,61,1
1515,5,1,-1,1,-6,1,-2,1,5,1,-3,1,1,1,-34,1,15,1,11,1,5,1,61,1
1516,5,1,0,1,-5,1,-2,1,5,1,-2,1,2,1,-34,1,14,1,11,1,5,1,60,1
1517,5,1,0,1,-5,1,-2,1,5,1,-2,1,2,1,-34,1,14,1,10,1,4,1,60,1
1518,5,1,0,1,-5,1,-2,1,5,1,-2,1,3,1,-33,1,14,1,10,1,4,1,60,1
1519,5,1,0,1,-5,1,-2,1,5,1,-2,1,3,1,-33,1,13,1,11,1,3,1,60,1
1520,4,1,-1,1,-5,1,-1,1,4,1,-3,1,2,1,-34,1,13,1,10,1,2,1,59,1
1521,4,1,-2,1,-6,1,-1,1,5,1,-4,1,2,1,-34,1,14,1,10,1,2,1,59,1
1522,4,1,-3,1,-7,1,0,1,5,1,-5,1,2,1,-33,1,14,1,10,1,2,1,60,1
1523,5,1,-3,1,-8,1,-1,1,6,1,-5,1,3,1,-33,1,13,1,10,1,2,1,60,1
1524,5,1,-3,1,-8,1,-1,1,6,1,-5,1,2,1,-34,1,13,1,10,1,1,1,59,1
1525,6,1,-2,1,-8,1,-2,1,7,1,-5,1,1,1,-35,1,13,1,9,1,1,1,58,1
1526,5,1,-2,1,-7,1,-1,1,6,1,-4,1,0,1,-34,1,14,1,9,1,2,1,58,1
1527,4,1,-1,1,-5,1,-1,1,4,1,-3,1,0,1,-34,1,13,1,9,1,2,1,58,1
1528,5,1,0,1,-5,1,-2,1,5,1,-2,1,1,1,-35,1,14,1,8,1,2,1,57,1
1529,5,1,0,1,-5,1,-2,1,5,1,-2,1,1,1,-36,1,14,1,7,1,2,1,56,1
1530,6,1,0,1,-6,1,-3,1,6,1,-3,1,0,1,-37,1,13,1,6,1,2,1,56,1
1531,6,1,0,1,-6,1,-3,1,6,1,-3,1,-1,1,-37,1,12,1,6,1,1,1,56,1
1532,6,1,0,1,-6,1,-3,1,6,1,-3,1,-1,1,-36,1,13,1,6,1,1,1,56,1
1533,6,1,0,1,-6,1,-3,1,6,1,-3,1,0,1,-35,1,12,1,6,1,2,1,55,1
1534,4,1,-2,1,-6,1,-1,1,5,1,-4,1,0,1,-36,1,11,1,6,1,1,1,55,1
1535,5,1,-2,1,-7,1,-1,1,6,1,-4,1,-1,1,-36,1,10,1,6,1,1,1,55,1
1536,6,1,-1,1,-7,1,-2,1,6,1,-4,1,0,1,-35,1,10,1,7,1,2,1,56,1
1537,6,1,-2,1,-8,1,-2,1,7,1,-5,1,0,1,-35,1,10,1,8,1,1,1,56,1
1538,5,1,-2,1,-7,1,-1,1,6,1,-4,1,0,1,-34,1,11,1,8,1,1,1,55,1
1539,5,1,-2,1,-7,1,-1,1,6,1,-4,1,0,1,-34,1,10,1,8,1,2,1,55,1
1540,4,1,-3,1,-7,1,0,1,5,1,-5,1,0,1,-34,1,9,1,9,1,2,1,55,1
1541,4,1,-3,1,-7,1,0,1,5,1,-5,1,-1,1,-34,1,9,1,9,1,3,1,56,1
1542,4,1,-2,1,-6,1,-1,1,5,1,-4,1,-2,1,-34,1,9,1,9,1,3,1,56,1
1543,4,1,-2,1,-6,1,-1,1,5,1,-4,1,-2,1,-33,1,9,1,9,1,3,1,55,1
1544,5,1,-2,1,-7,1,-1,1,6,1,-4,1,-2,1,-34,1,8,1,9,1,3,1,54,1
1545,6,1,-1,1,-7,1,-2,1,6,1,-4,1,-3,1,-35,1,8,1,8,1,3,1,54,1
1546,6,1,-1,1,-7,1,-2,1,6,1,-4,1,-3,1,-35,1,7,1,8,1,3,1,54,1
1547,6,1,-1,1,-7,1,-2,1,6,1,-4,1,-2,1,-35,1,8,1,8,1,3,1,54,1
1548,6,1,-2,1,-8,1,-2,1,7,1,-5,1,-2,1,-35,1,8,1,8,1,3,1,54,1
1549,6,1,-2,1,-8,1,-2,1,7,1,-5,1,-2,1,-35,1,9,1,8,1,3,1,54,1
1550,5,1,-2,1,-7,1,-1,1,6,1,-4,1,-3,1,-35,1,10,1,8,1,3,1,54,1
1551,5,1,-2,1,-7,1,-1,1,6,1,-4,1,-2,1,-35,1,12,1,9,1,3,1,55,1
1552,6,1,-1,1,-7,1,-2,1,6,1,-4,1,-2,1,-34,1,12,1,9,1,3,1,55,1
1553,6,1,-1,1,-7,1,-2,1,6,1,-4,1,-2,1,-34,1,14,1,10,1,3,1,54,1
1554,6,1,-1,1,-7,1,-2,1,6,1,-4,1,-3,1,-35,1,14,1,10,1,2,1,53,1
1555,6,1,-1,1,-7,1,-2,1,6,1,-4,1,-4,1,-35,1,14,1,10,1,2,1,53,1
1556,7,1,-1,1,-8,1,-3,1,7,1,-4,1,-3,1,-35,1,14,1,10,1,2,1,52,1
1557,6,1,-1,1,-7,1,-2,1,6,1,-4,1,-2,1,-33,1,14,1,10,1,2,1,53,1
1558,6,1,-1,1,-7,1,-2,1,6,1,-4,1,-1,1,-32,1,14,1,11,1,3,1,53,1
1559,7,1,-1,1,-8,1,-3,1,7,1,-4,1,-2,1,-33,1,14,1,11,1,4,1,53,1
1560,7,1,-1,1,-8,1,-3,1,7,1,-4,1,-2,1,-33,1,14,1,11,1,3,1,52,1
1561,7,1,0,1,-7,1,-3,1,7,1,-3,1,-2,1,-33,1,14,1,11,1,4,1,51,1
1562,8,1,1,1,-7,1,-4,1,8,1,-3,1,-2,1,-32,1,15,1,11,1,5,1,52,1
1563,8,1,2,1,-6,1,-5,1,7,1,-2,1,-2,1,-32,1,16,1,12,1,5,1,53,1
1564,8,1,3,1,-5,1,-5,1,7,1,-1,1,-3,1,-34,1,16,1,12,1,6,1,54,1
1565,9,1,7,1,-2,1,-8,1,6,1,3,1,-4,1,-35,1,17,1,13,1,8,1,55,1
1566,9,1,10,1,1,1,-9,1,4,1,6,1,-4,1,-35,1,17,1,15,1,9,1,56,1
1567,9,1,13,1,4,1,-11,1,3,1,9,1,-3,1,-34,1,18,1,16,1,10,1,57,1
1568,9,1,15,1,6,1,-12,1,2,1,11,1,-2,1,-34,1,20,1,18,1,12,1,57,1
1569,9,1,18,1,9,1,-13,1,0,1,14,1,0,1,-35,1,21,1,19,1,13,1,58,1
1570,8,1,20,1,12,1,-14,1,-2,1,16,1,0,1,-34,1,21,1,20,1,14,1,58,1
1571,8,1,22,1,14,1,-15,1,-3,1,18,1,1,1,-33,1,21,1,21,1,15,1,60,1
1572,9,1,24,1,15,1,-16,1,-3,1,20,1,1,1,-32,1,22,1,21,1,15,1,60,1
1573,8,1,26,1,18,1,-17,1,-5,1,22,1,2,1,-32,1,23,1,22,1,16,1,61,1
1574,8,1,27,1,19,1,-17,1,-5,1,23,1,3,1,-31,1,24,1,23,1,18,1,62,1
1575,8,1,29,1,21,1,-18,1,-6,1,25,1,2,1,-30,1,25,1,25,1,20,1,63,1
1576,9,1,31,1,22,1,-20,1,-6,1,27,1,0,1,-30,1,26,1,26,1,22,1,63,1
1577,11,1,32,1,21,1,-21,1,-5,1,27,1,0,1,-30,1,26,1,26,1,23,1,63,1
1578,13,1,34,1,21,1,-23,1,-4,1,28,1,-2,1,-30,1,28,1,27,1,25,1,64,1
1579,14,1,36,1,22,1,-25,1,-4,1,29,1,-6,1,-31,1,29,1,28,1,26,1,66,1
1580,15,1,38,1,23,1,-26,1,-4,1,31,1,-11,1,-32,1,29,1,29,1,27,1,67,1
1581,17,1,39,1,22,1,-28,1,-2,1,31,1,-16,1,-35,1,30,1,29,1,27,1,69,1
1582,18,1,40,1,22,1,-29,1,-2,1,31,1,-22,1,-38,1,28,1,28,1,27,1,70,1
1583,19,1,41,1,22,1,-30,1,-1,1,32,1,-26,1,-41,1,27,1,28,1,27,1,70,1
1584,21,1,41,1,20,1,-31,1,1,1,31,1,-28,1,-42,1,26,1,28,1,27,1,70,1
1585,24,1,40,1,16,1,-32,1,4,1,28,1,-31,1,-43,1,24,1,27,1,26,1,68,1
1586,26,1,39,1,13,1,-32,1,7,1,26,1,-32,1,-44,1,23,1,26,1,26,1,68,1
1587,26,1,37,1,11,1,-31,1,8,1,24,1,-33,1,-44,1,23,1,25,1,25,1,68,1
1588,27,1,36,1,9,1,-31,1,9,1,23,1,-33,1,-45,1,22,1,24,1,24,1,68,1
1589,27,1,34,1,7,1,-30,1,10,1,21,1,-35,1,-46,1,22,1,24,1,23,1,67,1
1590,28,1,32,1,4,1,-30,1,12,1,18,1,-36,1,-46,1,23,1,24,1,22,1,67,1
1591,29,1,30,1,1,1,-29,1,14,1,16,1,-36,1,-45,1,23,1,24,1,21,1,68,1
1592,30,1,30,1,0,1,-30,1,15,1,15,1,-36,1,-44,1,24,1,24,1,22,1,69,1
1593,31,1,30,1,-1,1,-30,1,16,1,15,1,-35,1,-42,1,26,1,26,1,23,1,69,1
1594,33,1,30,1,-3,1,-31,1,18,1,14,1,-34,1,-41,1,26,1,28,1,25,1,71,1
1595,34,1,30,1,-4,1,-32,1,19,1,13,1,-33,1,-40,1,27,1,30,1,27,1,73,1
1596,35,1,30,1,-5,1,-32,1,20,1,13,1,-31,1,-37,1,29,1,32,1,30,1,75,1
1597,36,1,30,1,-6,1,-33,1,21,1,12,1,-29,1,-36,1,31,1,34,1,31,1,76,1
1598,38,1,30,1,-8,1,-34,1,23,1,11,1,-28,1,-34,1,32,1,36,1,32,1,76,1
1599,38,1,29,1,-9,1,-33,1,24,1,10,1,-28,1,-33,1,33,1,37,1,33,1,76,1
1600,37,1,28,1,-9,1,-32,1,23,1,10,1,-27,1,-32,1,34,1,37,1,33,1,76,1
1601,37,1,27,1,-10,1,-32,1,24,1,9,1,-25,1,-31,1,34,1,37,1,32,1,77,1
1602,36,1,26,1,-10,1,-31,1,23,1,8,1,-23,1,-30,1,34,1,37,1,32,1,77,1
1603,34,1,24,1,-10,1,-29,1,22,1,7,1,-20,1,-29,1,35,1,37,1,32,1,77,1
1604,31,1,23,1,-8,1,-27,1,20,1,8,1,-17,1,-27,1,36,1,38,1,33,1,77,1
1605,29,1,21,1,-8,1,-25,1,19,1,7,1,-16,1,-27,1,36,1,37,1,32,1,76,1
1606,27,1,19,1,-8,1,-23,1,18,1,6,1,-15,1,-29,1,36,1,35,1,31,1,75,1
1607,24,1,17,1,-7,1,-20,1,16,1,5,1,-15,1,-31,1,35,1,33,1,30,1,74,1
1608,20,1,14,1,-6,1,-17,1,13,1,4,1,-13,1,-31,1,33,1,30,1,27,1,71,1
1609,14,1,9,1,-5,1,-11,1,10,1,2,1,-13,1,-33,1,30,1,26,1,24,1,67,1
1610,12,1,7,1,-5,1,-9,1,9,1,1,1,-12,1,-34,1,28,1,24,1,21,1,64,1
1611,10,1,5,1,-5,1,-7,1,8,1,0,1,-11,1,-33,1,27,1,22,1,19,1,62,1
1612,8,1,3,1,-5,1,-5,1,7,1,-1,1,-9,1,-34,1,26,1,20,1,16,1,59,1
1613,6,1,0,1,-6,1,-3,1,6,1,-3,1,-8,1,-34,1,24,1,17,1,14,1,56,1
1614,7,1,-1,1,-8,1,-3,1,7,1,-4,1,-6,1,-34,1,22,1,15,1,11,1,53,1
1615,6,1,-3,1,-9,1,-1,1,7,1,-6,1,-5,1,-34,1,19,1,13,1,9,1,51,1
1616,5,1,-5,1,-10,1,0,1,7,1,-7,1,-4,1,-34,1,19,1,12,1,8,1,49,1
1617,4,1,-6,1,-10,1,1,1,7,1,-8,1,-2,1,-33,1,18,1,13,1,7,1,48,1
1618,4,1,-8,1,-12,1,2,1,8,1,-10,1,-2,1,-33,1,17,1,12,1,6,1,47,1
1619,4,1,-8,1,-12,1,2,1,8,1,-10,1,-1,1,-32,1,17,1,11,1,5,1,47,1
1620,3,1,-10,1,-13,1,3,1,8,1,-11,1,-1,1,-32,1,17,1,11,1,5,1,47,1
1621,2,1,-12,1,-14,1,5,1,8,1,-13,1,-1,1,-33,1,17,1,11,1,4,1,46,1
1622,2,1,-13,1,-15,1,5,1,8,1,-14,1,0,1,-32,1,15,1,11,1,3,1,46,1
1623,2,1,-14,1,-16,1,6,1,9,1,-15,1,0,1,-31,1,16,1,11,1,2,1,45,1
1624,3,1,-15,1,-18,1,6,1,10,1,-16,1,0,1,-31,1,15,1,10,1,2,1,45,1
1625,4,1,-15,1,-19,1,5,1,11,1,-17,1,0,1,-31,1,15,1,10,1,2,1,45,1
1626,3,1,-15,1,-18,1,6,1,10,1,-16,1,0,1,-30,1,16,1,10,1,2,1,44,1
1627,3,1,-15,1,-18,1,6,1,10,1,-16,1,1,1,-29,1,16,1,11,1,2,1,44,1
1628,2,1,-15,1,-17,1,6,1,9,1,-16,1,1,1,-29,1,17,1,11,1,3,1,44,1
1629,2,1,-16,1,-18,1,7,1,10,1,-17,1,0,1,-29,1,18,1,11,1,3,1,44,1
1630,2,1,-16,1,-18,1,7,1,10,1,-17,1,0,1,-30,1,18,1,12,1,3,1,45,1
1631,2,1,-16,1,-18,1,7,1,10,1,-17,1,-1,1,-29,1,19,1,12,1,5,1,45,1
1632,1,1,-15,1,-16,1,7,1,8,1,-15,1,-1,1,-28,1,21,1,13,1,6,1,45,1
1633,0,1,-15,1,-15,1,7,1,7,1,-15,1,1,1,-27,1,23,1,15,1,7,1,45,1
1634,-2,1,-13,1,-11,1,7,1,4,1,-12,1,3,1,-26,1,24,1,17,1,8,1,45,1
1635,-4,1,-11,1,-7,1,7,1,1,1,-9,1,7,1,-24,1,28,1,19,1,8,1,44,1
1636,-8,1,-10,1,-2,1,9,1,-3,1,-6,1,11,1,-21,1,32,1,21,1,7,1,42,1
1637,-11,1,-9,1,2,1,10,1,-7,1,-4,1,18,1,-15,1,37,1,23,1,6,1,39,1
1638,-16,1,-7,1,9,1,11,1,-13,1,1,1,26,1,-6,1,45,1,27,1,6,1,36,1
1639,-22,1,-5,1,17,1,13,1,-20,1,6,1,35,1,4,1,57,1,34,1,10,1,34,1
1640,-30,1,-2,1,28,1,16,1,-29,1,13,1,45,1,16,1,70,1,43,1,14,1,33,1
1641,-38,1,1,1,39,1,18,1,-38,1,20,1,56,1,32,1,86,1,56,1,22,1,32,1
1642,-45,1,5,1,50,1,20,1,-47,1,27,1,70,1,51,1,108,1,76,1,34,1,33,1
1643,-51,1,11,1,62,1,20,1,-56,1,36,1,85,1,74,1,140,1,108,1,58,1,39,1
1644,-53,1,19,1,72,1,17,1,-62,1,45,1,103,1,102,1,181,1,153,1,94,1,50,1
1645,-51,1,28,1,79,1,11,1,-65,1,53,1,120,1,134,1,229,1,206,1,137,1,65,1
1646,-48,1,39,1,87,1,4,1,-67,1,63,1,139,1,172,1,285,1,267,1,187,1,84,1
1647,-44,1,51,1,95,1,-3,1,-69,1,73,1,157,1,212,1,344,1,331,1,238,1,104,1
1648,-38,1,66,1,104,1,-14,1,-71,1,85,1,175,1,256,1,408,1,398,1,293,1,128,1
1649,-28,1,82,1,110,1,-27,1,-69,1,96,1,190,1,301,1,474,1,470,1,351,1,156,1
1650,-14,1,97,1,111,1,-41,1,-62,1,104,1,202,1,346,1,541,1,542,1,410,1,185,1
1651,1,1,111,1,110,1,-56,1,-54,1,111,1,213,1,392,1,609,1,617,1,469,1,213,1
1652,21,1,119,1,98,1,-70,1,-38,1,109,1,223,1,438,1,675,1,687,1,519,1,237,1
1653,43,1,123,1,80,1,-83,1,-18,1,102,1,231,1,481,1,736,1,749,1,560,1,257,1
1654,67,1,126,1,59,1,-96,1,4,1,93,1,235,1,514,1,784,1,794,1,589,1,274,1
1655,91,1,126,1,35,1,-108,1,28,1,81,1,233,1,535,1,807,1,805,1,593,1,285,1
1656,109,1,119,1,10,1,-114,1,50,1,65,1,228,1,539,1,792,1,769,1,565,1,285,1
1657,115,1,96,1,-19,1,-105,1,67,1,39,1,226,1,528,1,724,1,652,1,456,1,241,1
1658,109,1,55,1,-54,1,-82,1,82,1,1,1,227,1,500,1,602,1,456,1,259,1,146,1
1659,97,1,8,1,-89,1,-52,1,93,1,-40,1,225,1,464,1,464,1,249,1,59,1,48,1
1660,79,1,-30,1,-109,1,-24,1,94,1,-69,1,219,1,424,1,336,1,78,1,-90,1,-23,1
1661,57,1,-56,1,-113,1,0,1,85,1,-84,1,207,1,377,1,229,1,-42,1,-183,1,-65,1
1662,40,1,-71,1,-111,1,15,1,75,1,-91,1,194,1,338,1,155,1,-114,1,-233,1,-89,1
1663,27,1,-84,1,-111,1,28,1,69,1,-97,1,180,1,299,1,99,1,-156,1,-257,1,-101,1
1664,15,1,-91,1,-106,1,38,1,60,1,-98,1,166,1,258,1,54,1,-179,1,-265,1,-107,1
1665,5,1,-94,1,-99,1,44,1,52,1,-96,1,154,1,218,1,21,1,-186,1,-258,1,-106,1
1666,-2,1,-96,1,-94,1,49,1,46,1,-95,1,141,1,180,1,-2,1,-184,1,-242,1,-99,1
1667,-9,1,-97,1,-88,1,53,1,39,1,-93,1,128,1,143,1,-19,1,-175,1,-219,1,-88,1
1668,-11,1,-95,1,-84,1,53,1,36,1,-90,1,111,1,106,1,-31,1,-160,1,-191,1,-70,1
1669,-12,1,-90,1,-78,1,51,1,33,1,-84,1,89,1,67,1,-45,1,-146,1,-162,1,-51,1
1670,-12,1,-82,1,-70,1,47,1,29,1,-76,1,65,1,29,1,-59,1,-135,1,-137,1,-31,1
1671,-11,1,-74,1,-63,1,42,1,26,1,-69,1,45,1,-1,1,-69,1,-124,1,-118,1,-16,1
1672,-9,1,-68,1,-59,1,38,1,25,1,-64,1,32,1,-22,1,-72,1,-114,1,-105,1,-6,1
1673,-7,1,-62,1,-55,1,34,1,24,1,-59,1,25,1,-36,1,-73,1,-106,1,-96,1,-1,1
1674,-5,1,-56,1,-51,1,30,1,23,1,-54,1,19,1,-48,1,-73,1,-99,1,-89,1,1,1
1675,-5,1,-49,1,-44,1,27,1,19,1,-47,1,14,1,-59,1,-73,1,-95,1,-82,1,5,1
1676,-5,1,-43,1,-38,1,24,1,16,1,-41,1,12,1,-66,1,-71,1,-89,1,-75,1,9,1
1677,-5,1,-38,1,-33,1,21,1,14,1,-36,1,11,1,-68,1,-66,1,-84,1,-66,1,16,1
1678,-5,1,-34,1,-29,1,19,1,12,1,-32,1,10,1,-69,1,-61,1,-80,1,-58,1,23,1
1679,-5,1,-30,1,-25,1,17,1,10,1,-28,1,8,1,-69,1,-57,1,-75,1,-52,1,29,1
1680,-5,1,-29,1,-24,1,17,1,9,1,-27,1,5,1,-69,1,-54,1,-72,1,-48,1,33,1
1681,-5,1,-28,1,-23,1,16,1,9,1,-26,1,2,1,-70,1,-52,1,-70,1,-48,1,34,1
1682,-5,1,-28,1,-23,1,16,1,9,1,-26,1,0,1,-70,1,-51,1,-69,1,-48,1,33,1
1683,-6,1,-28,1,-22,1,17,1,8,1,-25,1,-1,1,-73,1,-51,1,-69,1,-49,1,32,1
1684,-6,1,-29,1,-23,1,17,1,8,1,-26,1,-2,1,-75,1,-52,1,-70,1,-51,1,29,1
1685,-6,1,-29,1,-23,1,17,1,8,1,-26,1,-3,1,-76,1,-52,1,-70,1,-52,1,27,1
1686,-6,1,-29,1,-23,1,17,1,8,1,-26,1,-4,1,-77,1,-52,1,-71,1,-51,1,27,1
1687,-6,1,-29,1,-23,1,17,1,8,1,-26,1,-2,1,-76,1,-50,1,-70,1,-50,1,28,1
1688,-4,1,-27,1,-23,1,15,1,9,1,-25,1,-2,1,-75,1,-48,1,-69,1,-49,1,29,1
1689,-4,1,-25,1,-21,1,14,1,8,1,-23,1,-2,1,-74,1,-47,1,-68,1,-48,1,31,1
1690,-5,1,-25,1,-20,1,15,1,7,1,-23,1,-2,1,-73,1,-46,1,-68,1,-47,1,32,1
1691,-5,1,-25,1,-20,1,15,1,7,1,-23,1,-3,1,-74,1,-46,1,-67,1,-47,1,32,1
1692,-6,1,-25,1,-19,1,15,1,6,1,-22,1,-4,1,-73,1,-45,1,-67,1,-48,1,31,1
1693,-6,1,-25,1,-19,1,15,1,6,1,-22,1,-4,1,-73,1,-46,1,-68,1,-48,1,30,1
1694,-6,1,-25,1,-19,1,15,1,6,1,-22,1,-3,1,-74,1,-46,1,-69,1,-48,1,29,1
1695,-5,1,-25,1,-20,1,15,1,7,1,-23,1,-2,1,-74,1,-46,1,-69,1,-48,1,29,1
1696,-4,1,-24,1,-20,1,14,1,8,1,-22,1,-1,1,-73,1,-46,1,-69,1,-47,1,28,1
1697,-3,1,-24,1,-21,1,13,1,9,1,-23,1,0,1,-72,1,-45,1,-68,1,-46,1,28,1
1698,-3,1,-24,1,-21,1,13,1,9,1,-23,1,1,1,-73,1,-45,1,-68,1,-46,1,28,1
1699,-4,1,-24,1,-20,1,14,1,8,1,-22,1,1,1,-72,1,-46,1,-68,1,-46,1,28,1
1700,-4,1,-24,1,-20,1,14,1,8,1,-22,1,3,1,-71,1,-46,1,-67,1,-47,1,27,1
1701,-3,1,-24,1,-21,1,13,1,9,1,-23,1,4,1,-70,1,-47,1,-67,1,-47,1,27,1
1702,-4,1,-24,1,-20,1,14,1,8,1,-22,1,6,1,-70,1,-48,1,-67,1,-47,1,28,1
1703,-4,1,-24,1,-20,1,14,1,8,1,-22,1,8,1,-69,1,-48,1,-67,1,-47,1,28,1
1704,-3,1,-23,1,-20,1,13,1,8,1,-22,1,8,1,-69,1,-49,1,-67,1,-47,1,28,1
1705,-3,1,-23,1,-20,1,13,1,8,1,-22,1,8,1,-70,1,-49,1,-67,1,-48,1,27,1
1706,-3,1,-23,1,-20,1,13,1,8,1,-22,1,8,1,-70,1,-50,1,-67,1,-48,1,26,1
1707,-3,1,-23,1,-20,1,13,1,8,1,-22,1,8,1,-69,1,-49,1,-67,1,-48,1,26,1
1708,-4,1,-22,1,-18,1,13,1,7,1,-20,1,8,1,-69,1,-48,1,-67,1,-48,1,27,1
1709,-4,1,-22,1,-18,1,13,1,7,1,-20,1,8,1,-69,1,-48,1,-67,1,-48,1,26,1
1710,-4,1,-21,1,-17,1,12,1,6,1,-19,1,8,1,-69,1,-49,1,-67,1,-48,1,25,1
1711,-4,1,-20,1,-16,1,12,1,6,1,-18,1,8,1,-69,1,-49,1,-67,1,-49,1,25,1
1712,-4,1,-20,1,-16,1,12,1,6,1,-18,1,10,1,-70,1,-50,1,-68,1,-49,1,25,1
1713,-4,1,-19,1,-15,1,11,1,5,1,-17,1,9,1,-70,1,-50,1,-68,1,-49,1,24,1
1714,-5,1,-20,1,-15,1,12,1,5,1,-18,1,9,1,-71,1,-50,1,-68,1,-50,1,24,1
1715,-5,1,-19,1,-14,1,12,1,4,1,-17,1,9,1,-70,1,-49,1,-67,1,-50,1,25,1
1716,-5,1,-19,1,-14,1,12,1,4,1,-17,1,9,1,-70,1,-48,1,-67,1,-49,1,25,1
1717,-5,1,-19,1,-14,1,12,1,4,1,-17,1,9,1,-69,1,-48,1,-68,1,-48,1,24,1
1718,-6,1,-19,1,-13,1,12,1,3,1,-16,1,10,1,-69,1,-47,1,-68,1,-48,1,24,1
1719,-6,1,-19,1,-13,1,12,1,3,1,-16,1,9,1,-69,1,-46,1,-69,1,-48,1,23,1
1720,-5,1,-19,1,-14,1,12,1,4,1,-17,1,8,1,-69,1,-46,1,-70,1,-48,1,23,1
1721,-5,1,-18,1,-13,1,11,1,4,1,-16,1,8,1,-69,1,-45,1,-70,1,-48,1,24,1
1722,-5,1,-18,1,-13,1,11,1,4,1,-16,1,8,1,-69,1,-45,1,-70,1,-48,1,24,1
1723,-4,1,-17,1,-13,1,10,1,4,1,-15,1,8,1,-69,1,-44,1,-70,1,-49,1,23,1
1724,-4,1,-16,1,-12,1,10,1,4,1,-14,1,7,1,-69,1,-44,1,-71,1,-49,1,23,1
1725,-4,1,-16,1,-12,1,10,1,4,1,-14,1,6,1,-68,1,-44,1,-71,1,-50,1,22,1
1726,-3,1,-15,1,-12,1,9,1,4,1,-14,1,5,1,-68,1,-43,1,-71,1,-50,1,21,1
1727,-3,1,-15,1,-12,1,9,1,4,1,-14,1,5,1,-68,1,-43,1,-71,1,-51,1,20,1
1728,-3,1,-15,1,-12,1,9,1,4,1,-14,1,4,1,-67,1,-43,1,-72,1,-53,1,19,1
1729,-3,1,-15,1,-12,1,9,1,4,1,-14,1,4,1,-67,1,-43,1,-73,1,-53,1,18,1
1730,-4,1,-15,1,-11,1,9,1,3,1,-13,1,3,1,-67,1,-43,1,-74,1,-54,1,17,1
1731,-4,1,-15,1,-11,1,9,1,3,1,-13,1,2,1,-67,1,-44,1,-75,1,-55,1,16,1
1732,-5,1,-15,1,-10,1,10,1,2,1,-13,1,1,1,-67,1,-44,1,-75,1,-55,1,16,1
1733,-5,1,-15,1,-10,1,10,1,2,1,-13,1,1,1,-68,1,-44,1,-75,1,-55,1,16,1
1734,-5,1,-16,1,-11,1,10,1,3,1,-14,1,0,1,-68,1,-45,1,-75,1,-57,1,15,1
1735,-4,1,-16,1,-12,1,10,1,4,1,-14,1,-1,1,-68,1,-45,1,-75,1,-57,1,15,1
1736,-4,1,-15,1,-11,1,9,1,3,1,-13,1,-2,1,-67,1,-44,1,-75,1,-58,1,14,1
1737,-4,1,-15,1,-11,1,9,1,3,1,-13,1,-3,1,-67,1,-43,1,-76,1,-58,1,13,1
1738,-3,1,-14,1,-11,1,8,1,4,1,-13,1,-3,1,-66,1,-42,1,-76,1,-59,1,13,1
1739,-3,1,-14,1,-11,1,8,1,4,1,-13,1,-4,1,-66,1,-41,1,-77,1,-59,1,11,1
1740,-3,1,-15,1,-12,1,9,1,4,1,-14,1,-3,1,-66,1,-40,1,-78,1,-60,1,10,1
1741,-4,1,-14,1,-10,1,9,1,3,1,-12,1,-3,1,-65,1,-39,1,-80,1,-60,1,9,1
1742,-4,1,-14,1,-10,1,9,1,3,1,-12,1,-3,1,-65,1,-38,1,-81,1,-60,1,9,1
1743,-4,1,-13,1,-9,1,8,1,2,1,-11,1,-2,1,-65,1,-37,1,-81,1,-60,1,9,1
1744,-5,1,-13,1,-8,1,9,1,1,1,-11,1,-3,1,-65,1,-36,1,-82,1,-61,1,7,1
1745,-5,1,-13,1,-8,1,9,1,1,1,-11,1,-4,1,-65,1,-35,1,-83,1,-62,1,5,1
1746,-5,1,-12,1,-7,1,8,1,1,1,-10,1,-5,1,-66,1,-34,1,-84,1,-63,1,4,1
1747,-6,1,-12,1,-6,1,9,1,0,1,-9,1,-5,1,-66,1,-34,1,-83,1,-63,1,3,1
1748,-6,1,-12,1,-6,1,9,1,0,1,-9,1,-5,1,-66,1,-34,1,-83,1,-64,1,3,1
1749,-6,1,-11,1,-5,1,8,1,-1,1,-8,1,-5,1,-67,1,-34,1,-84,1,-64,1,3,1
1750,-5,1,-11,1,-6,1,8,1,0,1,-9,1,-6,1,-67,1,-34,1,-85,1,-65,1,1,1
1751,-5,1,-12,1,-7,1,8,1,1,1,-10,1,-6,1,-68,1,-34,1,-85,1,-66,1,0,1
1752,-6,1,-13,1,-7,1,9,1,0,1,-10,1,-6,1,-68,1,-35,1,-86,1,-67,1,0,1
1753,-6,1,-14,1,-8,1,10,1,1,1,-11,1,-6,1,-68,1,-36,1,-86,1,-68,1,-1,1
1754,-6,1,-13,1,-7,1,9,1,0,1,-10,1,-6,1,-69,1,-36,1,-87,1,-69,1,-2,1
1755,-6,1,-13,1,-7,1,9,1,0,1,-10,1,-6,1,-69,1,-38,1,-88,1,-70,1,-3,1
1756,-8,1,-13,1,-5,1,10,1,-2,1,-9,1,-6,1,-68,1,-39,1,-89,1,-71,1,-3,1
1757,-7,1,-12,1,-5,1,9,1,-1,1,-9,1,-6,1,-68,1,-40,1,-90,1,-72,1,-4,1
1758,-7,1,-12,1,-5,1,9,1,-1,1,-9,1,-6,1,-68,1,-41,1,-91,1,-72,1,-4,1
1759,-8,1,-12,1,-4,1,10,1,-2,1,-8,1,-6,1,-68,1,-42,1,-92,1,-73,1,-4,1
1760,-8,1,-12,1,-4,1,10,1,-2,1,-8,1,-7,1,-69,1,-42,1,-93,1,-73,1,-5,1
1761,-9,1,-12,1,-3,1,10,1,-3,1,-8,1,-5,1,-69,1,-42,1,-93,1,-74,1,-5,1
1762,-10,1,-12,1,-2,1,11,1,-4,1,-7,1,-4,1,-70,1,-42,1,-94,1,-75,1,-5,1
1763,-9,1,-12,1,-3,1,10,1,-3,1,-8,1,-3,1,-71,1,-42,1,-94,1,-76,1,-6,1
1764,-8,1,-12,1,-4,1,10,1,-2,1,-8,1,-3,1,-72,1,-43,1,-95,1,-77,1,-8,1
1765,-9,1,-13,1,-4,1,11,1,-3,1,-9,1,-3,1,-73,1,-44,1,-96,1,-79,1,-9,1
1766,-10,1,-11,1,-1,1,10,1,-5,1,-6,1,-2,1,-73,1,-44,1,-96,1,-79,1,-10,1
1767,-10,1,-10,1,0,1,10,1,-5,1,-5,1,0,1,-72,1,-43,1,-96,1,-79,1,-10,1
1768,-11,1,-10,1,1,1,10,1,-6,1,-5,1,2,1,-72,1,-43,1,-96,1,-80,1,-10,1
1769,-11,1,-10,1,1,1,10,1,-6,1,-5,1,3,1,-72,1,-43,1,-97,1,-81,1,-12,1
1770,-12,1,-10,1,2,1,11,1,-7,1,-4,1,3,1,-72,1,-43,1,-98,1,-81,1,-13,1
1771,-11,1,-9,1,2,1,10,1,-7,1,-4,1,4,1,-73,1,-45,1,-99,1,-82,1,-14,1
1772,-11,1,-9,1,2,1,10,1,-7,1,-4,1,5,1,-74,1,-44,1,-100,1,-83,1,-14,1
1773,-10,1,-8,1,2,1,9,1,-6,1,-3,1,5,1,-74,1,-44,1,-100,1,-84,1,-15,1
1774,-11,1,-7,1,4,1,9,1,-8,1,-2,1,4,1,-74,1,-43,1,-100,1,-83,1,-15,1
1775,-12,1,-6,1,6,1,9,1,-9,1,0,1,4,1,-75,1,-42,1,-99,1,-83,1,-15,1
1776,-12,1,-5,1,7,1,8,1,-10,1,1,1,4,1,-75,1,-40,1,-98,1,-82,1,-14,1
1777,-14,1,-5,1,9,1,9,1,-12,1,2,1,5,1,-74,1,-39,1,-97,1,-80,1,-14,1
