TS,I,If,II,IIf,III,IIIf,aVR,aVRf,aVL,aVLf,aVF,aVFf,V1,V1f,V2,V2f,V3,V3f,V4,V4f,V5,V5f,V6,V6f
1,-16,1,-24,1,-8,1,20,1,-4,1,-16,1,7,1,-28,1,-42,1,-33,1,-7,1,-4,1
2,-14,1,-21,1,-7,1,17,1,-4,1,-14,1,7,1,-29,1,-43,1,-34,1,-9,1,-6,1
3,-16,1,-21,1,-5,1,18,1,-6,1,-13,1,8,1,-28,1,-43,1,-32,1,-8,1,-6,1
4,-15,1,-18,1,-3,1,16,1,-6,1,-11,1,9,1,-28,1,-43,1,-32,1,-8,1,-5,1
5,-12,1,-15,1,-3,1,13,1,-5,1,-9,1,8,1,-27,1,-42,1,-31,1,-7,1,-5,1
6,-12,1,-16,1,-4,1,14,1,-4,1,-10,1,8,1,-27,1,-41,1,-30,1,-7,1,-5,1
7,-13,1,-17,1,-4,1,15,1,-5,1,-11,1,9,1,-27,1,-42,1,-31,1,-8,1,-6,1
8,-13,1,-16,1,-3,1,14,1,-5,1,-10,1,10,1,-27,1,-41,1,-30,1,-7,1,-7,1
9,-13,1,-17,1,-4,1,15,1,-5,1,-11,1,12,1,-26,1,-39,1,-28,1,-6,1,-5,1
10,-12,1,-17,1,-5,1,14,1,-4,1,-11,1,11,1,-26,1,-40,1,-28,1,-6,1,-6,1
11,-14,1,-15,1,-1,1,14,1,-7,1,-8,1,11,1,-26,1,-41,1,-28,1,-6,1,-6,1
12,-15,1,-16,1,-1,1,15,1,-7,1,-9,1,10,1,-26,1,-40,1,-26,1,-6,1,-6,1
13,-13,1,-17,1,-4,1,15,1,-5,1,-11,1,5,1,-30,1,-44,1,-28,1,-9,1,-8,1
14,-11,1,-14,1,-3,1,12,1,-4,1,-9,1,4,1,-30,1,-43,1,-28,1,-7,1,-6,1
15,-11,1,-12,1,-1,1,11,1,-5,1,-7,1,5,1,-27,1,-40,1,-25,1,-3,1,-1,1
16,-9,1,-10,1,-1,1,9,1,-4,1,-6,1,5,1,-27,1,-39,1,-24,1,-2,1,-1,1
17,-7,1,-10,1,-3,1,8,1,-2,1,-7,1,3,1,-27,1,-37,1,-22,1,-2,1,0,1
18,-7,1,-9,1,-2,1,8,1,-3,1,-6,1,2,1,-27,1,-38,1,-22,1,-2,1,0,1
19,-4,1,-7,1,-3,1,5,1,-1,1,-5,1,0,1,-27,1,-38,1,-22,1,-2,1,-1,1
20,-4,1,-7,1,-3,1,5,1,-1,1,-5,1,0,1,-26,1,-37,1,-21,1,-2,1,0,1
21,-6,1,-11,1,-5,1,8,1,-1,1,-8,1,0,1,-25,1,-36,1,-19,1,-1,1,1,1
22,-2,1,-12,1,-10,1,7,1,4,1,-11,1,-2,1,-26,1,-37,1,-20,1,-2,1,0,1
23,-2,1,-9,1,-7,1,5,1,2,1,-8,1,-4,1,-28,1,-38,1,-21,1,-4,1,0,1
24,0,1,-12,1,-12,1,6,1,6,1,-12,1,-4,1,-30,1,-40,1,-24,1,-6,1,-1,1
25,0,1,-14,1,-14,1,7,1,7,1,-14,1,-4,1,-29,1,-42,1,-25,1,-6,1,-2,1
26,-4,1,-13,1,-9,1,8,1,2,1,-11,1,-2,1,-29,1,-40,1,-24,1,-5,1,-1,1
27,-4,1,-14,1,-10,1,9,1,3,1,-12,1,-1,1,-28,1,-40,1,-23,1,-5,1,-1,1
28,-1,1,-8,1,-7,1,4,1,3,1,-8,1,-2,1,-29,1,-40,1,-22,1,-6,1,-3,1
29,-2,1,-9,1,-7,1,5,1,2,1,-8,1,-1,1,-26,1,-37,1,-20,1,-4,1,-1,1
30,-2,1,-12,1,-10,1,7,1,4,1,-11,1,-2,1,-27,1,-38,1,-20,1,-5,1,-1,1
31,-2,1,-14,1,-12,1,8,1,5,1,-13,1,-2,1,-29,1,-39,1,-22,1,-8,1,-3,1
32,-1,1,-15,1,-14,1,8,1,6,1,-15,1,-1,1,-28,1,-39,1,-20,1,-7,1,-1,1
33,-2,1,-16,1,-14,1,9,1,6,1,-15,1,-1,1,-29,1,-39,1,-20,1,-8,1,-1,1
34,-1,1,-13,1,-12,1,7,1,5,1,-13,1,-2,1,-29,1,-41,1,-20,1,-9,1,-1,1
35,-3,1,-12,1,-9,1,7,1,3,1,-11,1,-2,1,-30,1,-40,1,-19,1,-8,1,0,1
36,-5,1,-11,1,-6,1,8,1,0,1,-9,1,-1,1,-29,1,-39,1,-17,1,-7,1,1,1
37,-2,1,-15,1,-13,1,8,1,5,1,-14,1,-2,1,-30,1,-41,1,-19,1,-8,1,0,1
38,-5,1,-15,1,-10,1,10,1,2,1,-13,1,-3,1,-31,1,-42,1,-22,1,-11,1,-3,1
39,-8,1,-17,1,-9,1,12,1,0,1,-13,1,-1,1,-29,1,-42,1,-22,1,-12,1,-5,1
40,-9,1,-23,1,-14,1,16,1,2,1,-19,1,0,1,-27,1,-39,1,-20,1,-11,1,-4,1
41,-6,1,-22,1,-16,1,14,1,5,1,-19,1,-1,1,-29,1,-40,1,-21,1,-13,1,-6,1
42,-7,1,-21,1,-14,1,14,1,3,1,-18,1,-1,1,-29,1,-40,1,-22,1,-14,1,-6,1
43,-11,1,-24,1,-13,1,17,1,1,1,-19,1,0,1,-29,1,-40,1,-21,1,-15,1,-7,1
44,-16,1,-28,1,-12,1,22,1,-2,1,-20,1,1,1,-30,1,-42,1,-23,1,-18,1,-9,1
45,-18,1,-30,1,-12,1,24,1,-3,1,-21,1,1,1,-32,1,-45,1,-25,1,-20,1,-11,1
46,-17,1,-31,1,-14,1,24,1,-2,1,-23,1,0,1,-33,1,-46,1,-26,1,-21,1,-13,1
47,-20,1,-35,1,-15,1,27,1,-3,1,-25,1,1,1,-33,1,-45,1,-25,1,-21,1,-13,1
48,-23,1,-35,1,-12,1,29,1,-6,1,-24,1,1,1,-33,1,-46,1,-24,1,-21,1,-13,1
49,-21,1,-33,1,-12,1,27,1,-5,1,-23,1,0,1,-34,1,-47,1,-24,1,-22,1,-13,1
50,-18,1,-33,1,-15,1,25,1,-2,1,-24,1,-1,1,-36,1,-49,1,-26,1,-24,1,-15,1
51,-18,1,-32,1,-14,1,25,1,-2,1,-23,1,-1,1,-37,1,-50,1,-26,1,-24,1,-16,1
52,-17,1,-34,1,-17,1,25,1,0,1,-26,1,-1,1,-36,1,-51,1,-26,1,-25,1,-17,1
53,-17,1,-34,1,-17,1,25,1,0,1,-26,1,0,1,-35,1,-50,1,-25,1,-25,1,-16,1
54,-18,1,-30,1,-12,1,24,1,-3,1,-21,1,0,1,-36,1,-50,1,-26,1,-26,1,-16,1
55,-18,1,-30,1,-12,1,24,1,-3,1,-21,1,0,1,-35,1,-51,1,-27,1,-26,1,-17,1
56,-21,1,-39,1,-18,1,30,1,-2,1,-29,1,1,1,-34,1,-49,1,-25,1,-24,1,-15,1
57,-20,1,-42,1,-22,1,31,1,1,1,-32,1,2,1,-34,1,-48,1,-24,1,-23,1,-15,1
58,-20,1,-41,1,-21,1,30,1,0,1,-31,1,2,1,-34,1,-48,1,-24,1,-23,1,-15,1
59,-20,1,-40,1,-20,1,30,1,0,1,-30,1,4,1,-33,1,-47,1,-23,1,-22,1,-14,1
60,-20,1,-41,1,-21,1,30,1,0,1,-31,1,4,1,-33,1,-47,1,-23,1,-22,1,-15,1
61,-22,1,-40,1,-18,1,31,1,-2,1,-29,1,1,1,-35,1,-48,1,-26,1,-24,1,-17,1
62,-22,1,-37,1,-15,1,29,1,-4,1,-26,1,1,1,-36,1,-49,1,-26,1,-25,1,-18,1
63,-23,1,-37,1,-14,1,30,1,-5,1,-26,1,1,1,-36,1,-48,1,-26,1,-25,1,-18,1
64,-23,1,-39,1,-16,1,31,1,-4,1,-28,1,1,1,-36,1,-49,1,-27,1,-25,1,-18,1
65,-22,1,-38,1,-16,1,30,1,-3,1,-27,1,1,1,-35,1,-48,1,-27,1,-25,1,-18,1
66,-21,1,-36,1,-15,1,28,1,-3,1,-26,1,1,1,-34,1,-48,1,-27,1,-25,1,-18,1
67,-18,1,-35,1,-17,1,26,1,-1,1,-26,1,-1,1,-36,1,-50,1,-27,1,-26,1,-19,1
68,-20,1,-32,1,-12,1,26,1,-4,1,-22,1,0,1,-35,1,-49,1,-27,1,-25,1,-19,1
69,-20,1,-31,1,-11,1,25,1,-5,1,-21,1,0,1,-35,1,-49,1,-27,1,-25,1,-18,1
70,-20,1,-33,1,-13,1,26,1,-4,1,-23,1,1,1,-37,1,-50,1,-27,1,-26,1,-20,1
71,-22,1,-37,1,-15,1,29,1,-4,1,-26,1,1,1,-35,1,-49,1,-27,1,-26,1,-20,1
72,-25,1,-38,1,-13,1,31,1,-6,1,-26,1,0,1,-35,1,-49,1,-27,1,-26,1,-19,1
73,-23,1,-36,1,-13,1,29,1,-5,1,-25,1,0,1,-35,1,-50,1,-27,1,-27,1,-20,1
74,-21,1,-34,1,-13,1,27,1,-4,1,-24,1,1,1,-35,1,-50,1,-27,1,-27,1,-20,1
75,-21,1,-37,1,-16,1,29,1,-3,1,-27,1,2,1,-34,1,-48,1,-25,1,-26,1,-19,1
76,-24,1,-39,1,-15,1,31,1,-5,1,-27,1,4,1,-33,1,-46,1,-24,1,-24,1,-19,1
77,-26,1,-35,1,-9,1,30,1,-9,1,-22,1,7,1,-31,1,-46,1,-24,1,-24,1,-19,1
78,-25,1,-33,1,-8,1,29,1,-9,1,-21,1,13,1,-27,1,-44,1,-24,1,-24,1,-18,1
79,-24,1,-30,1,-6,1,27,1,-9,1,-18,1,19,1,-21,1,-41,1,-21,1,-23,1,-16,1
80,-21,1,-29,1,-8,1,25,1,-7,1,-19,1,21,1,-14,1,-37,1,-18,1,-19,1,-14,1
81,-21,1,-30,1,-9,1,25,1,-6,1,-20,1,25,1,-6,1,-32,1,-14,1,-16,1,-11,1
82,-17,1,-29,1,-12,1,23,1,-3,1,-21,1,30,1,7,1,-23,1,-8,1,-11,1,-8,1
83,-9,1,-27,1,-18,1,18,1,4,1,-23,1,40,1,27,1,-9,1,0,1,-5,1,-6,1
84,0,1,-16,1,-16,1,8,1,8,1,-16,1,47,1,43,1,5,1,9,1,1,1,-3,1
85,10,1,-4,1,-14,1,-3,1,12,1,-9,1,52,1,69,1,30,1,29,1,16,1,8,1
86,17,1,3,1,-14,1,-10,1,16,1,-5,1,57,1,100,1,60,1,52,1,35,1,21,1
87,29,1,17,1,-12,1,-23,1,21,1,3,1,51,1,127,1,94,1,79,1,57,1,37,1
88,51,1,34,1,-17,1,-42,1,34,1,9,1,32,1,148,1,128,1,108,1,81,1,55,1
89,72,1,54,1,-18,1,-63,1,45,1,18,1,7,1,164,1,162,1,138,1,105,1,74,1
90,89,1,78,1,-11,1,-83,1,50,1,34,1,-28,1,164,1,186,1,164,1,131,1,97,1
91,101,1,104,1,3,1,-102,1,49,1,54,1,-73,1,140,1,197,1,184,1,154,1,121,1
92,108,1,116,1,8,1,-112,1,50,1,62,1,-110,1,119,1,202,1,195,1,166,1,133,1
93,108,1,122,1,14,1,-115,1,47,1,68,1,-130,1,103,1,206,1,200,1,170,1,136,1
94,92,1,104,1,12,1,-98,1,40,1,58,1,-133,1,84,1,192,1,183,1,152,1,120,1
95,77,1,76,1,-1,1,-76,1,39,1,38,1,-130,1,59,1,161,1,150,1,121,1,93,1
96,55,1,57,1,2,1,-56,1,27,1,30,1,-131,1,18,1,110,1,108,1,90,1,72,1
97,36,1,44,1,8,1,-40,1,14,1,26,1,-131,1,-28,1,56,1,68,1,61,1,54,1
98,20,1,30,1,10,1,-25,1,5,1,20,1,-131,1,-77,1,3,1,29,1,32,1,35,1
99,-1,1,12,1,13,1,-5,1,-7,1,12,1,-132,1,-126,1,-50,1,-7,1,5,1,16,1
100,-20,1,-2,1,18,1,11,1,-19,1,8,1,-135,1,-184,1,-107,1,-43,1,-20,1,0,1
101,-33,1,-15,1,18,1,24,1,-26,1,1,1,-142,1,-227,1,-150,1,-73,1,-41,1,-16,1
102,-44,1,-28,1,16,1,36,1,-30,1,-6,1,-148,1,-247,1,-174,1,-91,1,-57,1,-28,1
103,-50,1,-37,1,13,1,43,1,-32,1,-12,1,-143,1,-242,1,-177,1,-96,1,-64,1,-36,1
104,-54,1,-44,1,10,1,49,1,-32,1,-17,1,-136,1,-228,1,-171,1,-96,1,-66,1,-42,1
105,-59,1,-49,1,10,1,54,1,-35,1,-20,1,-130,1,-217,1,-164,1,-93,1,-66,1,-43,1
106,-61,1,-51,1,10,1,56,1,-36,1,-21,1,-123,1,-205,1,-159,1,-91,1,-68,1,-46,1
107,-63,1,-54,1,9,1,58,1,-36,1,-23,1,-116,1,-191,1,-153,1,-93,1,-72,1,-52,1
108,-63,1,-58,1,5,1,60,1,-34,1,-27,1,-105,1,-172,1,-143,1,-91,1,-71,1,-55,1
109,-57,1,-52,1,5,1,54,1,-31,1,-24,1,-96,1,-154,1,-131,1,-83,1,-66,1,-53,1
110,-55,1,-42,1,13,1,48,1,-34,1,-15,1,-84,1,-137,1,-117,1,-72,1,-58,1,-47,1
111,-50,1,-40,1,10,1,45,1,-30,1,-15,1,-70,1,-118,1,-103,1,-61,1,-50,1,-40,1
112,-44,1,-36,1,8,1,40,1,-26,1,-14,1,-56,1,-99,1,-89,1,-52,1,-41,1,-34,1
113,-36,1,-28,1,8,1,32,1,-22,1,-10,1,-40,1,-81,1,-74,1,-40,1,-32,1,-27,1
114,-33,1,-23,1,10,1,28,1,-22,1,-7,1,-26,1,-64,1,-60,1,-29,1,-24,1,-21,1
115,-32,1,-18,1,14,1,25,1,-23,1,-2,1,-16,1,-53,1,-50,1,-23,1,-20,1,-18,1
116,-26,1,-18,1,8,1,22,1,-17,1,-5,1,-11,1,-45,1,-46,1,-21,1,-18,1,-17,1
117,-23,1,-19,1,4,1,21,1,-14,1,-8,1,-5,1,-37,1,-40,1,-18,1,-16,1,-17,1
118,-15,1,-16,1,-1,1,15,1,-7,1,-9,1,0,1,-30,1,-37,1,-18,1,-16,1,-17,1
119,-15,1,-18,1,-3,1,16,1,-6,1,-11,1,3,1,-24,1,-34,1,-16,1,-16,1,-17,1
120,-15,1,-23,1,-8,1,19,1,-4,1,-16,1,8,1,-19,1,-29,1,-11,1,-13,1,-15,1
121,-13,1,-25,1,-12,1,19,1,-1,1,-19,1,9,1,-17,1,-28,1,-12,1,-12,1,-15,1
122,-13,1,-23,1,-10,1,18,1,-2,1,-17,1,10,1,-16,1,-28,1,-12,1,-13,1,-15,1
123,-15,1,-22,1,-7,1,18,1,-4,1,-15,1,10,1,-16,1,-28,1,-11,1,-13,1,-15,1
124,-11,1,-20,1,-9,1,15,1,-1,1,-15,1,9,1,-14,1,-27,1,-12,1,-13,1,-15,1
125,-10,1,-20,1,-10,1,15,1,0,1,-15,1,10,1,-13,1,-26,1,-10,1,-11,1,-13,1
126,-11,1,-23,1,-12,1,17,1,0,1,-18,1,12,1,-10,1,-25,1,-9,1,-11,1,-13,1
127,-10,1,-21,1,-11,1,15,1,0,1,-16,1,12,1,-11,1,-25,1,-10,1,-11,1,-14,1
128,-10,1,-16,1,-6,1,13,1,-2,1,-11,1,13,1,-9,1,-23,1,-8,1,-9,1,-13,1
129,-12,1,-13,1,-1,1,12,1,-6,1,-7,1,14,1,-9,1,-23,1,-8,1,-9,1,-14,1
130,-11,1,-18,1,-7,1,14,1,-2,1,-13,1,14,1,-8,1,-23,1,-8,1,-7,1,-14,1
131,-9,1,-17,1,-8,1,13,1,-1,1,-13,1,15,1,-6,1,-21,1,-7,1,-6,1,-14,1
132,-9,1,-11,1,-2,1,10,1,-4,1,-7,1,15,1,-5,1,-20,1,-7,1,-6,1,-14,1
133,-9,1,-10,1,-1,1,9,1,-4,1,-6,1,14,1,-5,1,-19,1,-6,1,-6,1,-16,1
134,-7,1,-14,1,-7,1,10,1,0,1,-11,1,14,1,-5,1,-19,1,-5,1,-6,1,-15,1
135,-9,1,-17,1,-8,1,13,1,-1,1,-13,1,16,1,-3,1,-17,1,-4,1,-6,1,-14,1
136,-6,1,-18,1,-12,1,12,1,3,1,-15,1,17,1,-1,1,-17,1,-4,1,-5,1,-13,1
137,-5,1,-20,1,-15,1,12,1,5,1,-18,1,18,1,0,1,-15,1,-1,1,-4,1,-12,1
138,-7,1,-16,1,-9,1,11,1,1,1,-13,1,18,1,0,1,-14,1,0,1,-3,1,-10,1
139,-7,1,-15,1,-8,1,11,1,0,1,-12,1,20,1,3,1,-12,1,2,1,-3,1,-10,1
140,-8,1,-17,1,-9,1,12,1,0,1,-13,1,20,1,3,1,-12,1,2,1,-3,1,-10,1
141,-9,1,-18,1,-9,1,13,1,0,1,-14,1,20,1,3,1,-13,1,2,1,-3,1,-11,1
142,-9,1,-19,1,-10,1,14,1,0,1,-15,1,20,1,5,1,-11,1,4,1,-3,1,-10,1
143,-5,1,-20,1,-15,1,12,1,5,1,-18,1,22,1,7,1,-9,1,5,1,-3,1,-9,1
144,-4,1,-20,1,-16,1,12,1,6,1,-18,1,21,1,7,1,-9,1,5,1,-5,1,-12,1
145,-12,1,-20,1,-8,1,16,1,-2,1,-14,1,23,1,11,1,-5,1,9,1,-3,1,-9,1
146,-10,1,-17,1,-7,1,13,1,-2,1,-12,1,24,1,13,1,-3,1,12,1,-2,1,-8,1
147,-6,1,-18,1,-12,1,12,1,3,1,-15,1,22,1,14,1,-3,1,13,1,-2,1,-9,1
148,-3,1,-17,1,-14,1,10,1,5,1,-16,1,22,1,14,1,-1,1,14,1,-2,1,-10,1
149,-1,1,-15,1,-14,1,8,1,6,1,-15,1,22,1,15,1,-1,1,15,1,-2,1,-11,1
150,-3,1,-13,1,-10,1,8,1,3,1,-12,1,23,1,17,1,0,1,18,1,-2,1,-10,1
151,-2,1,-12,1,-10,1,7,1,4,1,-11,1,21,1,17,1,1,1,17,1,-2,1,-11,1
152,1,1,-12,1,-13,1,5,1,7,1,-12,1,20,1,17,1,1,1,18,1,-2,1,-11,1
153,0,1,-11,1,-11,1,5,1,5,1,-11,1,23,1,20,1,4,1,20,1,0,1,-9,1
154,-1,1,-9,1,-8,1,5,1,3,1,-9,1,24,1,22,1,6,1,22,1,2,1,-7,1
155,0,1,-7,1,-7,1,3,1,3,1,-7,1,24,1,23,1,6,1,21,1,2,1,-7,1
156,3,1,-4,1,-7,1,0,1,5,1,-5,1,22,1,23,1,7,1,21,1,2,1,-7,1
157,3,1,-5,1,-8,1,1,1,5,1,-6,1,23,1,25,1,9,1,22,1,4,1,-5,1
158,2,1,-6,1,-8,1,2,1,5,1,-7,1,24,1,27,1,11,1,21,1,5,1,-7,1
159,2,1,-8,1,-10,1,3,1,6,1,-9,1,26,1,28,1,13,1,22,1,7,1,-6,1
160,4,1,-10,1,-14,1,3,1,9,1,-12,1,26,1,30,1,13,1,21,1,7,1,-6,1
161,7,1,-9,1,-16,1,1,1,11,1,-12,1,27,1,33,1,16,1,22,1,10,1,-4,1
162,5,1,-11,1,-16,1,3,1,10,1,-13,1,29,1,35,1,19,1,25,1,12,1,-2,1
163,6,1,-7,1,-13,1,0,1,9,1,-10,1,27,1,35,1,19,1,25,1,12,1,-3,1
164,5,1,-7,1,-12,1,1,1,8,1,-9,1,24,1,36,1,19,1,24,1,11,1,-4,1
165,9,1,-2,1,-11,1,-3,1,10,1,-6,1,27,1,40,1,22,1,25,1,13,1,-2,1
166,13,1,-1,1,-14,1,-6,1,13,1,-7,1,29,1,43,1,25,1,28,1,15,1,0,1
167,10,1,2,1,-8,1,-6,1,9,1,-3,1,28,1,43,1,25,1,28,1,14,1,-1,1
168,12,1,4,1,-8,1,-8,1,10,1,-2,1,29,1,45,1,26,1,28,1,14,1,-2,1
169,14,1,2,1,-12,1,-8,1,13,1,-5,1,27,1,46,1,27,1,28,1,13,1,-2,1
170,12,1,2,1,-10,1,-7,1,11,1,-4,1,28,1,48,1,30,1,29,1,15,1,0,1
171,11,1,5,1,-6,1,-8,1,9,1,0,1,30,1,49,1,32,1,31,1,17,1,0,1
172,11,1,7,1,-4,1,-9,1,8,1,2,1,31,1,51,1,34,1,34,1,18,1,1,1
173,11,1,6,1,-5,1,-8,1,8,1,1,1,32,1,53,1,36,1,36,1,18,1,2,1
174,15,1,3,1,-12,1,-9,1,14,1,-4,1,32,1,55,1,38,1,38,1,19,1,1,1
175,17,1,3,1,-14,1,-10,1,16,1,-5,1,32,1,58,1,41,1,40,1,21,1,2,1
176,22,1,3,1,-19,1,-12,1,21,1,-8,1,31,1,59,1,42,1,41,1,21,1,1,1
177,21,1,6,1,-15,1,-13,1,18,1,-4,1,32,1,61,1,45,1,45,1,23,1,2,1
178,14,1,12,1,-2,1,-13,1,8,1,5,1,36,1,67,1,51,1,51,1,27,1,6,1
179,16,1,13,1,-3,1,-14,1,10,1,5,1,36,1,68,1,53,1,51,1,27,1,6,1
180,18,1,12,1,-6,1,-15,1,12,1,3,1,37,1,70,1,56,1,53,1,29,1,7,1
181,21,1,13,1,-8,1,-17,1,15,1,3,1,36,1,72,1,57,1,54,1,30,1,8,1
182,25,1,16,1,-9,1,-20,1,17,1,4,1,34,1,73,1,58,1,54,1,29,1,8,1
183,26,1,17,1,-9,1,-21,1,18,1,4,1,35,1,76,1,60,1,57,1,31,1,8,1
184,24,1,19,1,-5,1,-21,1,15,1,7,1,36,1,78,1,63,1,60,1,34,1,11,1
185,28,1,24,1,-4,1,-26,1,16,1,10,1,33,1,79,1,64,1,60,1,34,1,10,1
186,30,1,24,1,-6,1,-27,1,18,1,9,1,34,1,83,1,67,1,61,1,35,1,11,1
187,29,1,23,1,-6,1,-26,1,18,1,9,1,36,1,85,1,69,1,63,1,38,1,13,1
188,31,1,26,1,-5,1,-28,1,18,1,11,1,36,1,87,1,70,1,64,1,40,1,15,1
189,32,1,32,1,0,1,-32,1,16,1,16,1,34,1,88,1,71,1,64,1,39,1,15,1
190,33,1,36,1,3,1,-34,1,15,1,20,1,33,1,88,1,71,1,63,1,39,1,15,1
191,35,1,36,1,1,1,-35,1,17,1,19,1,36,1,91,1,74,1,65,1,42,1,17,1
192,39,1,40,1,1,1,-39,1,19,1,21,1,34,1,92,1,75,1,66,1,42,1,17,1
193,35,1,42,1,7,1,-38,1,14,1,25,1,34,1,92,1,77,1,66,1,44,1,18,1
194,36,1,38,1,2,1,-37,1,17,1,20,1,34,1,92,1,79,1,64,1,45,1,19,1
195,38,1,40,1,2,1,-39,1,18,1,21,1,33,1,90,1,79,1,63,1,45,1,19,1
196,37,1,39,1,2,1,-38,1,18,1,21,1,33,1,91,1,80,1,63,1,47,1,20,1
197,39,1,35,1,-4,1,-37,1,22,1,16,1,34,1,93,1,80,1,64,1,49,1,22,1
198,39,1,39,1,0,1,-39,1,20,1,20,1,32,1,91,1,80,1,62,1,48,1,22,1
199,39,1,46,1,7,1,-42,1,16,1,27,1,31,1,90,1,80,1,61,1,47,1,22,1
200,38,1,45,1,7,1,-41,1,16,1,26,1,31,1,90,1,81,1,61,1,47,1,22,1
201,39,1,48,1,9,1,-43,1,15,1,29,1,31,1,89,1,81,1,61,1,48,1,24,1
202,39,1,49,1,10,1,-44,1,15,1,30,1,29,1,89,1,80,1,59,1,46,1,23,1
203,39,1,52,1,13,1,-45,1,13,1,33,1,26,1,85,1,77,1,57,1,44,1,22,1
204,37,1,54,1,17,1,-45,1,10,1,36,1,25,1,84,1,77,1,57,1,44,1,21,1
205,35,1,57,1,22,1,-46,1,7,1,40,1,25,1,83,1,76,1,56,1,44,1,22,1
206,37,1,61,1,24,1,-49,1,7,1,43,1,24,1,81,1,76,1,56,1,44,1,22,1
207,37,1,59,1,22,1,-48,1,8,1,41,1,22,1,79,1,74,1,56,1,44,1,22,1
208,36,1,61,1,25,1,-48,1,6,1,43,1,19,1,75,1,72,1,54,1,42,1,20,1
209,35,1,66,1,31,1,-50,1,2,1,49,1,16,1,70,1,68,1,51,1,40,1,18,1
210,33,1,60,1,27,1,-46,1,3,1,44,1,16,1,71,1,68,1,51,1,41,1,19,1
211,31,1,59,1,28,1,-45,1,2,1,44,1,17,1,70,1,68,1,52,1,41,1,20,1
212,35,1,63,1,28,1,-49,1,4,1,46,1,16,1,67,1,65,1,51,1,40,1,19,1
213,37,1,67,1,30,1,-52,1,4,1,49,1,15,1,63,1,64,1,50,1,39,1,17,1
214,33,1,70,1,37,1,-51,1,-2,1,54,1,11,1,57,1,58,1,44,1,34,1,12,1
215,29,1,74,1,45,1,-51,1,-8,1,60,1,11,1,54,1,57,1,43,1,33,1,11,1
216,29,1,73,1,44,1,-51,1,-7,1,59,1,11,1,54,1,56,1,44,1,34,1,12,1
217,31,1,69,1,38,1,-50,1,-3,1,54,1,12,1,52,1,55,1,44,1,34,1,12,1
218,26,1,67,1,41,1,-46,1,-7,1,54,1,12,1,49,1,53,1,43,1,32,1,13,1
219,25,1,67,1,42,1,-46,1,-8,1,55,1,12,1,44,1,49,1,40,1,29,1,10,1
220,28,1,67,1,39,1,-47,1,-5,1,53,1,8,1,38,1,44,1,36,1,24,1,5,1
221,24,1,65,1,41,1,-44,1,-8,1,53,1,8,1,35,1,41,1,34,1,23,1,3,1
222,22,1,60,1,38,1,-41,1,-8,1,49,1,7,1,32,1,38,1,32,1,20,1,1,1
223,22,1,56,1,34,1,-39,1,-6,1,45,1,7,1,28,1,34,1,30,1,18,1,0,1
224,23,1,54,1,31,1,-38,1,-4,1,43,1,6,1,23,1,31,1,26,1,15,1,-2,1
225,20,1,55,1,35,1,-37,1,-7,1,45,1,8,1,21,1,30,1,26,1,15,1,-2,1
226,17,1,53,1,36,1,-35,1,-9,1,45,1,7,1,17,1,27,1,24,1,13,1,-3,1
227,15,1,51,1,36,1,-33,1,-10,1,44,1,5,1,12,1,22,1,20,1,9,1,-5,1
228,15,1,52,1,37,1,-33,1,-11,1,45,1,4,1,8,1,19,1,18,1,7,1,-6,1
229,12,1,49,1,37,1,-30,1,-12,1,43,1,4,1,6,1,17,1,15,1,5,1,-8,1
230,11,1,47,1,36,1,-29,1,-12,1,42,1,2,1,2,1,14,1,12,1,2,1,-11,1
231,10,1,43,1,33,1,-26,1,-11,1,38,1,1,1,-1,1,10,1,7,1,0,1,-12,1
232,6,1,41,1,35,1,-23,1,-14,1,38,1,1,1,-5,1,8,1,4,1,-2,1,-12,1
233,7,1,43,1,36,1,-25,1,-14,1,40,1,1,1,-8,1,5,1,1,1,-4,1,-13,1
234,5,1,39,1,34,1,-22,1,-14,1,37,1,-1,1,-12,1,1,1,-2,1,-7,1,-16,1
235,3,1,36,1,33,1,-19,1,-15,1,35,1,-2,1,-15,1,-1,1,-5,1,-10,1,-17,1
236,3,1,32,1,29,1,-17,1,-13,1,31,1,-2,1,-16,1,-1,1,-7,1,-11,1,-17,1
237,1,1,30,1,29,1,-15,1,-14,1,30,1,-2,1,-18,1,-3,1,-9,1,-12,1,-17,1
238,0,1,29,1,29,1,-14,1,-14,1,29,1,-2,1,-20,1,-5,1,-11,1,-13,1,-18,1
239,-3,1,26,1,29,1,-11,1,-16,1,27,1,-4,1,-24,1,-8,1,-15,1,-17,1,-21,1
240,-7,1,21,1,28,1,-7,1,-17,1,24,1,-4,1,-26,1,-10,1,-18,1,-19,1,-23,1
241,-7,1,18,1,25,1,-5,1,-16,1,21,1,-4,1,-29,1,-12,1,-20,1,-20,1,-24,1
242,-5,1,20,1,25,1,-7,1,-15,1,22,1,-4,1,-28,1,-11,1,-20,1,-20,1,-23,1
243,-3,1,21,1,24,1,-9,1,-13,1,22,1,-4,1,-29,1,-12,1,-20,1,-20,1,-23,1
244,-4,1,21,1,25,1,-8,1,-14,1,23,1,-5,1,-32,1,-14,1,-23,1,-22,1,-24,1
245,-8,1,18,1,26,1,-5,1,-17,1,22,1,-6,1,-34,1,-16,1,-25,1,-22,1,-24,1
246,-4,1,13,1,17,1,-4,1,-10,1,15,1,-6,1,-35,1,-17,1,-27,1,-24,1,-25,1
247,-3,1,15,1,18,1,-6,1,-10,1,16,1,-5,1,-35,1,-17,1,-27,1,-24,1,-25,1
248,-7,1,15,1,22,1,-4,1,-14,1,18,1,-5,1,-37,1,-17,1,-28,1,-24,1,-26,1
249,-8,1,15,1,23,1,-3,1,-15,1,19,1,-8,1,-39,1,-19,1,-30,1,-26,1,-27,1
250,-6,1,19,1,25,1,-6,1,-15,1,22,1,-10,1,-41,1,-21,1,-32,1,-27,1,-29,1
251,-6,1,15,1,21,1,-4,1,-13,1,18,1,-8,1,-41,1,-19,1,-31,1,-27,1,-28,1
252,-5,1,10,1,15,1,-2,1,-10,1,12,1,-7,1,-40,1,-19,1,-31,1,-26,1,-27,1
253,-6,1,12,1,18,1,-3,1,-12,1,15,1,-8,1,-42,1,-19,1,-31,1,-26,1,-26,1
254,-4,1,14,1,18,1,-5,1,-11,1,16,1,-8,1,-42,1,-20,1,-31,1,-26,1,-27,1
255,-5,1,16,1,21,1,-5,1,-13,1,18,1,-9,1,-41,1,-21,1,-32,1,-26,1,-27,1
256,-7,1,13,1,20,1,-3,1,-13,1,16,1,-11,1,-43,1,-21,1,-32,1,-28,1,-28,1
257,-7,1,10,1,17,1,-1,1,-12,1,13,1,-11,1,-42,1,-20,1,-30,1,-25,1,-27,1
258,-4,1,11,1,15,1,-3,1,-9,1,13,1,-11,1,-42,1,-19,1,-30,1,-25,1,-26,1
259,-5,1,11,1,16,1,-3,1,-10,1,13,1,-9,1,-42,1,-19,1,-30,1,-26,1,-25,1
260,-6,1,15,1,21,1,-4,1,-13,1,18,1,-10,1,-43,1,-19,1,-29,1,-26,1,-26,1
261,-4,1,14,1,18,1,-5,1,-11,1,16,1,-11,1,-42,1,-17,1,-29,1,-27,1,-26,1
262,-4,1,13,1,17,1,-4,1,-10,1,15,1,-10,1,-42,1,-17,1,-28,1,-26,1,-26,1
263,-6,1,13,1,19,1,-3,1,-12,1,16,1,-9,1,-41,1,-16,1,-28,1,-25,1,-25,1
264,-4,1,10,1,14,1,-3,1,-9,1,12,1,-7,1,-39,1,-14,1,-27,1,-24,1,-24,1
265,-7,1,6,1,13,1,0,1,-10,1,9,1,-6,1,-39,1,-14,1,-27,1,-24,1,-24,1
266,-8,1,4,1,12,1,2,1,-10,1,8,1,-8,1,-41,1,-15,1,-28,1,-26,1,-25,1
267,-7,1,6,1,13,1,0,1,-10,1,9,1,-7,1,-40,1,-13,1,-28,1,-24,1,-23,1
268,-6,1,12,1,18,1,-3,1,-12,1,15,1,-7,1,-39,1,-12,1,-27,1,-23,1,-23,1
269,-7,1,11,1,18,1,-2,1,-12,1,14,1,-7,1,-39,1,-12,1,-27,1,-24,1,-24,1
270,-7,1,10,1,17,1,-1,1,-12,1,13,1,-9,1,-40,1,-12,1,-27,1,-25,1,-23,1
271,-7,1,9,1,16,1,-1,1,-11,1,12,1,-8,1,-39,1,-13,1,-27,1,-25,1,-23,1
272,-7,1,7,1,14,1,0,1,-10,1,10,1,-6,1,-37,1,-10,1,-25,1,-22,1,-20,1
273,-8,1,7,1,15,1,0,1,-11,1,11,1,-6,1,-36,1,-8,1,-24,1,-22,1,-19,1
274,-5,1,8,1,13,1,-1,1,-9,1,10,1,-6,1,-36,1,-7,1,-24,1,-22,1,-20,1
275,-8,1,7,1,15,1,0,1,-11,1,11,1,-6,1,-37,1,-7,1,-24,1,-22,1,-20,1
276,-4,1,7,1,11,1,-1,1,-7,1,9,1,-6,1,-37,1,-7,1,-25,1,-23,1,-20,1
277,-1,1,4,1,5,1,-1,1,-3,1,4,1,-6,1,-38,1,-7,1,-26,1,-24,1,-21,1
278,-6,1,2,1,8,1,2,1,-7,1,5,1,-5,1,-37,1,-6,1,-24,1,-22,1,-19,1
279,-9,1,0,1,9,1,4,1,-9,1,4,1,-5,1,-37,1,-6,1,-25,1,-22,1,-18,1
280,-7,1,-1,1,6,1,4,1,-7,1,2,1,-6,1,-36,1,-5,1,-25,1,-22,1,-17,1
281,-6,1,1,1,7,1,2,1,-6,1,4,1,-5,1,-34,1,-3,1,-23,1,-21,1,-16,1
282,-5,1,3,1,8,1,1,1,-6,1,5,1,-4,1,-33,1,-3,1,-23,1,-21,1,-16,1
283,-7,1,2,1,9,1,2,1,-8,1,5,1,-4,1,-33,1,-3,1,-23,1,-21,1,-16,1
284,-7,1,4,1,11,1,1,1,-9,1,7,1,-5,1,-35,1,-4,1,-25,1,-22,1,-18,1
285,-4,1,6,1,10,1,-1,1,-7,1,8,1,-7,1,-36,1,-5,1,-25,1,-23,1,-19,1
286,-4,1,5,1,9,1,0,1,-6,1,7,1,-6,1,-33,1,-3,1,-24,1,-21,1,-17,1
287,-5,1,4,1,9,1,0,1,-7,1,6,1,-5,1,-32,1,-2,1,-23,1,-21,1,-16,1
288,-3,1,6,1,9,1,-1,1,-6,1,7,1,-6,1,-33,1,-4,1,-25,1,-22,1,-18,1
289,-3,1,5,1,8,1,-1,1,-5,1,6,1,-6,1,-34,1,-3,1,-25,1,-23,1,-17,1
290,-4,1,2,1,6,1,1,1,-5,1,4,1,-3,1,-32,1,-1,1,-24,1,-22,1,-16,1
291,-4,1,0,1,4,1,2,1,-4,1,2,1,-2,1,-32,1,-2,1,-25,1,-21,1,-16,1
292,-4,1,0,1,4,1,2,1,-4,1,2,1,-1,1,-30,1,-1,1,-24,1,-22,1,-15,1
293,-3,1,1,1,4,1,1,1,-3,1,2,1,0,1,-29,1,0,1,-23,1,-21,1,-13,1
294,-2,1,4,1,6,1,-1,1,-4,1,5,1,1,1,-29,1,0,1,-22,1,-21,1,-14,1
295,-2,1,1,1,3,1,0,1,-2,1,2,1,1,1,-28,1,1,1,-22,1,-20,1,-14,1
296,-2,1,0,1,2,1,1,1,-2,1,1,1,0,1,-30,1,1,1,-22,1,-22,1,-14,1
297,-1,1,2,1,3,1,0,1,-2,1,2,1,0,1,-30,1,1,1,-23,1,-22,1,-14,1
298,0,1,3,1,3,1,-1,1,-1,1,3,1,0,1,-29,1,0,1,-24,1,-22,1,-13,1
299,-1,1,1,1,2,1,0,1,-1,1,1,1,0,1,-28,1,1,1,-23,1,-22,1,-11,1
300,-3,1,2,1,5,1,0,1,-4,1,3,1,1,1,-28,1,1,1,-24,1,-22,1,-11,1
301,-5,1,2,1,7,1,1,1,-6,1,4,1,1,1,-30,1,0,1,-25,1,-23,1,-12,1
302,-5,1,2,1,7,1,1,1,-6,1,4,1,0,1,-31,1,0,1,-25,1,-23,1,-12,1
303,-3,1,0,1,3,1,1,1,-3,1,1,1,0,1,-30,1,0,1,-25,1,-23,1,-11,1
304,-2,1,4,1,6,1,-1,1,-4,1,5,1,0,1,-30,1,0,1,-25,1,-23,1,-11,1
305,-1,1,0,1,1,1,0,1,-1,1,0,1,0,1,-30,1,1,1,-25,1,-24,1,-11,1
306,0,1,-2,1,-2,1,1,1,1,1,-2,1,0,1,-29,1,2,1,-24,1,-24,1,-10,1
307,-4,1,-1,1,3,1,2,1,-4,1,1,1,-1,1,-30,1,1,1,-25,1,-25,1,-11,1
308,-7,1,1,1,8,1,3,1,-7,1,4,1,-1,1,-31,1,0,1,-26,1,-26,1,-12,1
309,-3,1,3,1,6,1,0,1,-4,1,4,1,0,1,-31,1,1,1,-25,1,-24,1,-11,1
310,-10,1,1,1,11,1,4,1,-10,1,6,1,1,1,-29,1,3,1,-22,1,-22,1,-8,1
311,-13,1,0,1,13,1,6,1,-13,1,6,1,2,1,-30,1,3,1,-22,1,-21,1,-9,1
312,-6,1,0,1,6,1,3,1,-6,1,3,1,3,1,-30,1,2,1,-23,1,-23,1,-9,1
313,-2,1,0,1,2,1,1,1,-2,1,1,1,3,1,-30,1,1,1,-24,1,-23,1,-10,1
314,-1,1,1,1,2,1,0,1,-1,1,1,1,0,1,-33,1,-1,1,-27,1,-25,1,-14,1
315,-1,1,0,1,1,1,0,1,-1,1,0,1,0,1,-33,1,-1,1,-27,1,-25,1,-14,1
316,-3,1,-3,1,0,1,3,1,-2,1,-2,1,2,1,-32,1,1,1,-25,1,-24,1,-11,1
317,-4,1,-2,1,2,1,3,1,-3,1,0,1,1,1,-33,1,0,1,-27,1,-26,1,-13,1
318,-5,1,-1,1,4,1,3,1,-5,1,1,1,0,1,-34,1,-2,1,-27,1,-26,1,-13,1
319,-3,1,2,1,5,1,0,1,-4,1,3,1,-1,1,-35,1,-3,1,-27,1,-27,1,-14,1
320,0,1,-1,1,-1,1,0,1,0,1,-1,1,0,1,-35,1,-2,1,-27,1,-27,1,-14,1
321,-4,1,-9,1,-5,1,6,1,0,1,-7,1,1,1,-33,1,0,1,-25,1,-24,1,-12,1
322,-6,1,-11,1,-5,1,8,1,-1,1,-8,1,3,1,-32,1,1,1,-23,1,-22,1,-10,1
323,-6,1,-10,1,-4,1,8,1,-1,1,-7,1,2,1,-32,1,1,1,-24,1,-23,1,-10,1
324,-7,1,-9,1,-2,1,8,1,-3,1,-6,1,3,1,-32,1,1,1,-24,1,-23,1,-10,1
325,-5,1,-6,1,-1,1,5,1,-2,1,-4,1,1,1,-33,1,0,1,-25,1,-24,1,-11,1
326,-6,1,-9,1,-3,1,7,1,-2,1,-6,1,1,1,-34,1,-1,1,-27,1,-25,1,-12,1
327,-7,1,-11,1,-4,1,9,1,-2,1,-8,1,1,1,-35,1,-1,1,-26,1,-25,1,-12,1
328,-7,1,-8,1,-1,1,7,1,-3,1,-5,1,1,1,-36,1,-1,1,-25,1,-25,1,-11,1
329,-5,1,-9,1,-4,1,7,1,-1,1,-7,1,0,1,-36,1,-2,1,-26,1,-26,1,-12,1
330,-5,1,-10,1,-5,1,7,1,0,1,-8,1,0,1,-36,1,-3,1,-25,1,-26,1,-11,1
331,-7,1,-10,1,-3,1,8,1,-2,1,-7,1,1,1,-35,1,-2,1,-25,1,-26,1,-11,1
332,-6,1,-12,1,-6,1,9,1,0,1,-9,1,0,1,-37,1,-4,1,-26,1,-27,1,-12,1
333,-6,1,-11,1,-5,1,8,1,-1,1,-8,1,0,1,-36,1,-3,1,-26,1,-26,1,-12,1
334,-8,1,-9,1,-1,1,8,1,-4,1,-5,1,1,1,-36,1,-3,1,-25,1,-25,1,-11,1
335,-7,1,-4,1,3,1,5,1,-5,1,-1,1,1,1,-38,1,-5,1,-26,1,-27,1,-13,1
336,-3,1,-2,1,1,1,2,1,-2,1,-1,1,1,1,-38,1,-4,1,-26,1,-26,1,-12,1
337,-6,1,-11,1,-5,1,8,1,-1,1,-8,1,1,1,-38,1,-6,1,-26,1,-25,1,-12,1
338,-7,1,-13,1,-6,1,10,1,-1,1,-10,1,2,1,-38,1,-5,1,-26,1,-25,1,-11,1
339,-8,1,-12,1,-4,1,10,1,-2,1,-8,1,2,1,-39,1,-6,1,-28,1,-25,1,-11,1
340,-8,1,-13,1,-5,1,10,1,-2,1,-9,1,2,1,-39,1,-5,1,-29,1,-25,1,-10,1
341,-8,1,-14,1,-6,1,11,1,-1,1,-10,1,1,1,-40,1,-6,1,-30,1,-25,1,-10,1
342,-7,1,-12,1,-5,1,9,1,-1,1,-9,1,1,1,-40,1,-6,1,-31,1,-25,1,-9,1
343,-8,1,-12,1,-4,1,10,1,-2,1,-8,1,1,1,-40,1,-6,1,-32,1,-25,1,-9,1
344,-5,1,-10,1,-5,1,7,1,0,1,-8,1,1,1,-39,1,-5,1,-32,1,-24,1,-8,1
345,-6,1,-11,1,-5,1,8,1,-1,1,-8,1,2,1,-39,1,-5,1,-32,1,-24,1,-8,1
346,-7,1,-12,1,-5,1,9,1,-1,1,-9,1,1,1,-40,1,-6,1,-33,1,-24,1,-9,1
347,-9,1,-13,1,-4,1,11,1,-3,1,-9,1,2,1,-40,1,-5,1,-33,1,-23,1,-8,1
348,-9,1,-12,1,-3,1,10,1,-3,1,-8,1,2,1,-40,1,-5,1,-33,1,-24,1,-8,1
349,-6,1,-11,1,-5,1,8,1,-1,1,-8,1,-1,1,-41,1,-7,1,-35,1,-26,1,-9,1
350,-4,1,-11,1,-7,1,7,1,1,1,-9,1,-2,1,-42,1,-8,1,-36,1,-27,1,-10,1
351,-6,1,-10,1,-4,1,8,1,-1,1,-7,1,-4,1,-44,1,-10,1,-38,1,-29,1,-11,1
352,-9,1,-10,1,-1,1,9,1,-4,1,-6,1,-2,1,-43,1,-8,1,-37,1,-28,1,-9,1
353,-7,1,-10,1,-3,1,8,1,-2,1,-7,1,-2,1,-43,1,-8,1,-36,1,-28,1,-9,1
354,-5,1,-9,1,-4,1,7,1,-1,1,-7,1,-1,1,-44,1,-8,1,-36,1,-27,1,-8,1
355,-9,1,-10,1,-1,1,9,1,-4,1,-6,1,0,1,-43,1,-8,1,-34,1,-26,1,-7,1
356,-9,1,-12,1,-3,1,10,1,-3,1,-8,1,1,1,-41,1,-6,1,-33,1,-25,1,-5,1
357,-6,1,-10,1,-4,1,8,1,-1,1,-7,1,1,1,-41,1,-6,1,-35,1,-26,1,-6,1
358,-4,1,-6,1,-2,1,5,1,-1,1,-4,1,1,1,-41,1,-8,1,-35,1,-27,1,-6,1
359,-5,1,-6,1,-1,1,5,1,-2,1,-4,1,2,1,-39,1,-6,1,-33,1,-25,1,-5,1
360,-6,1,-6,1,0,1,6,1,-3,1,-3,1,2,1,-39,1,-4,1,-33,1,-25,1,-4,1
361,-5,1,-6,1,-1,1,5,1,-2,1,-4,1,3,1,-39,1,-4,1,-33,1,-25,1,-4,1
362,-7,1,-5,1,2,1,6,1,-5,1,-2,1,4,1,-38,1,-4,1,-32,1,-25,1,-3,1
363,-5,1,-6,1,-1,1,5,1,-2,1,-4,1,5,1,-38,1,-4,1,-32,1,-26,1,-3,1
364,-7,1,-9,1,-2,1,8,1,-3,1,-6,1,5,1,-39,1,-5,1,-33,1,-27,1,-4,1
365,-4,1,-7,1,-3,1,5,1,-1,1,-5,1,5,1,-39,1,-4,1,-31,1,-25,1,-2,1
366,-3,1,-2,1,1,1,2,1,-2,1,-1,1,5,1,-39,1,-3,1,-31,1,-25,1,-2,1
367,-6,1,0,1,6,1,3,1,-6,1,3,1,4,1,-39,1,-3,1,-31,1,-25,1,-2,1
368,-4,1,0,1,4,1,2,1,-4,1,2,1,4,1,-39,1,-3,1,-31,1,-24,1,-2,1
369,-3,1,2,1,5,1,0,1,-4,1,3,1,4,1,-38,1,-2,1,-30,1,-24,1,-2,1
370,-3,1,2,1,5,1,0,1,-4,1,3,1,6,1,-37,1,-1,1,-30,1,-24,1,-1,1
371,-3,1,1,1,4,1,1,1,-3,1,2,1,4,1,-38,1,-2,1,-32,1,-26,1,-3,1
372,-4,1,2,1,6,1,1,1,-5,1,4,1,2,1,-39,1,-3,1,-31,1,-25,1,-2,1
373,-4,1,2,1,6,1,1,1,-5,1,4,1,3,1,-38,1,-1,1,-30,1,-23,1,0,1
374,-3,1,2,1,5,1,0,1,-4,1,3,1,2,1,-38,1,-1,1,-28,1,-22,1,1,1
375,1,1,4,1,3,1,-2,1,-1,1,4,1,1,1,-38,1,0,1,-27,1,-20,1,3,1
376,5,1,4,1,-1,1,-4,1,3,1,2,1,1,1,-36,1,2,1,-24,1,-18,1,5,1
377,7,1,7,1,0,1,-7,1,4,1,4,1,1,1,-34,1,3,1,-23,1,-17,1,6,1
378,6,1,8,1,2,1,-7,1,2,1,5,1,2,1,-35,1,3,1,-24,1,-17,1,6,1
379,6,1,5,1,-1,1,-5,1,4,1,2,1,1,1,-35,1,2,1,-25,1,-18,1,6,1
380,9,1,6,1,-3,1,-7,1,6,1,2,1,-1,1,-35,1,2,1,-25,1,-18,1,7,1
381,10,1,5,1,-5,1,-7,1,8,1,0,1,-2,1,-35,1,1,1,-24,1,-19,1,6,1
382,10,1,1,1,-9,1,-5,1,10,1,-4,1,-3,1,-36,1,2,1,-24,1,-18,1,6,1
383,8,1,0,1,-8,1,-4,1,8,1,-4,1,-5,1,-38,1,0,1,-26,1,-19,1,5,1
384,7,1,5,1,-2,1,-6,1,5,1,2,1,-6,1,-39,1,-1,1,-26,1,-20,1,4,1
385,7,1,2,1,-5,1,-4,1,6,1,-1,1,-4,1,-39,1,-1,1,-25,1,-20,1,5,1
386,6,1,-3,1,-9,1,-1,1,7,1,-6,1,-2,1,-36,1,0,1,-23,1,-19,1,5,1
387,9,1,-3,1,-12,1,-3,1,10,1,-7,1,-1,1,-35,1,1,1,-23,1,-20,1,5,1
388,6,1,-4,1,-10,1,-1,1,8,1,-7,1,0,1,-33,1,2,1,-22,1,-18,1,5,1
389,3,1,-4,1,-7,1,0,1,5,1,-5,1,1,1,-33,1,3,1,-22,1,-18,1,6,1
390,9,1,-3,1,-12,1,-3,1,10,1,-7,1,0,1,-34,1,2,1,-23,1,-20,1,4,1
391,10,1,-5,1,-15,1,-2,1,12,1,-10,1,0,1,-35,1,0,1,-25,1,-21,1,3,1
392,6,1,-4,1,-10,1,-1,1,8,1,-7,1,-1,1,-36,1,-1,1,-25,1,-22,1,3,1
393,3,1,-4,1,-7,1,0,1,5,1,-5,1,-2,1,-37,1,-1,1,-25,1,-21,1,4,1
394,6,1,-5,1,-11,1,0,1,8,1,-8,1,-4,1,-36,1,-1,1,-25,1,-20,1,3,1
395,14,1,-1,1,-15,1,-6,1,14,1,-8,1,-4,1,-34,1,-2,1,-25,1,-20,1,2,1
396,10,1,-1,1,-11,1,-4,1,10,1,-6,1,-3,1,-32,1,-1,1,-25,1,-20,1,3,1
397,9,1,-3,1,-12,1,-3,1,10,1,-7,1,-3,1,-32,1,-2,1,-26,1,-21,1,1,1
398,6,1,-6,1,-12,1,0,1,9,1,-9,1,-5,1,-32,1,-3,1,-28,1,-23,1,-1,1
399,5,1,-9,1,-14,1,2,1,9,1,-11,1,-4,1,-31,1,-4,1,-29,1,-24,1,-3,1
400,4,1,-9,1,-13,1,2,1,8,1,-11,1,-2,1,-30,1,-4,1,-28,1,-25,1,-4,1
401,3,1,-12,1,-15,1,4,1,9,1,-13,1,-1,1,-29,1,-4,1,-28,1,-25,1,-3,1
402,2,1,-11,1,-13,1,4,1,7,1,-12,1,-1,1,-29,1,-4,1,-29,1,-25,1,-3,1
403,-2,1,-10,1,-8,1,6,1,3,1,-9,1,0,1,-31,1,-5,1,-30,1,-28,1,-6,1
404,-5,1,-12,1,-7,1,8,1,1,1,-10,1,1,1,-31,1,-6,1,-31,1,-28,1,-8,1
405,-4,1,-15,1,-11,1,9,1,3,1,-13,1,0,1,-31,1,-7,1,-33,1,-30,1,-8,1
406,-6,1,-15,1,-9,1,10,1,1,1,-12,1,0,1,-31,1,-7,1,-32,1,-30,1,-9,1
407,-7,1,-16,1,-9,1,11,1,1,1,-13,1,-1,1,-32,1,-8,1,-33,1,-30,1,-10,1
408,-9,1,-18,1,-9,1,13,1,0,1,-14,1,-1,1,-33,1,-8,1,-33,1,-31,1,-10,1
409,-10,1,-22,1,-12,1,16,1,1,1,-17,1,-1,1,-34,1,-10,1,-34,1,-33,1,-11,1
410,-5,1,-23,1,-18,1,14,1,6,1,-21,1,-1,1,-32,1,-10,1,-33,1,-33,1,-11,1
411,-7,1,-25,1,-18,1,16,1,5,1,-22,1,0,1,-32,1,-10,1,-34,1,-33,1,-11,1
412,-9,1,-24,1,-15,1,16,1,3,1,-20,1,0,1,-33,1,-11,1,-34,1,-33,1,-10,1
413,-13,1,-27,1,-14,1,20,1,0,1,-21,1,-2,1,-33,1,-10,1,-34,1,-33,1,-9,1
414,-8,1,-23,1,-15,1,15,1,3,1,-19,1,-2,1,-31,1,-8,1,-32,1,-31,1,-7,1
415,-7,1,-23,1,-16,1,15,1,4,1,-20,1,-2,1,-33,1,-9,1,-33,1,-32,1,-8,1
416,-9,1,-22,1,-13,1,15,1,2,1,-18,1,-2,1,-33,1,-9,1,-32,1,-31,1,-7,1
417,-11,1,-23,1,-12,1,17,1,0,1,-18,1,-1,1,-32,1,-9,1,-32,1,-32,1,-9,1
418,-6,1,-24,1,-18,1,15,1,6,1,-21,1,0,1,-33,1,-10,1,-34,1,-26,1,-11,1
419,-5,1,-22,1,-17,1,13,1,6,1,-20,1,-1,1,-34,1,-10,1,-35,1,-7,1,-11,1
420,-6,1,-20,1,-14,1,13,1,4,1,-17,1,-1,1,-34,1,-11,1,-35,1,0,1,-12,1
421,-4,1,-19,1,-15,1,11,1,5,1,-17,1,0,1,-35,1,-12,1,-35,1,2,1,-12,1
422,-3,1,-20,1,-17,1,11,1,7,1,-19,1,0,1,-34,1,-12,1,-35,1,7,1,-12,1
423,-8,1,-20,1,-12,1,14,1,2,1,-16,1,-1,1,-33,1,-12,1,-35,1,11,1,-11,1
424,-10,1,-21,1,-11,1,15,1,0,1,-16,1,0,1,-31,1,-10,1,-34,1,16,1,-10,1
425,-9,1,-21,1,-12,1,15,1,1,1,-17,1,2,1,-30,1,-9,1,-32,1,19,1,-8,1
426,-3,1,-14,1,-11,1,8,1,4,1,-13,1,1,1,-30,1,-10,1,-32,1,20,1,-8,1
427,-6,1,-13,1,-7,1,9,1,0,1,-10,1,1,1,-31,1,-11,1,-33,1,20,1,-9,1
428,-9,1,-17,1,-8,1,13,1,-1,1,-13,1,2,1,-30,1,-10,1,-31,1,23,1,-9,1
429,-6,1,-17,1,-11,1,11,1,2,1,-14,1,1,1,-31,1,-12,1,-32,1,23,1,-11,1
430,-4,1,-13,1,-9,1,8,1,2,1,-11,1,1,1,-30,1,-12,1,-31,1,23,1,-10,1
431,-1,1,-10,1,-9,1,5,1,4,1,-10,1,0,1,-32,1,-13,1,-32,1,23,1,-12,1
432,-3,1,-16,1,-13,1,9,1,5,1,-15,1,0,1,-32,1,-13,1,-33,1,23,1,-12,1
433,-6,1,-18,1,-12,1,12,1,3,1,-15,1,2,1,-31,1,-14,1,-32,1,24,1,-12,1
434,-4,1,-20,1,-16,1,12,1,6,1,-18,1,2,1,-31,1,-13,1,-31,1,24,1,-11,1
435,-6,1,-23,1,-17,1,14,1,5,1,-20,1,4,1,-28,1,-11,1,-28,1,28,1,-9,1
436,-8,1,-26,1,-18,1,17,1,5,1,-22,1,8,1,-25,1,-9,1,-26,1,30,1,-7,1
437,-8,1,-21,1,-13,1,14,1,2,1,-17,1,11,1,-22,1,-8,1,-25,1,32,1,-7,1
438,-8,1,-16,1,-8,1,12,1,0,1,-12,1,15,1,-20,1,-8,1,-26,1,31,1,-8,1
439,-9,1,-17,1,-8,1,13,1,-1,1,-13,1,22,1,-13,1,-4,1,-24,1,33,1,-7,1
440,-6,1,-14,1,-8,1,10,1,1,1,-11,1,25,1,-5,1,1,1,-19,1,39,1,-3,1
441,-1,1,-13,1,-12,1,7,1,5,1,-13,1,29,1,3,1,6,1,-15,1,42,1,-3,1
442,6,1,-13,1,-19,1,3,1,12,1,-16,1,34,1,18,1,15,1,-11,1,45,1,-3,1
443,13,1,-10,1,-23,1,-1,1,18,1,-16,1,44,1,40,1,30,1,-1,1,53,1,0,1
444,21,1,-2,1,-23,1,-9,1,22,1,-12,1,54,1,60,1,47,1,13,1,64,1,6,1
445,33,1,9,1,-24,1,-21,1,29,1,-7,1,60,1,89,1,74,1,32,1,80,1,18,1
446,43,1,21,1,-22,1,-32,1,33,1,0,1,62,1,116,1,102,1,53,1,97,1,29,1
447,56,1,36,1,-20,1,-46,1,38,1,8,1,53,1,141,1,134,1,78,1,118,1,44,1
448,77,1,52,1,-25,1,-64,1,51,1,14,1,32,1,162,1,169,1,107,1,143,1,61,1
449,96,1,71,1,-25,1,-83,1,61,1,23,1,6,1,177,1,202,1,136,1,170,1,81,1
450,115,1,100,1,-15,1,-107,1,65,1,43,1,-35,1,170,1,224,1,163,1,197,1,105,1
451,130,1,121,1,-9,1,-125,1,70,1,56,1,-79,1,147,1,235,1,181,1,218,1,126,1
452,136,1,133,1,-3,1,-134,1,70,1,65,1,-114,1,127,1,239,1,190,1,230,1,138,1
453,130,1,135,1,5,1,-132,1,63,1,70,1,-131,1,111,1,239,1,191,1,232,1,140,1
454,114,1,114,1,0,1,-114,1,57,1,57,1,-130,1,94,1,224,1,171,1,213,1,122,1
455,96,1,86,1,-10,1,-91,1,53,1,38,1,-127,1,65,1,188,1,137,1,183,1,97,1
456,78,1,72,1,-6,1,-75,1,42,1,33,1,-129,1,18,1,133,1,93,1,153,1,78,1
457,56,1,64,1,8,1,-60,1,24,1,36,1,-129,1,-29,1,80,1,54,1,126,1,61,1
458,37,1,49,1,12,1,-43,1,13,1,31,1,-131,1,-78,1,27,1,18,1,98,1,42,1
459,21,1,35,1,14,1,-28,1,4,1,25,1,-134,1,-130,1,-26,1,-16,1,72,1,25,1
460,1,1,20,1,19,1,-10,1,-9,1,20,1,-136,1,-187,1,-79,1,-48,1,50,1,10,1
461,-12,1,5,1,17,1,3,1,-14,1,11,1,-143,1,-225,1,-118,1,-74,1,31,1,-3,1
462,-23,1,-7,1,16,1,15,1,-20,1,4,1,-148,1,-241,1,-139,1,-89,1,18,1,-15,1
463,-31,1,-15,1,16,1,23,1,-24,1,0,1,-142,1,-232,1,-140,1,-94,1,11,1,-23,1
464,-33,1,-21,1,12,1,27,1,-23,1,-5,1,-135,1,-219,1,-136,1,-95,1,7,1,-29,1
465,-36,1,-24,1,12,1,30,1,-24,1,-6,1,-129,1,-208,1,-131,1,-93,1,6,1,-31,1
466,-42,1,-26,1,16,1,34,1,-29,1,-5,1,-121,1,-194,1,-124,1,-91,1,5,1,-34,1
467,-44,1,-32,1,12,1,38,1,-28,1,-10,1,-113,1,-179,1,-120,1,-93,1,1,1,-40,1
468,-42,1,-40,1,2,1,41,1,-22,1,-19,1,-105,1,-163,1,-113,1,-94,1,-2,1,-44,1
469,-38,1,-32,1,6,1,35,1,-22,1,-13,1,-94,1,-143,1,-98,1,-85,1,4,1,-39,1
470,-28,1,-21,1,7,1,24,1,-18,1,-7,1,-82,1,-123,1,-84,1,-75,1,12,1,-33,1
471,-29,1,-20,1,9,1,24,1,-19,1,-6,1,-68,1,-107,1,-73,1,-67,1,17,1,-29,1
472,-21,1,-10,1,11,1,15,1,-16,1,0,1,-54,1,-91,1,-60,1,-57,1,23,1,-24,1
473,-13,1,-7,1,6,1,10,1,-10,1,-1,1,-36,1,-70,1,-44,1,-45,1,33,1,-16,1
474,-8,1,-4,1,4,1,6,1,-6,1,0,1,-24,1,-54,1,-33,1,-36,1,38,1,-12,1
475,-6,1,-1,1,5,1,3,1,-6,1,2,1,-14,1,-43,1,-26,1,-31,1,41,1,-10,1
476,-3,1,-1,1,2,1,2,1,-3,1,0,1,-7,1,-35,1,-20,1,-26,1,43,1,-9,1
477,-4,1,0,1,4,1,2,1,-4,1,2,1,-2,1,-30,1,-18,1,-26,1,43,1,-9,1
478,-1,1,0,1,1,1,0,1,-1,1,0,1,1,1,-24,1,-14,1,-25,1,43,1,-11,1
479,1,1,-6,1,-7,1,2,1,4,1,-6,1,7,1,-16,1,-9,1,-21,1,45,1,-10,1
480,2,1,-11,1,-13,1,4,1,7,1,-12,1,9,1,-11,1,-6,1,-20,1,46,1,-10,1
481,5,1,-13,1,-18,1,4,1,11,1,-15,1,9,1,-10,1,-6,1,-19,1,45,1,-10,1
482,3,1,-13,1,-16,1,5,1,9,1,-14,1,11,1,-8,1,-5,1,-20,1,44,1,-10,1
483,2,1,-10,1,-12,1,4,1,7,1,-11,1,11,1,-8,1,-4,1,-19,1,44,1,-9,1
484,1,1,-5,1,-6,1,2,1,3,1,-5,1,11,1,-7,1,-4,1,-19,1,44,1,-9,1
485,1,1,-7,1,-8,1,3,1,4,1,-7,1,12,1,-6,1,-3,1,-18,1,44,1,-11,1
486,4,1,-12,1,-16,1,4,1,10,1,-14,1,13,1,-4,1,-2,1,-18,1,44,1,-11,1
487,4,1,-16,1,-20,1,6,1,12,1,-18,1,14,1,-2,1,0,1,-17,1,45,1,-10,1
488,2,1,-17,1,-19,1,7,1,10,1,-18,1,17,1,0,1,2,1,-14,1,47,1,-7,1
489,2,1,-17,1,-19,1,7,1,10,1,-18,1,18,1,2,1,3,1,-13,1,47,1,-7,1
490,4,1,-14,1,-18,1,5,1,11,1,-16,1,18,1,1,1,3,1,-13,1,46,1,-8,1
491,6,1,-12,1,-18,1,3,1,12,1,-15,1,16,1,1,1,3,1,-14,1,44,1,-10,1
492,6,1,-13,1,-19,1,3,1,12,1,-16,1,16,1,1,1,2,1,-15,1,44,1,-11,1
493,8,1,-12,1,-20,1,2,1,14,1,-16,1,16,1,3,1,4,1,-14,1,43,1,-11,1
494,7,1,-13,1,-20,1,3,1,13,1,-16,1,17,1,5,1,6,1,-14,1,44,1,-10,1
495,5,1,-13,1,-18,1,4,1,11,1,-15,1,17,1,5,1,7,1,-13,1,46,1,-8,1
496,7,1,-11,1,-18,1,2,1,12,1,-14,1,18,1,5,1,8,1,-12,1,46,1,-8,1
497,7,1,-10,1,-17,1,1,1,12,1,-13,1,17,1,5,1,8,1,-11,1,47,1,-8,1
498,7,1,-9,1,-16,1,1,1,11,1,-12,1,16,1,5,1,7,1,-9,1,47,1,-8,1
499,9,1,-8,1,-17,1,0,1,13,1,-12,1,16,1,7,1,7,1,-8,1,47,1,-6,1
500,9,1,-7,1,-16,1,-1,1,12,1,-11,1,17,1,9,1,9,1,-6,1,48,1,-6,1
501,9,1,-9,1,-18,1,0,1,13,1,-13,1,17,1,9,1,8,1,-5,1,46,1,-5,1
502,9,1,-8,1,-17,1,0,1,13,1,-12,1,18,1,11,1,9,1,-4,1,46,1,-5,1
503,11,1,-6,1,-17,1,-2,1,14,1,-11,1,19,1,11,1,9,1,-3,1,45,1,-5,1
504,10,1,-5,1,-15,1,-2,1,12,1,-10,1,19,1,12,1,9,1,-2,1,45,1,-5,1
505,5,1,-6,1,-11,1,0,1,8,1,-8,1,21,1,14,1,11,1,0,1,45,1,-3,1
506,10,1,-8,1,-18,1,-1,1,14,1,-13,1,21,1,15,1,12,1,0,1,45,1,-4,1
507,13,1,-7,1,-20,1,-3,1,16,1,-13,1,20,1,14,1,10,1,1,1,44,1,-6,1
508,14,1,-7,1,-21,1,-3,1,17,1,-14,1,21,1,16,1,13,1,4,1,46,1,-5,1
509,14,1,-7,1,-21,1,-3,1,17,1,-14,1,19,1,15,1,12,1,4,1,44,1,-7,1
510,12,1,-5,1,-17,1,-3,1,14,1,-11,1,20,1,18,1,14,1,4,1,44,1,-7,1
511,11,1,-7,1,-18,1,-2,1,14,1,-12,1,21,1,22,1,17,1,6,1,45,1,-5,1
512,12,1,-8,1,-20,1,-2,1,16,1,-14,1,21,1,23,1,18,1,7,1,45,1,-5,1
513,12,1,-6,1,-18,1,-3,1,15,1,-12,1,22,1,24,1,19,1,9,1,46,1,-4,1
514,9,1,-6,1,-15,1,-1,1,12,1,-10,1,23,1,25,1,19,1,10,1,46,1,-5,1
515,8,1,-6,1,-14,1,-1,1,11,1,-10,1,23,1,27,1,19,1,9,1,45,1,-4,1
516,13,1,-2,1,-15,1,-5,1,14,1,-8,1,24,1,28,1,20,1,9,1,46,1,-4,1
517,18,1,5,1,-13,1,-11,1,16,1,-4,1,23,1,27,1,20,1,8,1,46,1,-5,1
518,14,1,4,1,-10,1,-9,1,12,1,-3,1,22,1,28,1,19,1,8,1,45,1,-6,1
519,15,1,-1,1,-16,1,-7,1,15,1,-8,1,22,1,30,1,21,1,8,1,47,1,-4,1
520,18,1,-3,1,-21,1,-7,1,19,1,-12,1,23,1,32,1,22,1,8,1,48,1,-4,1
521,18,1,-5,1,-23,1,-6,1,20,1,-14,1,25,1,35,1,25,1,9,1,50,1,-2,1
522,18,1,-7,1,-25,1,-5,1,21,1,-16,1,24,1,37,1,27,1,9,1,52,1,-1,1
523,19,1,-1,1,-20,1,-9,1,19,1,-10,1,24,1,38,1,28,1,9,1,52,1,-1,1
524,21,1,2,1,-19,1,-11,1,20,1,-8,1,24,1,39,1,28,1,8,1,51,1,-1,1
525,19,1,5,1,-14,1,-12,1,17,1,-4,1,23,1,39,1,28,1,8,1,51,1,0,1
526,18,1,6,1,-12,1,-12,1,15,1,-3,1,24,1,43,1,31,1,10,1,52,1,2,1
527,19,1,10,1,-9,1,-14,1,14,1,1,1,22,1,43,1,30,1,9,1,52,1,0,1
528,22,1,8,1,-14,1,-15,1,18,1,-3,1,24,1,47,1,33,1,13,1,54,1,2,1
529,24,1,4,1,-20,1,-14,1,22,1,-8,1,25,1,49,1,36,1,15,1,54,1,2,1
530,27,1,2,1,-25,1,-14,1,26,1,-11,1,24,1,49,1,36,1,16,1,54,1,2,1
531,24,1,3,1,-21,1,-13,1,23,1,-9,1,25,1,52,1,37,1,18,1,55,1,4,1
532,23,1,6,1,-17,1,-14,1,20,1,-5,1,26,1,54,1,39,1,20,1,55,1,3,1
533,26,1,8,1,-18,1,-17,1,22,1,-5,1,27,1,55,1,40,1,23,1,55,1,3,1
534,26,1,10,1,-16,1,-18,1,21,1,-3,1,27,1,57,1,41,1,25,1,55,1,3,1
535,30,1,14,1,-16,1,-22,1,23,1,-1,1,26,1,57,1,41,1,27,1,55,1,3,1
536,29,1,18,1,-11,1,-23,1,20,1,4,1,27,1,61,1,44,1,32,1,57,1,4,1
537,29,1,18,1,-11,1,-23,1,20,1,4,1,26,1,62,1,46,1,34,1,57,1,3,1
538,30,1,17,1,-13,1,-23,1,22,1,2,1,28,1,66,1,49,1,37,1,58,1,3,1
539,30,1,18,1,-12,1,-24,1,21,1,3,1,28,1,68,1,52,1,40,1,58,1,4,1
540,31,1,20,1,-11,1,-25,1,21,1,5,1,27,1,70,1,53,1,41,1,58,1,3,1
541,30,1,24,1,-6,1,-27,1,18,1,9,1,28,1,70,1,54,1,41,1,57,1,3,1
542,30,1,27,1,-3,1,-28,1,17,1,12,1,28,1,72,1,56,1,42,1,58,1,4,1
543,31,1,26,1,-5,1,-28,1,18,1,11,1,28,1,74,1,58,1,45,1,59,1,5,1
544,33,1,26,1,-7,1,-29,1,20,1,10,1,28,1,76,1,60,1,46,1,61,1,6,1
545,33,1,26,1,-7,1,-29,1,20,1,10,1,29,1,79,1,63,1,49,1,63,1,9,1
546,32,1,27,1,-5,1,-29,1,19,1,11,1,28,1,82,1,65,1,51,1,65,1,11,1
547,33,1,29,1,-4,1,-31,1,19,1,13,1,25,1,82,1,64,1,48,1,63,1,10,1
548,32,1,28,1,-4,1,-30,1,18,1,12,1,24,1,83,1,65,1,49,1,64,1,11,1
549,32,1,27,1,-5,1,-29,1,19,1,11,1,26,1,87,1,70,1,53,1,69,1,15,1
550,34,1,31,1,-3,1,-32,1,19,1,14,1,27,1,88,1,71,1,54,1,70,1,17,1
551,37,1,34,1,-3,1,-35,1,20,1,16,1,26,1,87,1,71,1,53,1,69,1,17,1
552,37,1,35,1,-2,1,-36,1,20,1,17,1,26,1,88,1,73,1,53,1,70,1,18,1
553,37,1,38,1,1,1,-37,1,18,1,20,1,25,1,87,1,72,1,51,1,67,1,18,1
554,37,1,43,1,6,1,-40,1,16,1,25,1,22,1,87,1,71,1,50,1,67,1,18,1
555,37,1,41,1,4,1,-39,1,17,1,23,1,22,1,87,1,72,1,50,1,67,1,19,1
556,37,1,41,1,4,1,-39,1,17,1,23,1,21,1,88,1,74,1,51,1,68,1,20,1
557,35,1,42,1,7,1,-38,1,14,1,25,1,23,1,88,1,74,1,52,1,70,1,20,1
558,38,1,43,1,5,1,-40,1,17,1,24,1,21,1,88,1,75,1,51,1,69,1,20,1
559,39,1,41,1,2,1,-40,1,19,1,22,1,19,1,88,1,74,1,50,1,68,1,20,1
560,38,1,40,1,2,1,-39,1,18,1,21,1,19,1,87,1,73,1,50,1,69,1,21,1
561,35,1,40,1,5,1,-37,1,15,1,23,1,17,1,86,1,72,1,50,1,69,1,21,1
562,36,1,43,1,7,1,-39,1,15,1,25,1,17,1,86,1,72,1,51,1,69,1,23,1
563,39,1,45,1,6,1,-42,1,17,1,26,1,15,1,84,1,72,1,52,1,69,1,25,1
564,36,1,42,1,6,1,-39,1,15,1,24,1,13,1,83,1,70,1,51,1,68,1,25,1
565,36,1,43,1,7,1,-39,1,15,1,25,1,14,1,83,1,71,1,53,1,69,1,26,1
566,37,1,46,1,9,1,-41,1,14,1,28,1,13,1,82,1,71,1,53,1,69,1,26,1
567,37,1,51,1,14,1,-44,1,12,1,33,1,13,1,79,1,68,1,53,1,68,1,25,1
568,38,1,52,1,14,1,-45,1,12,1,33,1,13,1,79,1,68,1,53,1,67,1,25,1
569,34,1,49,1,15,1,-41,1,10,1,32,1,12,1,77,1,67,1,54,1,66,1,25,1
570,34,1,47,1,13,1,-40,1,11,1,30,1,12,1,77,1,66,1,54,1,66,1,25,1
571,34,1,48,1,14,1,-41,1,10,1,31,1,10,1,74,1,65,1,54,1,66,1,25,1
572,26,1,47,1,21,1,-36,1,3,1,34,1,11,1,73,1,65,1,54,1,65,1,26,1
573,27,1,45,1,18,1,-36,1,5,1,32,1,8,1,68,1,60,1,50,1,63,1,23,1
574,29,1,44,1,15,1,-36,1,7,1,30,1,5,1,62,1,56,1,48,1,58,1,20,1
575,25,1,44,1,19,1,-34,1,3,1,32,1,6,1,60,1,55,1,47,1,58,1,20,1
576,24,1,42,1,18,1,-33,1,3,1,30,1,6,1,58,1,54,1,46,1,56,1,19,1
577,23,1,40,1,17,1,-31,1,3,1,29,1,4,1,55,1,52,1,45,1,56,1,18,1
578,20,1,39,1,19,1,-29,1,1,1,29,1,4,1,53,1,50,1,44,1,55,1,17,1
579,20,1,42,1,22,1,-31,1,-1,1,32,1,3,1,47,1,47,1,40,1,51,1,15,1
580,19,1,45,1,26,1,-32,1,-3,1,36,1,1,1,43,1,43,1,37,1,48,1,11,1
581,18,1,43,1,25,1,-30,1,-3,1,34,1,0,1,39,1,38,1,35,1,45,1,8,1
582,16,1,39,1,23,1,-27,1,-3,1,31,1,-1,1,36,1,36,1,32,1,43,1,7,1
583,12,1,37,1,25,1,-24,1,-6,1,31,1,0,1,33,1,35,1,31,1,41,1,5,1
584,14,1,38,1,24,1,-26,1,-5,1,31,1,-2,1,28,1,30,1,28,1,38,1,2,1
585,12,1,33,1,21,1,-22,1,-4,1,27,1,-3,1,23,1,26,1,26,1,35,1,0,1
586,10,1,29,1,19,1,-19,1,-4,1,24,1,-3,1,21,1,23,1,26,1,35,1,0,1
587,7,1,25,1,18,1,-16,1,-5,1,22,1,-4,1,18,1,21,1,24,1,33,1,0,1
588,2,1,23,1,21,1,-12,1,-9,1,22,1,-5,1,13,1,15,1,19,1,29,1,-3,1
589,-1,1,24,1,25,1,-11,1,-13,1,24,1,-6,1,10,1,12,1,16,1,26,1,-5,1
590,2,1,25,1,23,1,-13,1,-10,1,24,1,-7,1,5,1,8,1,12,1,24,1,-8,1
591,0,1,21,1,21,1,-10,1,-10,1,21,1,-8,1,2,1,6,1,12,1,23,1,-8,1
592,-2,1,16,1,18,1,-7,1,-10,1,17,1,-7,1,0,1,4,1,10,1,21,1,-10,1
593,-4,1,12,1,16,1,-4,1,-10,1,14,1,-8,1,-4,1,1,1,8,1,19,1,-10,1
594,-8,1,11,1,19,1,-1,1,-13,1,15,1,-11,1,-9,1,-4,1,4,1,15,1,-14,1
595,-11,1,10,1,21,1,0,1,-16,1,15,1,-13,1,-12,1,-7,1,1,1,13,1,-17,1
596,-7,1,7,1,14,1,0,1,-10,1,10,1,-12,1,-15,1,-10,1,0,1,12,1,-18,1
597,-6,1,6,1,12,1,0,1,-9,1,9,1,-14,1,-18,1,-13,1,-3,1,10,1,-20,1
598,-9,1,8,1,17,1,0,1,-13,1,12,1,-14,1,-20,1,-17,1,-5,1,8,1,-21,1
599,-11,1,8,1,19,1,1,1,-15,1,13,1,-13,1,-21,1,-17,1,-6,1,8,1,-20,1
600,-12,1,4,1,16,1,4,1,-14,1,10,1,-13,1,-23,1,-20,1,-8,1,7,1,-20,1
601,-18,1,0,1,18,1,9,1,-18,1,9,1,-14,1,-26,1,-23,1,-9,1,5,1,-21,1
602,-16,1,0,1,16,1,8,1,-16,1,8,1,-16,1,-27,1,-25,1,-10,1,4,1,-23,1
603,-17,1,1,1,18,1,8,1,-17,1,9,1,-17,1,-30,1,-28,1,-13,1,1,1,-24,1
604,-16,1,1,1,17,1,7,1,-16,1,9,1,-17,1,-31,1,-29,1,-14,1,0,1,-25,1
605,-19,1,-2,1,17,1,10,1,-18,1,7,1,-19,1,-36,1,-32,1,-18,1,-3,1,-27,1
606,-17,1,-4,1,13,1,10,1,-15,1,4,1,-20,1,-36,1,-33,1,-18,1,-4,1,-28,1
607,-16,1,-3,1,13,1,9,1,-15,1,5,1,-19,1,-36,1,-33,1,-17,1,-4,1,-28,1
608,-20,1,-3,1,17,1,11,1,-19,1,7,1,-19,1,-38,1,-34,1,-17,1,-4,1,-27,1
609,-20,1,-3,1,17,1,11,1,-19,1,7,1,-23,1,-40,1,-36,1,-18,1,-6,1,-29,1
610,-19,1,-2,1,17,1,10,1,-18,1,7,1,-21,1,-38,1,-35,1,-17,1,-6,1,-28,1
611,-23,1,-7,1,16,1,15,1,-20,1,4,1,-19,1,-36,1,-33,1,-15,1,-4,1,-27,1
612,-21,1,-8,1,13,1,14,1,-17,1,2,1,-21,1,-38,1,-35,1,-15,1,-6,1,-28,1
613,-20,1,-8,1,12,1,14,1,-16,1,2,1,-22,1,-39,1,-36,1,-18,1,-7,1,-28,1
614,-19,1,-6,1,13,1,12,1,-16,1,3,1,-24,1,-41,1,-38,1,-19,1,-8,1,-29,1
615,-20,1,-5,1,15,1,12,1,-18,1,5,1,-23,1,-40,1,-37,1,-20,1,-8,1,-29,1
616,-19,1,-6,1,13,1,12,1,-16,1,3,1,-25,1,-40,1,-38,1,-20,1,-9,1,-29,1
617,-17,1,-3,1,14,1,10,1,-16,1,5,1,-29,1,-42,1,-40,1,-21,1,-11,1,-31,1
618,-15,1,-2,1,13,1,8,1,-14,1,5,1,-31,1,-44,1,-41,1,-21,1,-12,1,-33,1
619,-17,1,-7,1,10,1,12,1,-14,1,1,1,-28,1,-41,1,-38,1,-19,1,-10,1,-31,1
620,-19,1,-7,1,12,1,13,1,-16,1,2,1,-25,1,-40,1,-38,1,-17,1,-9,1,-31,1
621,-21,1,-6,1,15,1,13,1,-18,1,4,1,-26,1,-40,1,-38,1,-19,1,-10,1,-33,1
622,-21,1,-8,1,13,1,14,1,-17,1,2,1,-26,1,-38,1,-37,1,-17,1,-10,1,-32,1
623,-17,1,-5,1,12,1,11,1,-15,1,3,1,-26,1,-37,1,-37,1,-16,1,-9,1,-31,1
624,-16,1,-2,1,14,1,9,1,-15,1,6,1,-25,1,-37,1,-37,1,-16,1,-9,1,-32,1
625,-19,1,-4,1,15,1,11,1,-17,1,5,1,-24,1,-36,1,-36,1,-13,1,-9,1,-31,1
626,-19,1,-7,1,12,1,13,1,-16,1,2,1,-25,1,-36,1,-36,1,-13,1,-8,1,-32,1
627,-18,1,-7,1,11,1,12,1,-15,1,2,1,-26,1,-38,1,-38,1,-15,1,-10,1,-33,1
628,-21,1,-12,1,9,1,16,1,-15,1,-2,1,-26,1,-38,1,-39,1,-15,1,-10,1,-33,1
629,-19,1,-10,1,9,1,14,1,-14,1,-1,1,-24,1,-36,1,-38,1,-13,1,-9,1,-32,1
630,-20,1,-9,1,11,1,14,1,-16,1,1,1,-23,1,-36,1,-37,1,-13,1,-9,1,-32,1
631,-20,1,-6,1,14,1,13,1,-17,1,4,1,-25,1,-37,1,-38,1,-12,1,-8,1,-31,1
632,-14,1,-3,1,11,1,8,1,-13,1,4,1,-26,1,-36,1,-37,1,-11,1,-8,1,-31,1
633,-16,1,-5,1,11,1,10,1,-14,1,3,1,-27,1,-37,1,-39,1,-12,1,-10,1,-33,1
634,-14,1,-3,1,11,1,8,1,-13,1,4,1,-28,1,-37,1,-40,1,-13,1,-12,1,-34,1
635,-12,1,-3,1,9,1,7,1,-11,1,3,1,-25,1,-34,1,-37,1,-10,1,-10,1,-32,1
636,-15,1,-7,1,8,1,11,1,-12,1,0,1,-25,1,-34,1,-37,1,-10,1,-10,1,-31,1
637,-13,1,-4,1,9,1,8,1,-11,1,2,1,-25,1,-34,1,-36,1,-10,1,-9,1,-31,1
638,-16,1,-5,1,11,1,10,1,-14,1,3,1,-26,1,-35,1,-38,1,-12,1,-11,1,-33,1
639,-17,1,-7,1,10,1,12,1,-14,1,1,1,-26,1,-35,1,-38,1,-12,1,-12,1,-33,1
640,-14,1,-12,1,2,1,13,1,-8,1,-5,1,-24,1,-33,1,-36,1,-10,1,-11,1,-31,1
641,-12,1,-13,1,-1,1,12,1,-6,1,-7,1,-23,1,-32,1,-36,1,-10,1,-11,1,-32,1
642,-10,1,-7,1,3,1,8,1,-7,1,-2,1,-24,1,-31,1,-35,1,-9,1,-11,1,-32,1
643,-14,1,-3,1,11,1,8,1,-13,1,4,1,-27,1,-33,1,-36,1,-11,1,-12,1,-32,1
644,-15,1,0,1,15,1,7,1,-15,1,7,1,-29,1,-35,1,-38,1,-15,1,-14,1,-34,1
645,-16,1,-2,1,14,1,9,1,-15,1,6,1,-27,1,-33,1,-36,1,-13,1,-12,1,-33,1
646,-15,1,-9,1,6,1,12,1,-11,1,-2,1,-28,1,-32,1,-34,1,-12,1,-12,1,-32,1
647,-11,1,-8,1,3,1,9,1,-7,1,-3,1,-26,1,-30,1,-33,1,-12,1,-11,1,-31,1
648,-13,1,-7,1,6,1,10,1,-10,1,-1,1,-28,1,-30,1,-34,1,-15,1,-12,1,-32,1
649,-11,1,-7,1,4,1,9,1,-8,1,-2,1,-28,1,-31,1,-35,1,-15,1,-11,1,-32,1
650,-9,1,-6,1,3,1,7,1,-6,1,-2,1,-27,1,-30,1,-33,1,-12,1,-8,1,-29,1
651,-10,1,-5,1,5,1,7,1,-8,1,0,1,-25,1,-29,1,-33,1,-13,1,-8,1,-28,1
652,-12,1,-2,1,10,1,7,1,-11,1,4,1,-25,1,-31,1,-35,1,-13,1,-9,1,-27,1
653,-11,1,0,1,11,1,5,1,-11,1,5,1,-27,1,-32,1,-37,1,-16,1,-11,1,-29,1
654,-8,1,1,1,9,1,3,1,-8,1,5,1,-26,1,-31,1,-37,1,-16,1,-10,1,-28,1
655,-8,1,1,1,9,1,3,1,-8,1,5,1,-25,1,-31,1,-37,1,-15,1,-10,1,-28,1
656,-10,1,-3,1,7,1,6,1,-9,1,2,1,-24,1,-30,1,-35,1,-14,1,-9,1,-27,1
657,-12,1,-8,1,4,1,10,1,-8,1,-2,1,-23,1,-28,1,-34,1,-12,1,-9,1,-27,1
658,-13,1,-7,1,6,1,10,1,-10,1,-1,1,-23,1,-27,1,-33,1,-11,1,-8,1,-26,1
659,-14,1,-5,1,9,1,9,1,-12,1,2,1,-26,1,-29,1,-34,1,-10,1,-9,1,-28,1
660,-11,1,-7,1,4,1,9,1,-8,1,-2,1,-27,1,-30,1,-36,1,-12,1,-11,1,-30,1
661,-7,1,-4,1,3,1,5,1,-5,1,-1,1,-26,1,-29,1,-37,1,-12,1,-10,1,-30,1
662,-11,1,-4,1,7,1,7,1,-9,1,1,1,-26,1,-31,1,-37,1,-11,1,-9,1,-29,1
663,-10,1,-8,1,2,1,9,1,-6,1,-3,1,-25,1,-28,1,-35,1,-11,1,-9,1,-29,1
664,-10,1,-8,1,2,1,9,1,-6,1,-3,1,-25,1,-26,1,-33,1,-9,1,-9,1,-28,1
665,-9,1,-7,1,2,1,8,1,-6,1,-3,1,-26,1,-27,1,-32,1,-9,1,-9,1,-29,1
666,-8,1,-7,1,1,1,7,1,-5,1,-3,1,-26,1,-29,1,-35,1,-11,1,-10,1,-31,1
667,-8,1,-10,1,-2,1,9,1,-3,1,-6,1,-25,1,-27,1,-34,1,-11,1,-11,1,-31,1
668,-11,1,-13,1,-2,1,12,1,-5,1,-8,1,-24,1,-26,1,-33,1,-9,1,-9,1,-30,1
669,-15,1,-13,1,2,1,14,1,-9,1,-6,1,-25,1,-29,1,-34,1,-9,1,-9,1,-30,1
670,-15,1,-8,1,7,1,11,1,-11,1,-1,1,-28,1,-30,1,-35,1,-9,1,-10,1,-32,1
671,-14,1,-2,1,12,1,8,1,-13,1,5,1,-28,1,-30,1,-35,1,-9,1,-11,1,-32,1
672,-13,1,-1,1,12,1,7,1,-13,1,5,1,-31,1,-33,1,-36,1,-12,1,-12,1,-34,1
673,-11,1,-2,1,9,1,6,1,-10,1,3,1,-33,1,-35,1,-38,1,-14,1,-15,1,-36,1
674,-8,1,-3,1,5,1,5,1,-7,1,1,1,-34,1,-36,1,-39,1,-14,1,-15,1,-36,1
675,-7,1,-2,1,5,1,4,1,-6,1,1,1,-33,1,-33,1,-37,1,-11,1,-12,1,-34,1
676,-5,1,-1,1,4,1,3,1,-5,1,1,1,-33,1,-31,1,-35,1,-11,1,-11,1,-33,1
677,-8,1,-6,1,2,1,7,1,-5,1,-2,1,-34,1,-33,1,-37,1,-13,1,-13,1,-34,1
678,-7,1,-7,1,0,1,7,1,-4,1,-4,1,-34,1,-33,1,-37,1,-12,1,-12,1,-34,1
679,-9,1,-8,1,1,1,8,1,-5,1,-4,1,-34,1,-33,1,-37,1,-13,1,-14,1,-34,1
680,-11,1,-7,1,4,1,9,1,-8,1,-2,1,-34,1,-33,1,-37,1,-13,1,-14,1,-32,1
681,-12,1,-9,1,3,1,10,1,-8,1,-3,1,-32,1,-33,1,-38,1,-13,1,-13,1,-30,1
682,-11,1,-12,1,-1,1,11,1,-5,1,-7,1,-31,1,-32,1,-36,1,-11,1,-13,1,-28,1
683,-12,1,-11,1,1,1,11,1,-7,1,-5,1,-33,1,-34,1,-37,1,-12,1,-13,1,-29,1
684,-10,1,-9,1,1,1,9,1,-6,1,-4,1,-35,1,-34,1,-38,1,-13,1,-14,1,-30,1
685,-7,1,-7,1,0,1,7,1,-4,1,-4,1,-37,1,-35,1,-38,1,-14,1,-15,1,-29,1
686,-6,1,-7,1,-1,1,6,1,-3,1,-4,1,-37,1,-35,1,-38,1,-15,1,-16,1,-30,1
687,-9,1,-7,1,2,1,8,1,-6,1,-3,1,-37,1,-35,1,-38,1,-14,1,-15,1,-29,1
688,-8,1,-6,1,2,1,7,1,-5,1,-2,1,-37,1,-35,1,-39,1,-15,1,-15,1,-28,1
689,-6,1,-8,1,-2,1,7,1,-2,1,-5,1,-38,1,-38,1,-41,1,-17,1,-18,1,-28,1
690,-7,1,-11,1,-4,1,9,1,-2,1,-8,1,-36,1,-38,1,-41,1,-17,1,-18,1,-28,1
691,-8,1,-10,1,-2,1,9,1,-3,1,-6,1,-35,1,-38,1,-41,1,-16,1,-17,1,-26,1
692,-8,1,-10,1,-2,1,9,1,-3,1,-6,1,-34,1,-37,1,-41,1,-15,1,-17,1,-26,1
693,-8,1,-9,1,-1,1,8,1,-4,1,-5,1,-33,1,-35,1,-40,1,-14,1,-16,1,-25,1
694,-7,1,-10,1,-3,1,8,1,-2,1,-7,1,-34,1,-36,1,-41,1,-15,1,-17,1,-25,1
695,-7,1,-10,1,-3,1,8,1,-2,1,-7,1,-35,1,-36,1,-41,1,-15,1,-16,1,-25,1
696,-7,1,-9,1,-2,1,8,1,-3,1,-6,1,-37,1,-35,1,-40,1,-15,1,-16,1,-25,1
697,-11,1,-11,1,0,1,11,1,-6,1,-6,1,-38,1,-38,1,-42,1,-17,1,-17,1,-25,1
698,-12,1,-9,1,3,1,10,1,-8,1,-3,1,-37,1,-37,1,-43,1,-17,1,-17,1,-25,1
699,-12,1,-8,1,4,1,10,1,-8,1,-2,1,-37,1,-36,1,-43,1,-18,1,-18,1,-27,1
700,-9,1,-9,1,0,1,9,1,-5,1,-5,1,-39,1,-39,1,-44,1,-20,1,-19,1,-30,1
701,-10,1,-10,1,0,1,10,1,-5,1,-5,1,-36,1,-37,1,-41,1,-16,1,-16,1,-27,1
702,-12,1,-9,1,3,1,10,1,-8,1,-3,1,-36,1,-36,1,-41,1,-18,1,-16,1,-26,1
703,-9,1,-9,1,0,1,9,1,-5,1,-5,1,-39,1,-39,1,-45,1,-21,1,-20,1,-31,1
704,-10,1,-8,1,2,1,9,1,-6,1,-3,1,-39,1,-41,1,-46,1,-23,1,-21,1,-31,1
705,-11,1,-9,1,2,1,10,1,-7,1,-4,1,-40,1,-39,1,-45,1,-23,1,-20,1,-31,1
706,-10,1,-10,1,0,1,10,1,-5,1,-5,1,-39,1,-37,1,-43,1,-21,1,-18,1,-28,1
707,-11,1,-9,1,2,1,10,1,-7,1,-4,1,-39,1,-39,1,-42,1,-21,1,-17,1,-28,1
708,-11,1,-7,1,4,1,9,1,-8,1,-2,1,-40,1,-41,1,-44,1,-24,1,-19,1,-30,1
709,-9,1,-9,1,0,1,9,1,-5,1,-5,1,-38,1,-41,1,-45,1,-25,1,-20,1,-31,1
710,-8,1,-13,1,-5,1,10,1,-2,1,-9,1,-36,1,-39,1,-44,1,-25,1,-19,1,-29,1
711,-9,1,-13,1,-4,1,11,1,-3,1,-9,1,-38,1,-38,1,-44,1,-25,1,-19,1,-29,1
712,-10,1,-14,1,-4,1,12,1,-3,1,-9,1,-36,1,-36,1,-42,1,-22,1,-17,1,-28,1
713,-9,1,-11,1,-2,1,10,1,-4,1,-7,1,-34,1,-35,1,-41,1,-21,1,-17,1,-27,1
714,-9,1,-7,1,2,1,8,1,-6,1,-3,1,-35,1,-36,1,-44,1,-22,1,-18,1,-27,1
715,-10,1,-7,1,3,1,8,1,-7,1,-2,1,-36,1,-36,1,-45,1,-22,1,-18,1,-26,1
716,-12,1,-8,1,4,1,10,1,-8,1,-2,1,-35,1,-36,1,-44,1,-20,1,-17,1,-25,1
717,-11,1,-10,1,1,1,10,1,-6,1,-5,1,-33,1,-34,1,-42,1,-18,1,-15,1,-22,1
718,-5,1,-9,1,-4,1,7,1,-1,1,-7,1,-33,1,-34,1,-42,1,-16,1,-14,1,-21,1
719,-3,1,-6,1,-3,1,4,1,0,1,-5,1,-35,1,-36,1,-43,1,-17,1,-15,1,-23,1
720,-6,1,-5,1,1,1,5,1,-4,1,-2,1,-35,1,-36,1,-44,1,-17,1,-14,1,-22,1
721,-8,1,1,1,9,1,3,1,-8,1,5,1,-34,1,-34,1,-41,1,-17,1,-13,1,-21,1
722,-11,1,-1,1,10,1,6,1,-11,1,4,1,-32,1,-32,1,-39,1,-15,1,-13,1,-19,1
723,-11,1,-4,1,7,1,7,1,-9,1,1,1,-30,1,-32,1,-40,1,-16,1,-14,1,-21,1
724,-9,1,-1,1,8,1,5,1,-9,1,3,1,-32,1,-34,1,-43,1,-18,1,-15,1,-23,1
725,-7,1,2,1,9,1,2,1,-8,1,5,1,-33,1,-35,1,-44,1,-20,1,-17,1,-24,1
726,-10,1,5,1,15,1,2,1,-12,1,10,1,-35,1,-36,1,-44,1,-20,1,-19,1,-24,1
727,-10,1,2,1,12,1,4,1,-11,1,7,1,-36,1,-38,1,-46,1,-21,1,-19,1,-24,1
728,-4,1,2,1,6,1,1,1,-5,1,4,1,-36,1,-37,1,-44,1,-17,1,-17,1,-20,1
729,-2,1,3,1,5,1,0,1,-3,1,4,1,-36,1,-37,1,-42,1,-14,1,-14,1,-17,1
730,-3,1,4,1,7,1,0,1,-5,1,5,1,-35,1,-35,1,-40,1,-12,1,-12,1,-15,1
731,-6,1,4,1,10,1,1,1,-8,1,7,1,-36,1,-33,1,-41,1,-13,1,-11,1,-14,1
732,-2,1,6,1,8,1,-2,1,-5,1,7,1,-37,1,-33,1,-40,1,-11,1,-11,1,-14,1
733,1,1,8,1,7,1,-4,1,-3,1,8,1,-39,1,-32,1,-39,1,-11,1,-11,1,-14,1
734,2,1,7,1,5,1,-4,1,-1,1,6,1,-38,1,-33,1,-39,1,-12,1,-11,1,-14,1
735,3,1,5,1,2,1,-4,1,1,1,4,1,-39,1,-34,1,-40,1,-13,1,-12,1,-15,1
736,4,1,6,1,2,1,-5,1,1,1,4,1,-38,1,-35,1,-41,1,-15,1,-13,1,-15,1
737,5,1,8,1,3,1,-6,1,1,1,6,1,-37,1,-35,1,-41,1,-14,1,-13,1,-15,1
738,3,1,4,1,1,1,-3,1,1,1,3,1,-35,1,-34,1,-41,1,-14,1,-13,1,-16,1
739,3,1,-5,1,-8,1,1,1,5,1,-6,1,-33,1,-32,1,-39,1,-12,1,-11,1,-14,1
740,-1,1,-5,1,-4,1,3,1,1,1,-5,1,-29,1,-30,1,-37,1,-11,1,-10,1,-14,1
741,-5,1,-6,1,-1,1,5,1,-2,1,-4,1,-29,1,-30,1,-37,1,-11,1,-10,1,-14,1
742,3,1,-3,1,-6,1,0,1,4,1,-4,1,-30,1,-31,1,-38,1,-11,1,-12,1,-16,1
743,5,1,-3,1,-8,1,-1,1,6,1,-5,1,-32,1,-31,1,-40,1,-13,1,-14,1,-18,1
744,4,1,-5,1,-9,1,0,1,6,1,-7,1,-31,1,-32,1,-40,1,-13,1,-13,1,-19,1
745,2,1,-6,1,-8,1,2,1,5,1,-7,1,-31,1,-32,1,-40,1,-12,1,-13,1,-19,1
746,2,1,-6,1,-8,1,2,1,5,1,-7,1,-30,1,-33,1,-40,1,-11,1,-12,1,-17,1
747,0,1,-5,1,-5,1,2,1,2,1,-5,1,-28,1,-32,1,-40,1,-10,1,-12,1,-15,1
748,1,1,-5,1,-6,1,2,1,3,1,-5,1,-30,1,-35,1,-44,1,-13,1,-14,1,-17,1
749,0,1,-2,1,-2,1,1,1,1,1,-2,1,-31,1,-37,1,-45,1,-14,1,-16,1,-18,1
750,0,1,0,1,0,1,0,1,0,1,0,1,-29,1,-37,1,-45,1,-13,1,-14,1,-17,1
751,0,1,-4,1,-4,1,2,1,2,1,-4,1,-26,1,-34,1,-43,1,-12,1,-12,1,-15,1
752,-1,1,-6,1,-5,1,3,1,2,1,-6,1,-27,1,-34,1,-43,1,-10,1,-12,1,-15,1
753,0,1,-5,1,-5,1,2,1,2,1,-5,1,-26,1,-35,1,-44,1,-10,1,-12,1,-16,1
754,-2,1,-6,1,-4,1,4,1,1,1,-5,1,-22,1,-35,1,-46,1,-12,1,-14,1,-19,1
755,-4,1,-7,1,-3,1,5,1,-1,1,-5,1,-19,1,-35,1,-45,1,-13,1,-14,1,-20,1
756,-10,1,-10,1,0,1,10,1,-5,1,-5,1,-17,1,-33,1,-44,1,-12,1,-14,1,-19,1
757,-11,1,-12,1,-1,1,11,1,-5,1,-7,1,-19,1,-36,1,-47,1,-15,1,-16,1,-22,1
758,-9,1,-10,1,-1,1,9,1,-4,1,-6,1,-16,1,-38,1,-48,1,-18,1,-18,1,-24,1
759,-13,1,-12,1,1,1,12,1,-7,1,-6,1,-14,1,-38,1,-49,1,-19,1,-20,1,-25,1
760,-19,1,-20,1,-1,1,19,1,-9,1,-11,1,-11,1,-38,1,-49,1,-20,1,-20,1,-25,1
761,-17,1,-22,1,-5,1,19,1,-6,1,-14,1,-9,1,-39,1,-51,1,-22,1,-22,1,-26,1
762,-13,1,-24,1,-11,1,18,1,-1,1,-18,1,-7,1,-41,1,-52,1,-24,1,-24,1,-27,1
763,-14,1,-27,1,-13,1,20,1,-1,1,-20,1,-6,1,-41,1,-53,1,-25,1,-26,1,-29,1
764,-14,1,-22,1,-8,1,18,1,-3,1,-15,1,-6,1,-42,1,-55,1,-26,1,-27,1,-30,1
765,-14,1,-20,1,-6,1,17,1,-4,1,-13,1,-5,1,-43,1,-57,1,-29,1,-28,1,-33,1
766,-17,1,-23,1,-6,1,20,1,-6,1,-15,1,0,1,-43,1,-55,1,-27,1,-26,1,-30,1
767,-22,1,-27,1,-5,1,24,1,-9,1,-16,1,2,1,-42,1,-55,1,-26,1,-26,1,-29,1
768,-21,1,-28,1,-7,1,24,1,-7,1,-18,1,1,1,-42,1,-57,1,-29,1,-29,1,-32,1
769,-17,1,-23,1,-6,1,20,1,-6,1,-15,1,2,1,-42,1,-56,1,-27,1,-28,1,-32,1
770,-21,1,-25,1,-4,1,23,1,-9,1,-15,1,3,1,-43,1,-56,1,-27,1,-27,1,-33,1
771,-22,1,-24,1,-2,1,23,1,-10,1,-13,1,4,1,-43,1,-56,1,-26,1,-27,1,-33,1
772,-18,1,-23,1,-5,1,20,1,-7,1,-14,1,4,1,-43,1,-57,1,-25,1,-26,1,-33,1
773,-17,1,-26,1,-9,1,21,1,-4,1,-18,1,6,1,-43,1,-56,1,-25,1,-26,1,-32,1
774,-20,1,-29,1,-9,1,24,1,-6,1,-19,1,8,1,-43,1,-55,1,-25,1,-25,1,-32,1
775,-18,1,-23,1,-5,1,20,1,-7,1,-14,1,8,1,-43,1,-56,1,-27,1,-27,1,-33,1
776,-21,1,-25,1,-4,1,23,1,-9,1,-15,1,8,1,-44,1,-58,1,-28,1,-28,1,-34,1
777,-23,1,-30,1,-7,1,26,1,-8,1,-19,1,10,1,-42,1,-58,1,-26,1,-26,1,-31,1
778,-26,1,-34,1,-8,1,30,1,-9,1,-21,1,12,1,-42,1,-57,1,-24,1,-24,1,-30,1
779,-27,1,-35,1,-8,1,31,1,-10,1,-22,1,11,1,-42,1,-57,1,-24,1,-26,1,-32,1
780,-24,1,-33,1,-9,1,28,1,-8,1,-21,1,12,1,-42,1,-57,1,-23,1,-26,1,-33,1
781,-21,1,-30,1,-9,1,25,1,-6,1,-20,1,12,1,-43,1,-58,1,-25,1,-27,1,-36,1
782,-21,1,-29,1,-8,1,25,1,-7,1,-19,1,12,1,-43,1,-57,1,-25,1,-28,1,-37,1
783,-21,1,-30,1,-9,1,25,1,-6,1,-20,1,12,1,-42,1,-57,1,-24,1,-28,1,-36,1
784,-22,1,-31,1,-9,1,26,1,-7,1,-20,1,14,1,-42,1,-57,1,-25,1,-28,1,-36,1
785,-23,1,-29,1,-6,1,26,1,-9,1,-18,1,13,1,-43,1,-57,1,-24,1,-28,1,-35,1
786,-24,1,-29,1,-5,1,26,1,-10,1,-17,1,12,1,-42,1,-57,1,-24,1,-27,1,-35,1
787,-24,1,-30,1,-6,1,27,1,-9,1,-18,1,12,1,-42,1,-56,1,-26,1,-26,1,-36,1
788,-22,1,-29,1,-7,1,25,1,-8,1,-18,1,13,1,-41,1,-56,1,-25,1,-26,1,-37,1
789,-26,1,-30,1,-4,1,28,1,-11,1,-17,1,13,1,-41,1,-57,1,-26,1,-28,1,-37,1
790,-27,1,-30,1,-3,1,28,1,-12,1,-17,1,15,1,-39,1,-57,1,-26,1,-28,1,-37,1
791,-26,1,-27,1,-1,1,26,1,-13,1,-14,1,21,1,-36,1,-54,1,-26,1,-29,1,-36,1
792,-26,1,-26,1,0,1,26,1,-13,1,-13,1,28,1,-29,1,-51,1,-25,1,-28,1,-35,1
793,-25,1,-21,1,4,1,23,1,-15,1,-9,1,35,1,-22,1,-47,1,-21,1,-26,1,-34,1
794,-21,1,-18,1,3,1,19,1,-12,1,-8,1,36,1,-17,1,-41,1,-19,1,-23,1,-32,1
795,-16,1,-23,1,-7,1,19,1,-5,1,-15,1,39,1,-6,1,-34,1,-16,1,-21,1,-31,1
796,-13,1,-31,1,-18,1,22,1,2,1,-25,1,46,1,9,1,-24,1,-10,1,-18,1,-30,1
797,-6,1,-27,1,-21,1,16,1,7,1,-24,1,55,1,30,1,-9,1,0,1,-13,1,-27,1
798,1,1,-20,1,-21,1,9,1,11,1,-20,1,66,1,55,1,11,1,15,1,0,1,-18,1
799,8,1,-8,1,-16,1,0,1,12,1,-12,1,74,1,86,1,40,1,36,1,16,1,-5,1
800,17,1,3,1,-14,1,-10,1,16,1,-5,1,77,1,116,1,70,1,58,1,35,1,8,1
801,37,1,20,1,-17,1,-28,1,27,1,2,1,65,1,139,1,101,1,84,1,56,1,24,1
802,54,1,35,1,-19,1,-44,1,37,1,8,1,45,1,159,1,135,1,116,1,82,1,44,1
803,67,1,56,1,-11,1,-61,1,39,1,23,1,21,1,171,1,167,1,145,1,107,1,65,1
804,83,1,83,1,0,1,-83,1,42,1,42,1,-17,1,165,1,188,1,171,1,135,1,92,1
805,98,1,107,1,9,1,-102,1,45,1,58,1,-64,1,137,1,198,1,191,1,158,1,116,1
806,107,1,120,1,13,1,-113,1,47,1,67,1,-100,1,112,1,201,1,201,1,168,1,128,1
807,100,1,122,1,22,1,-111,1,39,1,72,1,-117,1,95,1,200,1,202,1,169,1,129,1
808,82,1,100,1,18,1,-91,1,32,1,59,1,-118,1,77,1,184,1,180,1,146,1,109,1
809,70,1,78,1,8,1,-74,1,31,1,43,1,-114,1,53,1,152,1,146,1,116,1,85,1
810,51,1,64,1,13,1,-57,1,19,1,39,1,-113,1,10,1,99,1,102,1,83,1,63,1
811,30,1,51,1,21,1,-40,1,5,1,36,1,-115,1,-37,1,42,1,59,1,52,1,42,1
812,10,1,35,1,25,1,-22,1,-7,1,30,1,-116,1,-88,1,-16,1,17,1,21,1,22,1
813,-9,1,17,1,26,1,-4,1,-17,1,21,1,-118,1,-143,1,-73,1,-21,1,-6,1,4,1
814,-29,1,6,1,35,1,11,1,-32,1,20,1,-118,1,-199,1,-128,1,-56,1,-29,1,-10,1
815,-41,1,-11,1,30,1,26,1,-36,1,9,1,-124,1,-231,1,-165,1,-83,1,-49,1,-25,1
816,-52,1,-28,1,24,1,40,1,-38,1,-2,1,-126,1,-242,1,-183,1,-97,1,-62,1,-35,1
817,-56,1,-35,1,21,1,45,1,-39,1,-7,1,-122,1,-234,1,-183,1,-100,1,-68,1,-42,1
818,-59,1,-31,1,28,1,45,1,-44,1,-2,1,-116,1,-220,1,-177,1,-100,1,-71,1,-48,1
819,-60,1,-31,1,29,1,45,1,-45,1,-1,1,-109,1,-206,1,-170,1,-98,1,-70,1,-49,1
820,-63,1,-39,1,24,1,51,1,-44,1,-8,1,-102,1,-194,1,-163,1,-97,1,-72,1,-53,1
821,-63,1,-45,1,18,1,54,1,-41,1,-14,1,-95,1,-181,1,-158,1,-99,1,-78,1,-60,1
822,-62,1,-49,1,13,1,55,1,-38,1,-18,1,-87,1,-163,1,-148,1,-97,1,-78,1,-63,1
823,-59,1,-44,1,15,1,51,1,-37,1,-15,1,-77,1,-142,1,-133,1,-87,1,-70,1,-58,1
824,-55,1,-39,1,16,1,47,1,-36,1,-12,1,-67,1,-124,1,-119,1,-77,1,-61,1,-51,1
825,-56,1,-37,1,19,1,46,1,-38,1,-9,1,-53,1,-106,1,-104,1,-64,1,-52,1,-43,1
826,-44,1,-31,1,13,1,37,1,-29,1,-9,1,-42,1,-91,1,-93,1,-56,1,-46,1,-39,1
827,-35,1,-22,1,13,1,28,1,-24,1,-5,1,-30,1,-75,1,-81,1,-48,1,-39,1,-35,1
828,-30,1,-14,1,16,1,22,1,-23,1,1,1,-17,1,-58,1,-68,1,-38,1,-30,1,-28,1
829,-26,1,-16,1,10,1,21,1,-18,1,-3,1,-9,1,-46,1,-59,1,-31,1,-25,1,-25,1
830,-23,1,-14,1,9,1,18,1,-16,1,-3,1,-1,1,-37,1,-51,1,-25,1,-22,1,-22,1
831,-20,1,-12,1,8,1,16,1,-14,1,-2,1,6,1,-29,1,-46,1,-21,1,-19,1,-20,1
832,-20,1,-15,1,5,1,17,1,-13,1,-5,1,13,1,-20,1,-40,1,-18,1,-17,1,-18,1
833,-20,1,-16,1,4,1,18,1,-12,1,-6,1,16,1,-14,1,-37,1,-18,1,-17,1,-21,1
834,-19,1,-18,1,1,1,18,1,-10,1,-9,1,18,1,-7,1,-37,1,-19,1,-18,1,-21,1
835,-16,1,-18,1,-2,1,17,1,-7,1,-10,1,18,1,-2,1,-37,1,-20,1,-18,1,-21,1
836,-15,1,-17,1,-2,1,16,1,-7,1,-10,1,19,1,2,1,-33,1,-16,1,-15,1,-19,1
837,-20,1,-18,1,2,1,19,1,-11,1,-8,1,20,1,3,1,-32,1,-16,1,-16,1,-21,1
838,-18,1,-16,1,2,1,17,1,-10,1,-7,1,19,1,3,1,-33,1,-17,1,-17,1,-22,1
839,-17,1,-17,1,0,1,17,1,-9,1,-9,1,21,1,7,1,-23,1,-14,1,-14,1,-20,1
840,-15,1,-15,1,0,1,15,1,-8,1,-8,1,23,1,9,1,8,1,-12,1,-12,1,-18,1
841,-15,1,-15,1,0,1,15,1,-8,1,-8,1,23,1,9,1,23,1,-13,1,-12,1,-19,1
842,-14,1,-13,1,1,1,13,1,-8,1,-6,1,21,1,9,1,27,1,-14,1,-13,1,-18,1
843,-15,1,-12,1,3,1,13,1,-9,1,-5,1,22,1,11,1,28,1,-15,1,-11,1,-18,1
844,-14,1,-13,1,1,1,13,1,-8,1,-6,1,22,1,13,1,29,1,-14,1,-9,1,-18,1
845,-16,1,-15,1,1,1,15,1,-9,1,-7,1,22,1,14,1,33,1,-13,1,-9,1,-17,1
846,-16,1,-15,1,1,1,15,1,-9,1,-7,1,24,1,15,1,37,1,-13,1,-9,1,-17,1
847,-15,1,-14,1,1,1,14,1,-8,1,-7,1,26,1,17,1,39,1,-13,1,-9,1,-15,1
848,-12,1,-11,1,1,1,11,1,-7,1,-5,1,26,1,17,1,39,1,-12,1,-9,1,-15,1
849,-14,1,-12,1,2,1,13,1,-8,1,-5,1,25,1,17,1,39,1,-14,1,-10,1,-16,1
850,-13,1,-11,1,2,1,12,1,-8,1,-5,1,25,1,19,1,37,1,-13,1,-10,1,-15,1
851,-13,1,-12,1,1,1,12,1,-7,1,-6,1,25,1,20,1,37,1,-14,1,-10,1,-15,1
852,-14,1,-9,1,5,1,11,1,-10,1,-2,1,24,1,19,1,36,1,-14,1,-10,1,-15,1
853,-13,1,-8,1,5,1,10,1,-9,1,-2,1,25,1,19,1,35,1,-14,1,-10,1,-15,1
854,-9,1,-13,1,-4,1,11,1,-3,1,-9,1,27,1,22,1,37,1,-11,1,-8,1,-12,1
855,-12,1,-15,1,-3,1,13,1,-5,1,-9,1,27,1,22,1,37,1,-9,1,-8,1,-12,1
856,-12,1,-16,1,-4,1,14,1,-4,1,-10,1,27,1,24,1,37,1,-8,1,-8,1,-12,1
857,-13,1,-13,1,0,1,13,1,-7,1,-7,1,25,1,24,1,36,1,-8,1,-8,1,-11,1
858,-15,1,-14,1,1,1,14,1,-8,1,-7,1,25,1,24,1,36,1,-8,1,-8,1,-9,1
859,-12,1,-13,1,-1,1,12,1,-6,1,-7,1,27,1,26,1,36,1,-7,1,-7,1,-8,1
860,-9,1,-12,1,-3,1,10,1,-3,1,-8,1,31,1,30,1,39,1,-3,1,-5,1,-5,1
861,-10,1,-14,1,-4,1,12,1,-3,1,-9,1,31,1,32,1,38,1,-2,1,-6,1,-5,1
862,-9,1,-13,1,-4,1,11,1,-3,1,-9,1,31,1,33,1,38,1,-1,1,-5,1,-5,1
863,-9,1,-11,1,-2,1,10,1,-4,1,-7,1,31,1,34,1,37,1,1,1,-5,1,-4,1
864,-5,1,-9,1,-4,1,7,1,-1,1,-7,1,30,1,33,1,35,1,0,1,-6,1,-5,1
865,-7,1,-7,1,0,1,7,1,-4,1,-4,1,31,1,34,1,36,1,1,1,-5,1,-6,1
866,-8,1,-8,1,0,1,8,1,-4,1,-4,1,32,1,35,1,38,1,3,1,-4,1,-4,1
867,-3,1,-4,1,-1,1,3,1,-1,1,-3,1,30,1,33,1,35,1,0,1,-6,1,-7,1
868,-4,1,-3,1,1,1,3,1,-3,1,-1,1,31,1,35,1,36,1,0,1,-5,1,-6,1
869,-7,1,0,1,7,1,3,1,-7,1,3,1,31,1,38,1,39,1,1,1,-4,1,-4,1
870,-4,1,0,1,4,1,2,1,-4,1,2,1,31,1,40,1,40,1,2,1,-3,1,-4,1
871,-1,1,-7,1,-6,1,4,1,2,1,-7,1,32,1,42,1,43,1,2,1,-1,1,-2,1
872,-5,1,-11,1,-6,1,8,1,0,1,-9,1,35,1,45,1,47,1,4,1,1,1,0,1
873,-6,1,-11,1,-5,1,8,1,-1,1,-8,1,35,1,45,1,48,1,3,1,3,1,2,1
874,-7,1,-6,1,1,1,6,1,-4,1,-3,1,32,1,45,1,48,1,1,1,1,1,1,1
875,-1,1,-4,1,-3,1,2,1,1,1,-4,1,33,1,46,1,49,1,1,1,2,1,1,1
876,1,1,-4,1,-5,1,1,1,3,1,-4,1,35,1,50,1,53,1,4,1,5,1,4,1
877,2,1,-4,1,-6,1,1,1,4,1,-5,1,35,1,52,1,55,1,5,1,7,1,5,1
878,-1,1,-6,1,-5,1,3,1,2,1,-6,1,36,1,54,1,56,1,7,1,8,1,8,1
879,-2,1,-6,1,-4,1,4,1,1,1,-5,1,38,1,58,1,59,1,9,1,11,1,11,1
880,3,1,0,1,-3,1,-1,1,3,1,-1,1,38,1,58,1,61,1,9,1,11,1,11,1
881,3,1,-1,1,-4,1,-1,1,3,1,-2,1,39,1,60,1,62,1,10,1,12,1,11,1
882,2,1,-1,1,-3,1,0,1,2,1,-2,1,38,1,61,1,64,1,12,1,14,1,12,1
883,5,1,0,1,-5,1,-2,1,5,1,-2,1,38,1,62,1,66,1,13,1,15,1,13,1
884,5,1,0,1,-5,1,-2,1,5,1,-2,1,37,1,63,1,66,1,14,1,16,1,13,1
885,4,1,1,1,-3,1,-2,1,4,1,-1,1,38,1,65,1,68,1,16,1,17,1,14,1
886,7,1,3,1,-4,1,-5,1,6,1,0,1,39,1,67,1,70,1,21,1,19,1,16,1
887,8,1,5,1,-3,1,-6,1,6,1,1,1,38,1,70,1,72,1,23,1,20,1,16,1
888,8,1,6,1,-2,1,-7,1,5,1,2,1,38,1,71,1,74,1,25,1,20,1,16,1
889,8,1,5,1,-3,1,-6,1,6,1,1,1,41,1,74,1,77,1,28,1,23,1,19,1
890,9,1,5,1,-4,1,-7,1,7,1,1,1,41,1,77,1,79,1,30,1,23,1,19,1
891,11,1,6,1,-5,1,-8,1,8,1,1,1,42,1,79,1,80,1,31,1,24,1,19,1
892,13,1,8,1,-5,1,-10,1,9,1,2,1,40,1,81,1,81,1,33,1,25,1,21,1
893,15,1,10,1,-5,1,-12,1,10,1,3,1,41,1,83,1,83,1,36,1,26,1,21,1
894,15,1,12,1,-3,1,-13,1,9,1,5,1,42,1,85,1,85,1,40,1,28,1,21,1
895,14,1,15,1,1,1,-14,1,7,1,8,1,41,1,87,1,86,1,40,1,28,1,21,1
896,14,1,17,1,3,1,-15,1,6,1,10,1,41,1,89,1,88,1,43,1,30,1,24,1
897,16,1,17,1,1,1,-16,1,8,1,9,1,42,1,91,1,91,1,45,1,32,1,26,1
898,17,1,17,1,0,1,-17,1,9,1,9,1,42,1,94,1,93,1,48,1,34,1,27,1
899,21,1,20,1,-1,1,-20,1,11,1,10,1,43,1,96,1,95,1,51,1,36,1,29,1
900,19,1,18,1,-1,1,-18,1,10,1,9,1,43,1,98,1,97,1,53,1,39,1,31,1
901,20,1,19,1,-1,1,-19,1,11,1,9,1,42,1,98,1,98,1,54,1,40,1,31,1
902,19,1,21,1,2,1,-20,1,9,1,12,1,42,1,100,1,100,1,55,1,41,1,32,1
903,20,1,24,1,4,1,-22,1,8,1,14,1,43,1,102,1,102,1,56,1,41,1,33,1
904,23,1,26,1,3,1,-24,1,10,1,15,1,42,1,103,1,101,1,55,1,42,1,33,1
905,22,1,28,1,6,1,-25,1,8,1,17,1,40,1,104,1,102,1,56,1,43,1,34,1
906,23,1,30,1,7,1,-26,1,8,1,19,1,39,1,106,1,105,1,58,1,45,1,36,1
907,26,1,35,1,9,1,-30,1,9,1,22,1,37,1,106,1,104,1,57,1,45,1,38,1
908,27,1,37,1,10,1,-32,1,9,1,24,1,35,1,105,1,103,1,57,1,46,1,39,1
909,25,1,32,1,7,1,-28,1,9,1,20,1,36,1,107,1,105,1,58,1,48,1,41,1
910,22,1,32,1,10,1,-27,1,6,1,21,1,33,1,106,1,104,1,57,1,46,1,40,1
911,23,1,35,1,12,1,-29,1,6,1,24,1,33,1,106,1,104,1,56,1,47,1,41,1
912,24,1,38,1,14,1,-31,1,5,1,26,1,35,1,106,1,105,1,60,1,49,1,44,1
913,24,1,33,1,9,1,-28,1,8,1,21,1,35,1,106,1,104,1,60,1,49,1,44,1
914,27,1,26,1,-1,1,-26,1,14,1,13,1,35,1,106,1,105,1,60,1,50,1,46,1
915,26,1,28,1,2,1,-27,1,12,1,15,1,35,1,107,1,106,1,63,1,53,1,48,1
916,25,1,28,1,3,1,-26,1,11,1,16,1,34,1,105,1,106,1,64,1,54,1,50,1
917,23,1,28,1,5,1,-25,1,9,1,17,1,32,1,103,1,104,1,62,1,52,1,49,1
918,21,1,30,1,9,1,-25,1,6,1,20,1,31,1,101,1,103,1,62,1,52,1,48,1
919,20,1,29,1,9,1,-24,1,6,1,19,1,30,1,98,1,101,1,62,1,51,1,48,1
920,20,1,30,1,10,1,-25,1,5,1,20,1,31,1,100,1,102,1,63,1,51,1,50,1
921,19,1,30,1,11,1,-24,1,4,1,21,1,30,1,99,1,103,1,63,1,53,1,51,1
922,19,1,27,1,8,1,-23,1,6,1,18,1,28,1,97,1,100,1,63,1,53,1,51,1
923,21,1,27,1,6,1,-24,1,8,1,17,1,28,1,95,1,100,1,63,1,53,1,50,1
924,22,1,29,1,7,1,-25,1,8,1,18,1,25,1,93,1,98,1,62,1,53,1,51,1
925,26,1,34,1,8,1,-30,1,9,1,21,1,25,1,89,1,95,1,62,1,51,1,49,1
926,24,1,35,1,11,1,-29,1,7,1,23,1,25,1,87,1,94,1,62,1,52,1,50,1
927,21,1,36,1,15,1,-28,1,3,1,26,1,25,1,84,1,92,1,61,1,51,1,49,1
928,19,1,36,1,17,1,-27,1,1,1,27,1,23,1,80,1,89,1,60,1,50,1,49,1
929,19,1,31,1,12,1,-25,1,4,1,22,1,22,1,79,1,88,1,60,1,50,1,50,1
930,17,1,28,1,11,1,-22,1,3,1,20,1,20,1,74,1,83,1,58,1,47,1,48,1
931,13,1,29,1,16,1,-21,1,-1,1,23,1,19,1,68,1,78,1,53,1,44,1,44,1
932,8,1,26,1,18,1,-17,1,-5,1,22,1,19,1,66,1,76,1,52,1,43,1,43,1
933,10,1,21,1,11,1,-15,1,0,1,16,1,18,1,62,1,72,1,49,1,42,1,41,1
934,10,1,20,1,10,1,-15,1,0,1,15,1,19,1,61,1,71,1,49,1,41,1,40,1
935,5,1,21,1,16,1,-13,1,-5,1,19,1,18,1,57,1,68,1,47,1,40,1,40,1
936,2,1,19,1,17,1,-10,1,-7,1,18,1,16,1,52,1,64,1,43,1,37,1,37,1
937,3,1,17,1,14,1,-10,1,-5,1,16,1,14,1,47,1,58,1,38,1,33,1,34,1
938,4,1,16,1,12,1,-10,1,-4,1,14,1,13,1,43,1,55,1,35,1,31,1,32,1
939,3,1,14,1,11,1,-8,1,-4,1,13,1,11,1,40,1,51,1,33,1,29,1,31,1
940,2,1,12,1,10,1,-7,1,-4,1,11,1,10,1,36,1,47,1,29,1,26,1,29,1
941,0,1,6,1,6,1,-3,1,-3,1,6,1,11,1,33,1,43,1,26,1,26,1,27,1
942,-3,1,1,1,4,1,1,1,-3,1,2,1,12,1,30,1,39,1,23,1,24,1,26,1
943,-5,1,2,1,7,1,1,1,-6,1,4,1,10,1,25,1,36,1,20,1,21,1,24,1
944,-7,1,4,1,11,1,1,1,-9,1,7,1,8,1,20,1,31,1,15,1,16,1,20,1
945,-9,1,1,1,10,1,4,1,-9,1,5,1,9,1,18,1,28,1,13,1,14,1,20,1
946,-9,1,0,1,9,1,4,1,-9,1,4,1,7,1,15,1,25,1,11,1,13,1,19,1
947,-11,1,-2,1,9,1,6,1,-10,1,3,1,7,1,12,1,21,1,8,1,10,1,18,1
948,-13,1,-6,1,7,1,9,1,-10,1,0,1,8,1,9,1,19,1,6,1,8,1,17,1
949,-15,1,-7,1,8,1,11,1,-12,1,0,1,7,1,6,1,15,1,4,1,6,1,15,1
950,-18,1,-10,1,8,1,14,1,-13,1,-1,1,6,1,3,1,12,1,2,1,4,1,13,1
951,-16,1,-11,1,5,1,13,1,-11,1,-3,1,5,1,0,1,8,1,0,1,3,1,12,1
952,-12,1,-11,1,1,1,11,1,-7,1,-5,1,5,1,0,1,7,1,0,1,2,1,11,1
953,-16,1,-14,1,2,1,15,1,-9,1,-6,1,6,1,-1,1,5,1,-1,1,0,1,10,1
954,-15,1,-15,1,0,1,15,1,-8,1,-8,1,4,1,-5,1,2,1,-3,1,-2,1,7,1
955,-18,1,-17,1,1,1,17,1,-10,1,-8,1,2,1,-7,1,0,1,-5,1,-3,1,7,1
956,-21,1,-20,1,1,1,20,1,-11,1,-10,1,4,1,-7,1,0,1,-6,1,-4,1,7,1
957,-22,1,-20,1,2,1,21,1,-12,1,-9,1,4,1,-8,1,-2,1,-6,1,-4,1,6,1
958,-22,1,-18,1,4,1,20,1,-13,1,-7,1,2,1,-12,1,-7,1,-10,1,-6,1,3,1
959,-21,1,-17,1,4,1,19,1,-13,1,-7,1,1,1,-13,1,-8,1,-11,1,-5,1,2,1
960,-21,1,-16,1,5,1,18,1,-13,1,-6,1,1,1,-13,1,-8,1,-11,1,-5,1,2,1
961,-16,1,-16,1,0,1,16,1,-8,1,-8,1,1,1,-13,1,-8,1,-10,1,-5,1,3,1
962,-17,1,-21,1,-4,1,19,1,-7,1,-13,1,2,1,-13,1,-8,1,-11,1,-5,1,4,1
963,-24,1,-25,1,-1,1,24,1,-12,1,-13,1,0,1,-14,1,-10,1,-12,1,-7,1,3,1
964,-24,1,-25,1,-1,1,24,1,-12,1,-13,1,0,1,-15,1,-10,1,-12,1,-7,1,4,1
965,-20,1,-25,1,-5,1,22,1,-8,1,-15,1,0,1,-15,1,-9,1,-10,1,-7,1,4,1
966,-21,1,-27,1,-6,1,24,1,-8,1,-17,1,1,1,-15,1,-10,1,-11,1,-7,1,4,1
967,-21,1,-28,1,-7,1,24,1,-7,1,-18,1,2,1,-15,1,-11,1,-12,1,-9,1,4,1
968,-22,1,-29,1,-7,1,25,1,-8,1,-18,1,1,1,-16,1,-13,1,-14,1,-11,1,3,1
969,-19,1,-27,1,-8,1,23,1,-6,1,-18,1,2,1,-15,1,-11,1,-12,1,-8,1,4,1
970,-17,1,-24,1,-7,1,20,1,-5,1,-16,1,2,1,-15,1,-11,1,-12,1,-6,1,5,1
971,-23,1,-25,1,-2,1,24,1,-11,1,-14,1,2,1,-17,1,-12,1,-12,1,-8,1,4,1
972,-27,1,-27,1,0,1,27,1,-14,1,-14,1,3,1,-15,1,-11,1,-11,1,-8,1,5,1
973,-27,1,-28,1,-1,1,27,1,-13,1,-15,1,3,1,-15,1,-11,1,-11,1,-8,1,5,1
974,-24,1,-26,1,-2,1,25,1,-11,1,-14,1,2,1,-16,1,-13,1,-12,1,-11,1,4,1
975,-19,1,-24,1,-5,1,21,1,-7,1,-15,1,0,1,-18,1,-15,1,-14,1,-12,1,2,1
976,-23,1,-26,1,-3,1,24,1,-10,1,-15,1,1,1,-16,1,-14,1,-13,1,-11,1,3,1
977,-23,1,-27,1,-4,1,25,1,-10,1,-16,1,1,1,-16,1,-14,1,-14,1,-12,1,4,1
978,-22,1,-25,1,-3,1,23,1,-10,1,-14,1,1,1,-17,1,-15,1,-14,1,-13,1,1,1
979,-22,1,-20,1,2,1,21,1,-12,1,-9,1,2,1,-16,1,-13,1,-12,1,-11,1,4,1
980,-22,1,-20,1,2,1,21,1,-12,1,-9,1,0,1,-16,1,-14,1,-12,1,-10,1,4,1
981,-24,1,-22,1,2,1,23,1,-13,1,-10,1,1,1,-17,1,-16,1,-13,1,-11,1,3,1
982,-20,1,-23,1,-3,1,21,1,-9,1,-13,1,1,1,-16,1,-16,1,-12,1,-11,1,5,1
983,-18,1,-24,1,-6,1,21,1,-6,1,-15,1,4,1,-12,1,-12,1,-9,1,-8,1,7,1
984,-22,1,-25,1,-3,1,23,1,-10,1,-14,1,4,1,-12,1,-12,1,-9,1,-8,1,6,1
985,-25,1,-26,1,-1,1,25,1,-12,1,-14,1,3,1,-15,1,-14,1,-11,1,-10,1,4,1
986,-23,1,-22,1,1,1,22,1,-12,1,-11,1,0,1,-17,1,-15,1,-13,1,-13,1,1,1
987,-25,1,-22,1,3,1,23,1,-14,1,-10,1,1,1,-16,1,-14,1,-10,1,-12,1,2,1
988,-26,1,-26,1,0,1,26,1,-13,1,-13,1,3,1,-13,1,-12,1,-8,1,-11,1,4,1
989,-22,1,-28,1,-6,1,25,1,-8,1,-17,1,1,1,-14,1,-14,1,-9,1,-12,1,4,1
990,-19,1,-29,1,-10,1,24,1,-5,1,-20,1,2,1,-15,1,-15,1,-10,1,-13,1,4,1
991,-18,1,-28,1,-10,1,23,1,-4,1,-19,1,3,1,-15,1,-16,1,-9,1,-12,1,5,1
992,-20,1,-26,1,-6,1,23,1,-7,1,-16,1,5,1,-14,1,-14,1,-7,1,-10,1,7,1
993,-20,1,-24,1,-4,1,22,1,-8,1,-14,1,8,1,-14,1,-12,1,-6,1,-9,1,9,1
994,-17,1,-24,1,-7,1,20,1,-5,1,-16,1,10,1,-14,1,-13,1,-7,1,-9,1,8,1
995,-18,1,-25,1,-7,1,21,1,-6,1,-16,1,10,1,-13,1,-12,1,-6,1,-8,1,9,1
996,-15,1,-21,1,-6,1,18,1,-5,1,-14,1,10,1,-12,1,-12,1,-5,1,-7,1,11,1
997,-17,1,-19,1,-2,1,18,1,-8,1,-11,1,8,1,-13,1,-12,1,-5,1,-7,1,10,1
998,-14,1,-17,1,-3,1,15,1,-6,1,-10,1,9,1,-11,1,-12,1,-4,1,-7,1,11,1
999,-13,1,-14,1,-1,1,13,1,-6,1,-8,1,9,1,-10,1,-10,1,-2,1,-5,1,12,1
1000,-12,1,-12,1,0,1,12,1,-6,1,-6,1,10,1,-9,1,-10,1,-2,1,-4,1,13,1
1001,-15,1,-12,1,3,1,13,1,-9,1,-5,1,8,1,-12,1,-12,1,-5,1,-6,1,11,1
1002,-17,1,-12,1,5,1,14,1,-11,1,-4,1,10,1,-12,1,-13,1,-5,1,-6,1,11,1
1003,-13,1,-12,1,1,1,12,1,-7,1,-6,1,9,1,-11,1,-13,1,-5,1,-4,1,13,1
1004,-12,1,-11,1,1,1,11,1,-7,1,-5,1,8,1,-11,1,-12,1,-7,1,-6,1,13,1
1005,-14,1,-8,1,6,1,11,1,-10,1,-1,1,7,1,-12,1,-14,1,-10,1,-6,1,12,1
1006,-15,1,0,1,15,1,7,1,-15,1,7,1,4,1,-14,1,-15,1,-13,1,-8,1,10,1
1007,-12,1,0,1,12,1,6,1,-12,1,6,1,5,1,-14,1,-15,1,-13,1,-8,1,9,1
1008,-13,1,-15,1,-2,1,14,1,-6,1,-9,1,9,1,-12,1,-13,1,-11,1,-6,1,11,1
1009,-15,1,-18,1,-3,1,16,1,-6,1,-11,1,9,1,-11,1,-12,1,-11,1,-6,1,11,1
1010,-13,1,-17,1,-4,1,15,1,-5,1,-11,1,12,1,-9,1,-12,1,-11,1,-6,1,11,1
1011,-16,1,-14,1,2,1,15,1,-9,1,-6,1,12,1,-11,1,-14,1,-12,1,-7,1,11,1
1012,-18,1,-18,1,0,1,18,1,-9,1,-9,1,12,1,-11,1,-14,1,-11,1,-6,1,11,1
1013,-14,1,-29,1,-15,1,21,1,0,1,-22,1,15,1,-7,1,-11,1,-7,1,-1,1,16,1
1014,-13,1,-26,1,-13,1,19,1,0,1,-20,1,15,1,-6,1,-9,1,-4,1,0,1,17,1
1015,-18,1,-21,1,-3,1,19,1,-8,1,-12,1,14,1,-8,1,-10,1,-4,1,0,1,16,1
1016,-16,1,-21,1,-5,1,18,1,-6,1,-13,1,14,1,-7,1,-11,1,-4,1,-1,1,15,1
1017,-15,1,-22,1,-7,1,18,1,-4,1,-15,1,12,1,-7,1,-11,1,-3,1,-1,1,15,1
1018,-18,1,-25,1,-7,1,21,1,-6,1,-16,1,8,1,-12,1,-14,1,-6,1,-5,1,10,1
1019,-18,1,-26,1,-8,1,22,1,-5,1,-17,1,10,1,-11,1,-13,1,-5,1,-5,1,9,1
1020,-17,1,-26,1,-9,1,21,1,-4,1,-18,1,12,1,-9,1,-12,1,-4,1,-4,1,11,1
1021,-17,1,-25,1,-8,1,21,1,-5,1,-17,1,13,1,-8,1,-12,1,-6,1,-5,1,10,1
1022,-21,1,-25,1,-4,1,23,1,-9,1,-15,1,15,1,-8,1,-12,1,-5,1,-5,1,10,1
1023,-22,1,-26,1,-4,1,24,1,-9,1,-15,1,15,1,-9,1,-11,1,-4,1,-5,1,11,1
1024,-19,1,-26,1,-7,1,22,1,-6,1,-17,1,14,1,-11,1,-12,1,-7,1,-7,1,9,1
1025,-17,1,-28,1,-11,1,22,1,-3,1,-20,1,16,1,-10,1,-11,1,-7,1,-5,1,9,1
1026,-17,1,-26,1,-9,1,21,1,-4,1,-18,1,15,1,-11,1,-10,1,-5,1,-3,1,9,1
1027,-14,1,-26,1,-12,1,20,1,-1,1,-19,1,13,1,-12,1,-13,1,-8,1,-4,1,6,1
1028,-16,1,-28,1,-12,1,22,1,-2,1,-20,1,13,1,-12,1,-15,1,-9,1,-5,1,6,1
1029,-17,1,-29,1,-12,1,23,1,-3,1,-21,1,12,1,-13,1,-16,1,-9,1,-7,1,5,1
1030,-18,1,-29,1,-11,1,23,1,-4,1,-20,1,11,1,-11,1,-15,1,-8,1,-6,1,5,1
1031,-23,1,-27,1,-4,1,25,1,-10,1,-16,1,13,1,-10,1,-14,1,-6,1,-2,1,8,1
1032,-20,1,-26,1,-6,1,23,1,-7,1,-16,1,12,1,-12,1,-15,1,-9,1,-5,1,8,1
1033,-18,1,-32,1,-14,1,25,1,-2,1,-23,1,9,1,-16,1,-20,1,-13,1,-8,1,5,1
1034,-19,1,-31,1,-12,1,25,1,-4,1,-22,1,11,1,-15,1,-19,1,-13,1,-8,1,6,1
1035,-17,1,-27,1,-10,1,22,1,-4,1,-19,1,13,1,-14,1,-18,1,-14,1,-9,1,4,1
1036,-18,1,-28,1,-10,1,23,1,-4,1,-19,1,14,1,-15,1,-19,1,-15,1,-9,1,5,1
1037,-16,1,-28,1,-12,1,22,1,-2,1,-20,1,16,1,-15,1,-18,1,-16,1,-7,1,6,1
1038,-18,1,-33,1,-15,1,25,1,-2,1,-24,1,16,1,-14,1,-18,1,-15,1,-7,1,7,1
1039,-18,1,-33,1,-15,1,25,1,-2,1,-24,1,14,1,-15,1,-19,1,-16,1,-8,1,5,1
1040,-15,1,-29,1,-14,1,22,1,-1,1,-22,1,13,1,-17,1,-21,1,-16,1,-9,1,5,1
1041,-14,1,-28,1,-14,1,21,1,0,1,-21,1,13,1,-16,1,-19,1,-16,1,-9,1,6,1
1042,-18,1,-27,1,-9,1,22,1,-5,1,-18,1,14,1,-15,1,-20,1,-15,1,-8,1,7,1
1043,-19,1,-28,1,-9,1,23,1,-5,1,-19,1,16,1,-14,1,-20,1,-14,1,-7,1,9,1
1044,-18,1,-26,1,-8,1,22,1,-5,1,-17,1,16,1,-13,1,-19,1,-15,1,-8,1,8,1
1045,-16,1,-28,1,-12,1,22,1,-2,1,-20,1,16,1,-14,1,-19,1,-14,1,-7,1,8,1
1046,-17,1,-30,1,-13,1,23,1,-2,1,-22,1,16,1,-15,1,-21,1,-14,1,-8,1,8,1
1047,-17,1,-28,1,-11,1,22,1,-3,1,-20,1,14,1,-17,1,-23,1,-15,1,-9,1,8,1
1048,-15,1,-25,1,-10,1,20,1,-3,1,-18,1,14,1,-19,1,-23,1,-15,1,-9,1,7,1
1049,-15,1,-18,1,-3,1,16,1,-6,1,-11,1,12,1,-20,1,-26,1,-16,1,-11,1,6,1
1050,-15,1,-18,1,-3,1,16,1,-6,1,-11,1,12,1,-19,1,-25,1,-16,1,-9,1,6,1
1051,-16,1,-27,1,-11,1,21,1,-3,1,-19,1,15,1,-17,1,-23,1,-14,1,-7,1,9,1
1052,-16,1,-31,1,-15,1,23,1,-1,1,-23,1,16,1,-16,1,-22,1,-12,1,-7,1,12,1
1053,-17,1,-26,1,-9,1,21,1,-4,1,-18,1,15,1,-18,1,-22,1,-12,1,-8,1,12,1
1054,-13,1,-20,1,-7,1,16,1,-3,1,-14,1,14,1,-19,1,-24,1,-14,1,-10,1,9,1
1055,-12,1,-22,1,-10,1,17,1,-1,1,-16,1,15,1,-19,1,-25,1,-13,1,-10,1,8,1
1056,-13,1,-25,1,-12,1,19,1,-1,1,-19,1,18,1,-18,1,-24,1,-10,1,-8,1,10,1
1057,-14,1,-23,1,-9,1,18,1,-3,1,-16,1,17,1,-18,1,-26,1,-11,1,-9,1,10,1
1058,-15,1,-19,1,-4,1,17,1,-6,1,-12,1,17,1,-20,1,-28,1,-13,1,-11,1,8,1
1059,-13,1,-21,1,-8,1,17,1,-3,1,-15,1,20,1,-19,1,-26,1,-11,1,-10,1,8,1
1060,-10,1,-21,1,-11,1,15,1,0,1,-16,1,21,1,-19,1,-27,1,-11,1,-10,1,7,1
1061,-9,1,-18,1,-9,1,13,1,0,1,-14,1,21,1,-20,1,-27,1,-11,1,-10,1,7,1
1062,-11,1,-22,1,-11,1,16,1,0,1,-17,1,24,1,-18,1,-25,1,-8,1,-7,1,8,1
1063,-12,1,-25,1,-13,1,18,1,0,1,-19,1,28,1,-15,1,-23,1,-5,1,-5,1,11,1
1064,-10,1,-24,1,-14,1,17,1,2,1,-19,1,30,1,-15,1,-23,1,-5,1,-4,1,12,1
1065,-10,1,-17,1,-7,1,13,1,-2,1,-12,1,30,1,-15,1,-24,1,-4,1,-5,1,12,1
1066,-9,1,-11,1,-2,1,10,1,-4,1,-7,1,30,1,-17,1,-23,1,-4,1,-4,1,12,1
1067,-6,1,-11,1,-5,1,8,1,-1,1,-8,1,30,1,-18,1,-25,1,-5,1,-5,1,11,1
1068,-5,1,-13,1,-8,1,9,1,1,1,-11,1,31,1,-17,1,-24,1,-4,1,-4,1,12,1
1069,-10,1,-16,1,-6,1,13,1,-2,1,-11,1,32,1,-17,1,-24,1,-5,1,-5,1,12,1
1070,-7,1,-12,1,-5,1,9,1,-1,1,-9,1,33,1,-16,1,-23,1,-5,1,-5,1,13,1
1071,-3,1,-10,1,-7,1,6,1,2,1,-9,1,33,1,-18,1,-26,1,-6,1,-6,1,11,1
1072,-3,1,-10,1,-7,1,6,1,2,1,-9,1,32,1,-18,1,-26,1,-6,1,-6,1,11,1
1073,-8,1,-10,1,-2,1,9,1,-3,1,-6,1,33,1,-17,1,-24,1,-4,1,-4,1,12,1
1074,-7,1,-8,1,-1,1,7,1,-3,1,-5,1,30,1,-20,1,-26,1,-5,1,-5,1,12,1
1075,-5,1,-5,1,0,1,5,1,-3,1,-3,1,27,1,-22,1,-27,1,-5,1,-5,1,13,1
1076,-3,1,-3,1,0,1,3,1,-2,1,-2,1,27,1,-20,1,-25,1,-3,1,-3,1,15,1
1077,-1,1,-2,1,-1,1,1,1,0,1,-2,1,28,1,-19,1,-22,1,-2,1,-1,1,17,1
1078,-3,1,-5,1,-2,1,4,1,-1,1,-4,1,29,1,-18,1,-22,1,-2,1,0,1,18,1
1079,-1,1,-5,1,-4,1,3,1,1,1,-5,1,29,1,-17,1,-20,1,-1,1,0,1,19,1
1080,1,1,-4,1,-5,1,1,1,3,1,-4,1,29,1,-15,1,-20,1,0,1,1,1,20,1
1081,1,1,-6,1,-7,1,2,1,4,1,-6,1,26,1,-17,1,-22,1,-2,1,0,1,18,1
1082,0,1,-8,1,-8,1,4,1,4,1,-8,1,24,1,-19,1,-23,1,-3,1,-2,1,17,1
1083,2,1,-8,1,-10,1,3,1,6,1,-9,1,25,1,-19,1,-23,1,-3,1,-1,1,18,1
1084,2,1,-10,1,-12,1,4,1,7,1,-11,1,24,1,-19,1,-23,1,-4,1,-2,1,18,1
1085,5,1,-9,1,-14,1,2,1,9,1,-11,1,27,1,-19,1,-23,1,-5,1,-2,1,18,1
1086,1,1,-11,1,-12,1,5,1,6,1,-11,1,26,1,-18,1,-24,1,-6,1,-3,1,18,1
1087,-2,1,-12,1,-10,1,7,1,4,1,-11,1,27,1,-18,1,-24,1,-6,1,-3,1,17,1
1088,-1,1,-12,1,-11,1,6,1,5,1,-12,1,27,1,-18,1,-24,1,-7,1,-4,1,17,1
1089,3,1,-11,1,-14,1,4,1,8,1,-12,1,27,1,-18,1,-24,1,-8,1,-5,1,16,1
1090,4,1,-10,1,-14,1,3,1,9,1,-12,1,27,1,-17,1,-22,1,-7,1,-3,1,18,1
1091,1,1,-12,1,-13,1,5,1,7,1,-12,1,27,1,-18,1,-23,1,-7,1,-3,1,16,1
1092,2,1,-13,1,-15,1,5,1,8,1,-14,1,27,1,-19,1,-24,1,-7,1,-3,1,16,1
1093,2,1,-12,1,-14,1,5,1,8,1,-13,1,28,1,-20,1,-24,1,-6,1,-2,1,17,1
1094,0,1,-10,1,-10,1,5,1,5,1,-10,1,28,1,-20,1,-25,1,-5,1,-1,1,18,1
1095,3,1,-9,1,-12,1,3,1,7,1,-10,1,26,1,-21,1,-26,1,-6,1,-2,1,18,1
1096,6,1,-7,1,-13,1,0,1,9,1,-10,1,23,1,-23,1,-28,1,-7,1,-2,1,18,1
1097,6,1,-3,1,-9,1,-1,1,7,1,-6,1,23,1,-23,1,-28,1,-8,1,-4,1,16,1
1098,2,1,-11,1,-13,1,4,1,7,1,-12,1,24,1,-22,1,-27,1,-7,1,-2,1,17,1
1099,-1,1,-18,1,-17,1,9,1,8,1,-18,1,26,1,-20,1,-25,1,-8,1,-3,1,18,1
1100,-3,1,-18,1,-15,1,10,1,6,1,-17,1,28,1,-20,1,-25,1,-11,1,-5,1,16,1
1101,-3,1,-15,1,-12,1,9,1,4,1,-14,1,29,1,-19,1,-25,1,-12,1,-6,1,15,1
1102,-6,1,-16,1,-10,1,11,1,2,1,-13,1,29,1,-19,1,-26,1,-11,1,-7,1,14,1
1103,-7,1,-15,1,-8,1,11,1,0,1,-12,1,30,1,-21,1,-28,1,-14,1,-9,1,12,1
1104,-7,1,-15,1,-8,1,11,1,0,1,-12,1,30,1,-22,1,-31,1,-17,1,-12,1,10,1
1105,-8,1,-19,1,-11,1,13,1,1,1,-15,1,28,1,-25,1,-33,1,-20,1,-15,1,8,1
1106,-9,1,-24,1,-15,1,16,1,3,1,-20,1,27,1,-26,1,-34,1,-21,1,-16,1,8,1
1107,-12,1,-25,1,-13,1,18,1,0,1,-19,1,29,1,-26,1,-33,1,-21,1,-16,1,7,1
1108,-12,1,-24,1,-12,1,18,1,0,1,-18,1,28,1,-27,1,-36,1,-21,1,-18,1,6,1
1109,-12,1,-22,1,-10,1,17,1,-1,1,-16,1,25,1,-29,1,-37,1,-23,1,-18,1,5,1
1110,-12,1,-23,1,-11,1,17,1,-1,1,-17,1,25,1,-29,1,-38,1,-24,1,-18,1,4,1
1111,-14,1,-23,1,-9,1,18,1,-3,1,-16,1,24,1,-29,1,-37,1,-24,1,-17,1,5,1
1112,-11,1,-24,1,-13,1,17,1,1,1,-19,1,24,1,-30,1,-38,1,-25,1,-19,1,4,1
1113,-11,1,-28,1,-17,1,19,1,3,1,-23,1,24,1,-30,1,-38,1,-24,1,-18,1,5,1
1114,-13,1,-26,1,-13,1,19,1,0,1,-20,1,24,1,-29,1,-38,1,-24,1,-18,1,6,1
1115,-17,1,-25,1,-8,1,21,1,-5,1,-17,1,24,1,-29,1,-38,1,-24,1,-18,1,5,1
1116,-16,1,-21,1,-5,1,18,1,-6,1,-13,1,23,1,-31,1,-40,1,-26,1,-20,1,3,1
1117,-16,1,-20,1,-4,1,18,1,-6,1,-12,1,24,1,-31,1,-40,1,-25,1,-20,1,3,1
1118,-13,1,-21,1,-8,1,17,1,-3,1,-15,1,25,1,-31,1,-40,1,-25,1,-20,1,2,1
1119,-12,1,-21,1,-9,1,16,1,-2,1,-15,1,24,1,-32,1,-41,1,-26,1,-20,1,1,1
1120,-15,1,-22,1,-7,1,18,1,-4,1,-15,1,24,1,-34,1,-42,1,-27,1,-21,1,0,1
1121,-14,1,-22,1,-8,1,18,1,-3,1,-15,1,24,1,-35,1,-42,1,-29,1,-23,1,0,1
1122,-13,1,-26,1,-13,1,19,1,0,1,-20,1,24,1,-36,1,-42,1,-27,1,-22,1,1,1
1123,-14,1,-27,1,-13,1,20,1,-1,1,-20,1,25,1,-35,1,-42,1,-27,1,-22,1,2,1
1124,-14,1,-24,1,-10,1,19,1,-2,1,-17,1,24,1,-36,1,-41,1,-28,1,-23,1,1,1
1125,-16,1,-24,1,-8,1,20,1,-4,1,-16,1,23,1,-37,1,-41,1,-28,1,-23,1,0,1
1126,-17,1,-22,1,-5,1,19,1,-6,1,-14,1,23,1,-37,1,-41,1,-28,1,-24,1,0,1
1127,-16,1,-23,1,-7,1,19,1,-5,1,-15,1,25,1,-35,1,-39,1,-26,1,-22,1,2,1
1128,-18,1,-25,1,-7,1,21,1,-6,1,-16,1,24,1,-34,1,-39,1,-26,1,-22,1,2,1
1129,-22,1,-28,1,-6,1,25,1,-8,1,-17,1,22,1,-36,1,-41,1,-29,1,-25,1,0,1
1130,-16,1,-22,1,-6,1,19,1,-5,1,-14,1,22,1,-37,1,-41,1,-31,1,-26,1,-3,1
1131,-15,1,-20,1,-5,1,17,1,-5,1,-13,1,22,1,-36,1,-40,1,-30,1,-26,1,-2,1
1132,-17,1,-20,1,-3,1,18,1,-7,1,-12,1,22,1,-37,1,-39,1,-29,1,-25,1,-1,1
1133,-19,1,-21,1,-2,1,20,1,-9,1,-12,1,24,1,-36,1,-39,1,-29,1,-24,1,1,1
1134,-14,1,-23,1,-9,1,18,1,-3,1,-16,1,23,1,-36,1,-38,1,-29,1,-24,1,1,1
1135,-14,1,-27,1,-13,1,20,1,-1,1,-20,1,23,1,-36,1,-38,1,-29,1,-24,1,2,1
1136,-14,1,-25,1,-11,1,19,1,-2,1,-18,1,25,1,-34,1,-37,1,-29,1,-24,1,3,1
1137,-18,1,-22,1,-4,1,20,1,-7,1,-13,1,29,1,-31,1,-37,1,-29,1,-25,1,2,1
1138,-19,1,-20,1,-1,1,19,1,-9,1,-11,1,34,1,-27,1,-35,1,-29,1,-25,1,0,1
1139,-20,1,-20,1,0,1,20,1,-10,1,-10,1,39,1,-22,1,-32,1,-26,1,-24,1,2,1
1140,-19,1,-17,1,2,1,18,1,-11,1,-8,1,43,1,-15,1,-27,1,-22,1,-20,1,3,1
1141,-14,1,-13,1,1,1,13,1,-8,1,-6,1,49,1,-4,1,-19,1,-14,1,-13,1,7,1
1142,-3,1,-10,1,-7,1,6,1,2,1,-9,1,54,1,9,1,-9,1,-9,1,-10,1,9,1
1143,6,1,-7,1,-13,1,0,1,9,1,-10,1,62,1,28,1,2,1,-3,1,-7,1,9,1
1144,15,1,1,1,-14,1,-8,1,15,1,-6,1,75,1,50,1,21,1,10,1,4,1,16,1
1145,22,1,9,1,-13,1,-15,1,18,1,-2,1,83,1,76,1,47,1,31,1,21,1,30,1
1146,33,1,17,1,-16,1,-25,1,25,1,1,1,89,1,107,1,78,1,55,1,40,1,44,1
1147,47,1,35,1,-12,1,-41,1,30,1,12,1,80,1,129,1,108,1,80,1,60,1,59,1
1148,64,1,56,1,-8,1,-60,1,36,1,24,1,58,1,148,1,141,1,108,1,83,1,77,1
1149,80,1,73,1,-7,1,-76,1,44,1,33,1,34,1,162,1,174,1,138,1,108,1,97,1
1150,96,1,99,1,3,1,-97,1,47,1,51,1,0,1,160,1,198,1,166,1,135,1,120,1
1151,109,1,127,1,18,1,-118,1,46,1,73,1,-43,1,137,1,209,1,187,1,160,1,146,1
1152,117,1,141,1,24,1,-129,1,47,1,83,1,-79,1,111,1,214,1,200,1,175,1,161,1
1153,118,1,145,1,27,1,-131,1,46,1,86,1,-101,1,92,1,216,1,206,1,181,1,167,1
1154,107,1,130,1,23,1,-118,1,42,1,77,1,-107,1,73,1,203,1,192,1,165,1,152,1
1155,91,1,107,1,16,1,-99,1,38,1,62,1,-103,1,52,1,176,1,161,1,135,1,126,1
1156,71,1,86,1,15,1,-78,1,28,1,51,1,-105,1,10,1,125,1,117,1,101,1,104,1
1157,51,1,72,1,21,1,-61,1,15,1,47,1,-105,1,-35,1,68,1,72,1,68,1,83,1
1158,29,1,55,1,26,1,-42,1,2,1,41,1,-105,1,-82,1,12,1,29,1,37,1,61,1
1159,11,1,32,1,21,1,-21,1,-5,1,27,1,-105,1,-130,1,-42,1,-10,1,7,1,42,1
1160,-8,1,18,1,26,1,-5,1,-17,1,22,1,-106,1,-186,1,-99,1,-48,1,-20,1,24,1
1161,-21,1,7,1,28,1,7,1,-24,1,17,1,-113,1,-223,1,-142,1,-77,1,-41,1,7,1
1162,-29,1,-5,1,24,1,17,1,-27,1,9,1,-117,1,-239,1,-165,1,-97,1,-56,1,-4,1
1163,-37,1,-16,1,21,1,26,1,-29,1,2,1,-114,1,-235,1,-169,1,-105,1,-66,1,-14,1
1164,-42,1,-21,1,21,1,31,1,-32,1,0,1,-107,1,-221,1,-163,1,-106,1,-69,1,-19,1
1165,-43,1,-22,1,21,1,32,1,-32,1,-1,1,-102,1,-211,1,-157,1,-104,1,-69,1,-21,1
1166,-44,1,-22,1,22,1,33,1,-33,1,0,1,-98,1,-200,1,-151,1,-104,1,-70,1,-24,1
1167,-44,1,-25,1,19,1,34,1,-32,1,-3,1,-91,1,-185,1,-145,1,-106,1,-74,1,-29,1
1168,-45,1,-30,1,15,1,37,1,-30,1,-8,1,-81,1,-168,1,-135,1,-104,1,-75,1,-32,1
1169,-41,1,-29,1,12,1,35,1,-27,1,-9,1,-69,1,-147,1,-120,1,-93,1,-68,1,-27,1
1170,-34,1,-23,1,11,1,28,1,-23,1,-6,1,-58,1,-127,1,-104,1,-81,1,-58,1,-19,1
1171,-29,1,-15,1,14,1,22,1,-22,1,-1,1,-45,1,-110,1,-90,1,-72,1,-51,1,-15,1
1172,-30,1,-13,1,17,1,21,1,-24,1,2,1,-33,1,-95,1,-78,1,-62,1,-46,1,-10,1
1173,-27,1,-7,1,20,1,17,1,-24,1,6,1,-19,1,-77,1,-63,1,-51,1,-37,1,-3,1
1174,-17,1,0,1,17,1,8,1,-17,1,8,1,-7,1,-62,1,-51,1,-42,1,-31,1,0,1
1175,-12,1,6,1,18,1,3,1,-15,1,12,1,0,1,-51,1,-44,1,-38,1,-28,1,1,1
1176,-12,1,6,1,18,1,3,1,-15,1,12,1,7,1,-39,1,-35,1,-32,1,-22,1,5,1
1177,-10,1,1,1,11,1,4,1,-10,1,6,1,15,1,-31,1,-29,1,-27,1,-20,1,7,1
1178,-5,1,0,1,5,1,2,1,-5,1,2,1,20,1,-25,1,-26,1,-25,1,-20,1,6,1
1179,-3,1,1,1,4,1,1,1,-3,1,2,1,22,1,-21,1,-23,1,-25,1,-21,1,6,1
1180,0,1,-2,1,-2,1,1,1,1,1,-2,1,26,1,-15,1,-20,1,-22,1,-19,1,8,1
1181,-2,1,-5,1,-3,1,3,1,0,1,-4,1,28,1,-12,1,-17,1,-20,1,-16,1,11,1
1182,-2,1,-5,1,-3,1,3,1,0,1,-4,1,28,1,-10,1,-16,1,-19,1,-15,1,11,1
1183,0,1,-4,1,-4,1,2,1,2,1,-4,1,28,1,-9,1,-16,1,-18,1,-14,1,9,1
1184,2,1,-2,1,-4,1,0,1,3,1,-3,1,27,1,-9,1,-16,1,-20,1,-16,1,8,1
1185,-2,1,-4,1,-2,1,3,1,0,1,-3,1,28,1,-8,1,-15,1,-20,1,-16,1,7,1
1186,-2,1,-8,1,-6,1,5,1,2,1,-7,1,31,1,-5,1,-13,1,-19,1,-14,1,9,1
1187,-2,1,-7,1,-5,1,4,1,1,1,-6,1,32,1,-2,1,-11,1,-17,1,-12,1,11,1
1188,-3,1,-4,1,-1,1,3,1,-1,1,-3,1,31,1,-3,1,-12,1,-18,1,-13,1,10,1
1189,-4,1,-5,1,-1,1,4,1,-2,1,-3,1,31,1,-2,1,-12,1,-19,1,-14,1,9,1
1190,-1,1,-3,1,-2,1,2,1,0,1,-3,1,32,1,0,1,-10,1,-19,1,-12,1,11,1
1191,2,1,-5,1,-7,1,1,1,4,1,-6,1,33,1,1,1,-9,1,-19,1,-11,1,11,1
1192,0,1,-7,1,-7,1,3,1,3,1,-7,1,34,1,3,1,-9,1,-19,1,-11,1,12,1
1193,2,1,-3,1,-5,1,0,1,3,1,-4,1,32,1,2,1,-9,1,-21,1,-11,1,11,1
1194,2,1,-2,1,-4,1,0,1,3,1,-3,1,31,1,2,1,-10,1,-22,1,-12,1,10,1
1195,2,1,-7,1,-9,1,2,1,5,1,-8,1,33,1,4,1,-8,1,-20,1,-10,1,12,1
1196,2,1,-9,1,-11,1,3,1,6,1,-10,1,35,1,7,1,-5,1,-17,1,-8,1,14,1
1197,4,1,-6,1,-10,1,1,1,7,1,-8,1,35,1,9,1,-4,1,-17,1,-8,1,14,1
1198,4,1,-7,1,-11,1,1,1,7,1,-9,1,33,1,7,1,-6,1,-19,1,-10,1,11,1
1199,3,1,-3,1,-6,1,0,1,4,1,-4,1,32,1,8,1,-6,1,-19,1,-10,1,12,1
1200,1,1,-2,1,-3,1,0,1,2,1,-2,1,31,1,7,1,-5,1,-19,1,-10,1,13,1
1201,2,1,-4,1,-6,1,1,1,4,1,-5,1,32,1,9,1,-3,1,-17,1,-8,1,15,1
1202,3,1,-4,1,-7,1,0,1,5,1,-5,1,33,1,11,1,-2,1,-16,1,-8,1,17,1
1203,4,1,0,1,-4,1,-2,1,4,1,-2,1,33,1,11,1,-2,1,-15,1,-8,1,16,1
1204,5,1,1,1,-4,1,-3,1,5,1,-1,1,33,1,12,1,0,1,-13,1,-7,1,16,1
1205,5,1,-1,1,-6,1,-2,1,5,1,-3,1,34,1,13,1,1,1,-11,1,-6,1,15,1
1206,8,1,0,1,-8,1,-4,1,8,1,-4,1,34,1,14,1,1,1,-10,1,-6,1,15,1
1207,6,1,-1,1,-7,1,-2,1,6,1,-4,1,35,1,15,1,2,1,-9,1,-6,1,14,1
1208,4,1,-1,1,-5,1,-1,1,4,1,-3,1,36,1,17,1,3,1,-8,1,-5,1,14,1
1209,2,1,-1,1,-3,1,0,1,2,1,-2,1,37,1,17,1,4,1,-8,1,-4,1,14,1
1210,4,1,1,1,-3,1,-2,1,4,1,-1,1,37,1,18,1,5,1,-7,1,-4,1,13,1
1211,7,1,2,1,-5,1,-4,1,6,1,-1,1,39,1,22,1,8,1,-4,1,-1,1,15,1
1212,8,1,1,1,-7,1,-4,1,8,1,-3,1,39,1,22,1,8,1,-4,1,0,1,15,1
1213,9,1,0,1,-9,1,-4,1,9,1,-4,1,39,1,22,1,8,1,-4,1,-2,1,13,1
1214,7,1,2,1,-5,1,-4,1,6,1,-1,1,39,1,24,1,9,1,-2,1,0,1,13,1
1215,7,1,5,1,-2,1,-6,1,5,1,2,1,40,1,26,1,13,1,-1,1,1,1,15,1
1216,9,1,4,1,-5,1,-6,1,7,1,0,1,39,1,26,1,12,1,-3,1,0,1,12,1
1217,9,1,4,1,-5,1,-6,1,7,1,0,1,40,1,28,1,13,1,-3,1,1,1,13,1
1218,8,1,4,1,-4,1,-6,1,6,1,0,1,41,1,29,1,15,1,-3,1,3,1,15,1
1219,6,1,4,1,-2,1,-5,1,4,1,1,1,41,1,32,1,18,1,0,1,6,1,16,1
1220,7,1,4,1,-3,1,-5,1,5,1,1,1,41,1,33,1,18,1,-2,1,6,1,17,1
1221,10,1,4,1,-6,1,-7,1,8,1,-1,1,40,1,34,1,19,1,-2,1,6,1,19,1
1222,10,1,4,1,-6,1,-7,1,8,1,-1,1,41,1,37,1,22,1,0,1,8,1,20,1
1223,13,1,5,1,-8,1,-9,1,11,1,-1,1,41,1,38,1,23,1,0,1,9,1,22,1
1224,13,1,5,1,-8,1,-9,1,11,1,-1,1,41,1,39,1,23,1,0,1,9,1,22,1
1225,10,1,4,1,-6,1,-7,1,8,1,-1,1,44,1,42,1,26,1,2,1,11,1,24,1
1226,11,1,5,1,-6,1,-8,1,9,1,0,1,44,1,44,1,27,1,4,1,12,1,26,1
1227,17,1,10,1,-7,1,-13,1,12,1,2,1,39,1,42,1,24,1,1,1,9,1,23,1
1228,15,1,15,1,0,1,-15,1,8,1,8,1,41,1,44,1,28,1,3,1,11,1,25,1
1229,16,1,12,1,-4,1,-14,1,10,1,4,1,44,1,49,1,32,1,7,1,15,1,29,1
1230,15,1,9,1,-6,1,-12,1,11,1,2,1,45,1,51,1,33,1,10,1,17,1,30,1
1231,15,1,12,1,-3,1,-13,1,9,1,5,1,44,1,53,1,34,1,10,1,16,1,29,1
1232,17,1,11,1,-6,1,-14,1,12,1,3,1,44,1,56,1,37,1,14,1,18,1,30,1
1233,20,1,14,1,-6,1,-17,1,13,1,4,1,44,1,59,1,40,1,17,1,20,1,32,1
1234,22,1,18,1,-4,1,-20,1,13,1,7,1,43,1,61,1,41,1,18,1,21,1,32,1
1235,24,1,19,1,-5,1,-21,1,15,1,7,1,44,1,64,1,43,1,21,1,23,1,34,1
1236,20,1,15,1,-5,1,-17,1,13,1,5,1,44,1,67,1,45,1,23,1,23,1,34,1
1237,17,1,16,1,-1,1,-16,1,9,1,8,1,44,1,69,1,46,1,24,1,24,1,33,1
1238,24,1,25,1,1,1,-24,1,12,1,13,1,43,1,71,1,48,1,25,1,24,1,34,1
1239,26,1,25,1,-1,1,-25,1,14,1,12,1,44,1,73,1,51,1,29,1,27,1,35,1
1240,26,1,24,1,-2,1,-25,1,14,1,11,1,45,1,76,1,54,1,31,1,29,1,37,1
1241,28,1,24,1,-4,1,-26,1,16,1,10,1,44,1,76,1,54,1,31,1,29,1,37,1
1242,28,1,21,1,-7,1,-24,1,18,1,7,1,45,1,81,1,58,1,35,1,31,1,38,1
1243,28,1,23,1,-5,1,-25,1,17,1,9,1,47,1,83,1,62,1,40,1,34,1,41,1
1244,29,1,25,1,-4,1,-27,1,17,1,11,1,45,1,84,1,64,1,39,1,34,1,39,1
1245,30,1,26,1,-4,1,-28,1,17,1,11,1,44,1,85,1,64,1,38,1,34,1,40,1
1246,34,1,31,1,-3,1,-32,1,19,1,14,1,44,1,86,1,67,1,40,1,35,1,42,1
1247,33,1,30,1,-3,1,-31,1,18,1,14,1,45,1,91,1,70,1,41,1,38,1,44,1
1248,28,1,30,1,2,1,-29,1,13,1,16,1,45,1,93,1,72,1,43,1,41,1,46,1
1249,27,1,31,1,4,1,-29,1,12,1,18,1,46,1,94,1,75,1,46,1,43,1,48,1
1250,33,1,32,1,-1,1,-32,1,17,1,16,1,45,1,95,1,74,1,45,1,44,1,48,1
1251,36,1,36,1,0,1,-36,1,18,1,18,1,43,1,95,1,74,1,44,1,43,1,48,1
1252,38,1,39,1,1,1,-38,1,19,1,20,1,43,1,95,1,75,1,45,1,44,1,48,1
1253,37,1,40,1,3,1,-38,1,17,1,22,1,42,1,96,1,76,1,46,1,46,1,49,1
1254,36,1,41,1,5,1,-38,1,16,1,23,1,41,1,96,1,77,1,46,1,46,1,50,1
1255,35,1,39,1,4,1,-37,1,16,1,22,1,42,1,97,1,79,1,49,1,49,1,53,1
1256,34,1,40,1,6,1,-37,1,14,1,23,1,44,1,97,1,80,1,49,1,50,1,56,1
1257,37,1,41,1,4,1,-39,1,17,1,23,1,41,1,95,1,78,1,46,1,48,1,54,1
1258,37,1,43,1,6,1,-40,1,16,1,25,1,41,1,95,1,78,1,46,1,48,1,54,1
1259,36,1,40,1,4,1,-38,1,16,1,22,1,40,1,95,1,78,1,46,1,49,1,55,1
1260,34,1,39,1,5,1,-36,1,15,1,22,1,40,1,95,1,79,1,48,1,52,1,55,1
1261,31,1,41,1,10,1,-36,1,11,1,26,1,38,1,95,1,79,1,47,1,51,1,55,1
1262,33,1,41,1,8,1,-37,1,13,1,25,1,37,1,93,1,78,1,47,1,50,1,54,1
1263,29,1,41,1,12,1,-35,1,9,1,27,1,37,1,92,1,78,1,48,1,51,1,54,1
1264,31,1,39,1,8,1,-35,1,12,1,24,1,34,1,91,1,77,1,47,1,50,1,54,1
1265,35,1,39,1,4,1,-37,1,16,1,22,1,32,1,89,1,75,1,46,1,49,1,52,1
1266,33,1,39,1,6,1,-36,1,14,1,23,1,32,1,89,1,77,1,49,1,52,1,56,1
1267,34,1,42,1,8,1,-38,1,13,1,25,1,31,1,89,1,78,1,50,1,54,1,57,1
1268,37,1,44,1,7,1,-40,1,15,1,26,1,30,1,87,1,76,1,50,1,55,1,56,1
1269,35,1,42,1,7,1,-38,1,14,1,25,1,33,1,87,1,76,1,52,1,56,1,56,1
1270,31,1,40,1,9,1,-35,1,11,1,25,1,32,1,84,1,75,1,52,1,56,1,56,1
1271,32,1,39,1,7,1,-35,1,13,1,23,1,30,1,83,1,72,1,51,1,55,1,57,1
1272,31,1,39,1,8,1,-35,1,12,1,24,1,29,1,80,1,69,1,49,1,54,1,57,1
1273,34,1,40,1,6,1,-37,1,14,1,23,1,28,1,77,1,67,1,48,1,54,1,56,1
1274,36,1,42,1,6,1,-39,1,15,1,24,1,27,1,75,1,65,1,47,1,52,1,56,1
1275,34,1,40,1,6,1,-37,1,14,1,23,1,26,1,73,1,64,1,47,1,52,1,56,1
1276,31,1,39,1,8,1,-35,1,12,1,24,1,24,1,68,1,60,1,45,1,50,1,55,1
1277,32,1,38,1,6,1,-35,1,13,1,22,1,23,1,65,1,57,1,43,1,48,1,53,1
1278,29,1,35,1,6,1,-32,1,12,1,21,1,23,1,63,1,55,1,42,1,48,1,52,1
1279,23,1,34,1,11,1,-28,1,6,1,23,1,23,1,60,1,54,1,42,1,47,1,52,1
1280,20,1,32,1,12,1,-26,1,4,1,22,1,22,1,56,1,50,1,38,1,44,1,49,1
1281,21,1,33,1,12,1,-27,1,5,1,23,1,20,1,51,1,45,1,35,1,41,1,46,1
1282,21,1,32,1,11,1,-26,1,5,1,22,1,19,1,46,1,40,1,32,1,37,1,42,1
1283,18,1,30,1,12,1,-24,1,3,1,21,1,20,1,43,1,37,1,29,1,34,1,40,1
1284,14,1,26,1,12,1,-20,1,1,1,19,1,18,1,38,1,32,1,25,1,33,1,38,1
1285,11,1,22,1,11,1,-16,1,0,1,17,1,18,1,34,1,30,1,23,1,32,1,36,1
1286,11,1,22,1,11,1,-16,1,0,1,17,1,17,1,30,1,26,1,20,1,30,1,35,1
1287,12,1,23,1,11,1,-17,1,1,1,17,1,13,1,24,1,20,1,15,1,25,1,30,1
1288,11,1,21,1,10,1,-16,1,1,1,16,1,13,1,22,1,17,1,13,1,23,1,30,1
1289,10,1,21,1,11,1,-15,1,0,1,16,1,14,1,19,1,15,1,11,1,21,1,29,1
1290,9,1,18,1,9,1,-13,1,0,1,14,1,11,1,15,1,10,1,7,1,18,1,26,1
1291,8,1,16,1,8,1,-12,1,0,1,12,1,11,1,11,1,7,1,4,1,16,1,25,1
1292,6,1,10,1,4,1,-8,1,1,1,7,1,13,1,10,1,6,1,4,1,15,1,24,1
1293,3,1,5,1,2,1,-4,1,1,1,4,1,13,1,7,1,4,1,2,1,13,1,22,1
1294,2,1,3,1,1,1,-2,1,1,1,2,1,10,1,2,1,-1,1,-1,1,9,1,18,1
1295,3,1,3,1,0,1,-3,1,2,1,2,1,7,1,-1,1,-4,1,-3,1,6,1,18,1
1296,0,1,5,1,5,1,-2,1,-2,1,5,1,7,1,-3,1,-6,1,-4,1,6,1,16,1
1297,-3,1,4,1,7,1,0,1,-5,1,5,1,6,1,-4,1,-8,1,-6,1,4,1,14,1
1298,-3,1,0,1,3,1,1,1,-3,1,1,1,7,1,-6,1,-9,1,-8,1,3,1,14,1
1299,-4,1,-2,1,2,1,3,1,-3,1,0,1,7,1,-6,1,-10,1,-9,1,3,1,13,1
1300,-2,1,-2,1,0,1,2,1,-1,1,-1,1,6,1,-8,1,-12,1,-10,1,2,1,14,1
1301,-6,1,-8,1,-2,1,7,1,-2,1,-5,1,5,1,-11,1,-14,1,-12,1,0,1,11,1
1302,-10,1,-15,1,-5,1,12,1,-3,1,-10,1,5,1,-12,1,-15,1,-13,1,0,1,12,1
1303,-9,1,-14,1,-5,1,11,1,-2,1,-10,1,3,1,-15,1,-18,1,-15,1,-1,1,10,1
1304,-5,1,-7,1,-2,1,6,1,-2,1,-5,1,0,1,-17,1,-19,1,-17,1,-4,1,8,1
1305,-7,1,-10,1,-3,1,8,1,-2,1,-7,1,0,1,-17,1,-19,1,-18,1,-5,1,8,1
1306,-9,1,-14,1,-5,1,11,1,-2,1,-10,1,0,1,-18,1,-20,1,-18,1,-6,1,7,1
1307,-9,1,-12,1,-3,1,10,1,-3,1,-8,1,-2,1,-21,1,-22,1,-20,1,-8,1,6,1
1308,-6,1,-13,1,-7,1,9,1,0,1,-10,1,-2,1,-23,1,-24,1,-22,1,-9,1,5,1
1309,-5,1,-13,1,-8,1,9,1,1,1,-11,1,-1,1,-22,1,-25,1,-22,1,-9,1,6,1
1310,-11,1,-16,1,-5,1,13,1,-3,1,-11,1,-2,1,-24,1,-26,1,-22,1,-10,1,5,1
1311,-10,1,-17,1,-7,1,13,1,-2,1,-12,1,-3,1,-24,1,-27,1,-23,1,-10,1,3,1
1312,-9,1,-17,1,-8,1,13,1,-1,1,-13,1,-5,1,-25,1,-28,1,-24,1,-11,1,1,1
1313,-7,1,-15,1,-8,1,11,1,0,1,-12,1,-5,1,-26,1,-28,1,-24,1,-11,1,0,1
1314,-8,1,-15,1,-7,1,11,1,-1,1,-11,1,-6,1,-26,1,-27,1,-24,1,-10,1,0,1
1315,-13,1,-16,1,-3,1,14,1,-5,1,-10,1,-6,1,-27,1,-27,1,-22,1,-10,1,0,1
1316,-13,1,-15,1,-2,1,14,1,-6,1,-9,1,-6,1,-27,1,-27,1,-23,1,-10,1,0,1
1317,-8,1,-14,1,-6,1,11,1,-1,1,-10,1,-8,1,-27,1,-27,1,-23,1,-11,1,-2,1
1318,-7,1,-15,1,-8,1,11,1,0,1,-12,1,-9,1,-27,1,-27,1,-24,1,-12,1,-1,1
1319,-15,1,-15,1,0,1,15,1,-8,1,-8,1,-6,1,-24,1,-25,1,-20,1,-9,1,1,1
1320,-10,1,-13,1,-3,1,11,1,-4,1,-8,1,-8,1,-25,1,-26,1,-21,1,-10,1,0,1
1321,-6,1,-11,1,-5,1,8,1,-1,1,-8,1,-9,1,-26,1,-27,1,-22,1,-11,1,-1,1
1322,-8,1,-12,1,-4,1,10,1,-2,1,-8,1,-9,1,-25,1,-26,1,-20,1,-9,1,0,1
1323,-10,1,-13,1,-3,1,11,1,-4,1,-8,1,-9,1,-25,1,-25,1,-19,1,-9,1,1,1
1324,-12,1,-14,1,-2,1,13,1,-5,1,-8,1,-8,1,-25,1,-25,1,-19,1,-10,1,0,1
1325,-9,1,-16,1,-7,1,12,1,-1,1,-12,1,-7,1,-24,1,-25,1,-18,1,-10,1,0,1
1326,-6,1,-14,1,-8,1,10,1,1,1,-11,1,-8,1,-24,1,-26,1,-18,1,-11,1,-2,1
1327,-9,1,-12,1,-3,1,10,1,-3,1,-8,1,-10,1,-26,1,-29,1,-20,1,-14,1,-4,1
1328,-10,1,-8,1,2,1,9,1,-6,1,-3,1,-11,1,-28,1,-30,1,-22,1,-16,1,-6,1
1329,-8,1,-8,1,0,1,8,1,-4,1,-4,1,-10,1,-26,1,-28,1,-21,1,-15,1,-7,1
1330,-9,1,-13,1,-4,1,11,1,-3,1,-9,1,-9,1,-24,1,-26,1,-19,1,-12,1,-6,1
1331,-9,1,-14,1,-5,1,11,1,-2,1,-10,1,-10,1,-24,1,-26,1,-18,1,-12,1,-6,1
1332,-9,1,-13,1,-4,1,11,1,-3,1,-9,1,-11,1,-24,1,-26,1,-17,1,-12,1,-6,1
1333,-7,1,-14,1,-7,1,10,1,0,1,-11,1,-10,1,-22,1,-27,1,-17,1,-12,1,-7,1
1334,-5,1,-14,1,-9,1,9,1,2,1,-12,1,-10,1,-22,1,-26,1,-16,1,-12,1,-7,1
1335,-5,1,-12,1,-7,1,8,1,1,1,-10,1,-10,1,-23,1,-28,1,-16,1,-13,1,-9,1
1336,-7,1,-12,1,-5,1,9,1,-1,1,-9,1,-11,1,-23,1,-28,1,-15,1,-11,1,-8,1
1337,-8,1,-15,1,-7,1,11,1,-1,1,-11,1,-10,1,-22,1,-27,1,-14,1,-10,1,-7,1
1338,-7,1,-16,1,-9,1,11,1,1,1,-13,1,-10,1,-22,1,-27,1,-14,1,-9,1,-6,1
1339,-8,1,-16,1,-8,1,12,1,0,1,-12,1,-10,1,-21,1,-25,1,-14,1,-8,1,-5,1
1340,-10,1,-18,1,-8,1,14,1,-1,1,-13,1,-9,1,-20,1,-25,1,-13,1,-8,1,-5,1
1341,-11,1,-17,1,-6,1,14,1,-3,1,-12,1,-9,1,-20,1,-25,1,-14,1,-8,1,-5,1
1342,-11,1,-14,1,-3,1,12,1,-4,1,-9,1,-11,1,-22,1,-25,1,-15,1,-10,1,-7,1
1343,-9,1,-14,1,-5,1,11,1,-2,1,-10,1,-11,1,-21,1,-25,1,-15,1,-10,1,-7,1
1344,-9,1,-13,1,-4,1,11,1,-3,1,-9,1,-10,1,-21,1,-25,1,-16,1,-9,1,-6,1
1345,-7,1,-8,1,-1,1,7,1,-3,1,-5,1,-11,1,-22,1,-25,1,-17,1,-10,1,-8,1
1346,-3,1,-4,1,-1,1,3,1,-1,1,-3,1,-13,1,-23,1,-26,1,-18,1,-11,1,-10,1
1347,-4,1,-8,1,-4,1,6,1,0,1,-6,1,-10,1,-21,1,-24,1,-17,1,-9,1,-8,1
1348,-8,1,-14,1,-6,1,11,1,-1,1,-10,1,-9,1,-20,1,-22,1,-17,1,-8,1,-8,1
1349,-9,1,-16,1,-7,1,12,1,-1,1,-12,1,-11,1,-21,1,-24,1,-19,1,-10,1,-9,1
1350,-4,1,-18,1,-14,1,11,1,5,1,-16,1,-9,1,-19,1,-21,1,-17,1,-7,1,-6,1
1351,-4,1,-18,1,-14,1,11,1,5,1,-16,1,-8,1,-19,1,-21,1,-17,1,-6,1,-6,1
1352,-6,1,-17,1,-11,1,11,1,2,1,-14,1,-10,1,-21,1,-23,1,-18,1,-9,1,-8,1
1353,-6,1,-16,1,-10,1,11,1,2,1,-13,1,-10,1,-21,1,-24,1,-19,1,-9,1,-9,1
1354,-7,1,-11,1,-4,1,9,1,-2,1,-8,1,-9,1,-19,1,-23,1,-18,1,-7,1,-7,1
1355,-5,1,-12,1,-7,1,8,1,1,1,-10,1,-10,1,-20,1,-24,1,-20,1,-9,1,-8,1
1356,-8,1,-13,1,-5,1,10,1,-2,1,-9,1,-9,1,-19,1,-22,1,-19,1,-8,1,-7,1
1357,-6,1,-13,1,-7,1,9,1,0,1,-10,1,-10,1,-21,1,-24,1,-20,1,-10,1,-9,1
1358,-9,1,-16,1,-7,1,12,1,-1,1,-12,1,-9,1,-21,1,-23,1,-20,1,-10,1,-7,1
1359,-10,1,-19,1,-9,1,14,1,-1,1,-14,1,-7,1,-20,1,-22,1,-20,1,-8,1,-7,1
1360,-7,1,-19,1,-12,1,13,1,2,1,-16,1,-6,1,-20,1,-21,1,-19,1,-7,1,-7,1
1361,-6,1,-19,1,-13,1,12,1,3,1,-16,1,-5,1,-19,1,-21,1,-19,1,-8,1,-7,1
1362,-9,1,-17,1,-8,1,13,1,-1,1,-13,1,-5,1,-19,1,-20,1,-17,1,-7,1,-6,1
1363,-7,1,-13,1,-6,1,10,1,-1,1,-10,1,-6,1,-20,1,-22,1,-18,1,-8,1,-9,1
1364,-7,1,-15,1,-8,1,11,1,0,1,-12,1,-8,1,-22,1,-22,1,-18,1,-9,1,-12,1
1365,-7,1,-13,1,-6,1,10,1,-1,1,-10,1,-8,1,-22,1,-22,1,-17,1,-9,1,-12,1
1366,-9,1,-14,1,-5,1,11,1,-2,1,-10,1,-8,1,-22,1,-22,1,-17,1,-9,1,-13,1
1367,-13,1,-19,1,-6,1,16,1,-4,1,-13,1,-10,1,-24,1,-24,1,-18,1,-11,1,-15,1
1368,-15,1,-21,1,-6,1,18,1,-5,1,-14,1,-8,1,-23,1,-24,1,-17,1,-10,1,-14,1
1369,-14,1,-20,1,-6,1,17,1,-4,1,-13,1,-11,1,-24,1,-25,1,-19,1,-12,1,-16,1
1370,-11,1,-21,1,-10,1,16,1,-1,1,-16,1,-11,1,-26,1,-26,1,-20,1,-13,1,-19,1
1371,-10,1,-20,1,-10,1,15,1,0,1,-15,1,-11,1,-26,1,-25,1,-20,1,-13,1,-19,1
1372,-10,1,-19,1,-9,1,14,1,-1,1,-14,1,-11,1,-25,1,-24,1,-18,1,-12,1,-18,1
1373,-10,1,-19,1,-9,1,14,1,-1,1,-14,1,-11,1,-24,1,-24,1,-17,1,-11,1,-17,1
1374,-17,1,-23,1,-6,1,20,1,-6,1,-15,1,-11,1,-25,1,-24,1,-18,1,-12,1,-18,1
1375,-7,1,-23,1,-16,1,15,1,4,1,-20,1,-13,1,-28,1,-27,1,-21,1,-14,1,-21,1
1376,-10,1,-24,1,-14,1,17,1,2,1,-19,1,-11,1,-26,1,-26,1,-19,1,-13,1,-20,1
1377,-13,1,-24,1,-11,1,18,1,-1,1,-18,1,-11,1,-26,1,-25,1,-19,1,-11,1,-20,1
1378,-12,1,-24,1,-12,1,18,1,0,1,-18,1,-12,1,-26,1,-24,1,-18,1,-10,1,-20,1
1379,-12,1,-23,1,-11,1,17,1,-1,1,-17,1,-13,1,-26,1,-25,1,-18,1,-10,1,-20,1
1380,-14,1,-21,1,-7,1,17,1,-4,1,-14,1,-15,1,-29,1,-27,1,-21,1,-12,1,-22,1
1381,-13,1,-24,1,-11,1,18,1,-1,1,-18,1,-16,1,-29,1,-28,1,-22,1,-13,1,-24,1
1382,-11,1,-24,1,-13,1,17,1,1,1,-19,1,-17,1,-30,1,-29,1,-22,1,-13,1,-25,1
1383,-10,1,-23,1,-13,1,16,1,1,1,-18,1,-16,1,-29,1,-29,1,-20,1,-13,1,-25,1
1384,-16,1,-23,1,-7,1,19,1,-5,1,-15,1,-13,1,-29,1,-29,1,-19,1,-13,1,-23,1
1385,-17,1,-21,1,-4,1,19,1,-7,1,-13,1,-13,1,-29,1,-28,1,-19,1,-13,1,-23,1
1386,-12,1,-19,1,-7,1,15,1,-3,1,-13,1,-13,1,-30,1,-29,1,-20,1,-13,1,-24,1
1387,-14,1,-21,1,-7,1,17,1,-4,1,-14,1,-12,1,-31,1,-30,1,-20,1,-13,1,-25,1
1388,-13,1,-23,1,-10,1,18,1,-2,1,-17,1,-12,1,-31,1,-30,1,-18,1,-13,1,-23,1
1389,-12,1,-23,1,-11,1,17,1,-1,1,-17,1,-10,1,-29,1,-29,1,-17,1,-10,1,-20,1
1390,-16,1,-24,1,-8,1,20,1,-4,1,-16,1,-12,1,-30,1,-29,1,-19,1,-12,1,-20,1
1391,-17,1,-26,1,-9,1,21,1,-4,1,-18,1,-13,1,-30,1,-30,1,-19,1,-13,1,-20,1
1392,-16,1,-27,1,-11,1,21,1,-3,1,-19,1,-14,1,-32,1,-31,1,-20,1,-13,1,-21,1
1393,-16,1,-26,1,-10,1,21,1,-3,1,-18,1,-13,1,-32,1,-31,1,-19,1,-13,1,-20,1
1394,-17,1,-26,1,-9,1,21,1,-4,1,-18,1,-12,1,-30,1,-30,1,-18,1,-12,1,-19,1
1395,-14,1,-28,1,-14,1,21,1,0,1,-21,1,-14,1,-32,1,-31,1,-20,1,-13,1,-20,1
1396,-14,1,-26,1,-12,1,20,1,-1,1,-19,1,-15,1,-32,1,-32,1,-21,1,-15,1,-22,1
1397,-17,1,-27,1,-10,1,22,1,-4,1,-19,1,-13,1,-30,1,-31,1,-19,1,-12,1,-20,1
1398,-16,1,-28,1,-12,1,22,1,-2,1,-20,1,-13,1,-30,1,-30,1,-19,1,-11,1,-21,1
1399,-17,1,-26,1,-9,1,21,1,-4,1,-18,1,-15,1,-31,1,-31,1,-19,1,-12,1,-22,1
1400,-15,1,-26,1,-11,1,20,1,-2,1,-19,1,-16,1,-33,1,-33,1,-20,1,-14,1,-23,1
1401,-17,1,-27,1,-10,1,22,1,-4,1,-19,1,-16,1,-34,1,-33,1,-19,1,-13,1,-22,1
1402,-14,1,-26,1,-12,1,20,1,-1,1,-19,1,-16,1,-33,1,-32,1,-19,1,-12,1,-21,1
1403,-12,1,-24,1,-12,1,18,1,0,1,-18,1,-15,1,-32,1,-30,1,-18,1,-10,1,-21,1
1404,-15,1,-26,1,-11,1,20,1,-2,1,-19,1,-16,1,-33,1,-32,1,-18,1,-12,1,-23,1
1405,-16,1,-26,1,-10,1,21,1,-3,1,-18,1,-16,1,-33,1,-32,1,-18,1,-12,1,-23,1
1406,-14,1,-23,1,-9,1,18,1,-3,1,-16,1,-14,1,-31,1,-29,1,-16,1,-9,1,-20,1
1407,-9,1,-19,1,-10,1,14,1,0,1,-15,1,-12,1,-30,1,-28,1,-16,1,-8,1,-19,1
1408,-13,1,-21,1,-8,1,17,1,-3,1,-15,1,-12,1,-30,1,-28,1,-16,1,-8,1,-19,1
1409,-12,1,-21,1,-9,1,16,1,-2,1,-15,1,-12,1,-29,1,-28,1,-15,1,-8,1,-21,1
1410,-10,1,-20,1,-10,1,15,1,0,1,-15,1,-12,1,-29,1,-30,1,-15,1,-10,1,-21,1
1411,-9,1,-16,1,-7,1,12,1,-1,1,-12,1,-11,1,-28,1,-28,1,-14,1,-8,1,-20,1
1412,-10,1,-15,1,-5,1,12,1,-3,1,-10,1,-12,1,-29,1,-28,1,-14,1,-9,1,-21,1
1413,-8,1,-10,1,-2,1,9,1,-3,1,-6,1,-14,1,-32,1,-29,1,-16,1,-11,1,-22,1
1414,-6,1,-7,1,-1,1,6,1,-3,1,-4,1,-16,1,-31,1,-31,1,-18,1,-12,1,-22,1
1415,-7,1,-9,1,-2,1,8,1,-3,1,-6,1,-16,1,-30,1,-30,1,-16,1,-11,1,-22,1
1416,-8,1,-8,1,0,1,8,1,-4,1,-4,1,-15,1,-29,1,-29,1,-16,1,-10,1,-21,1
1417,-9,1,-8,1,1,1,8,1,-5,1,-4,1,-15,1,-28,1,-28,1,-16,1,-9,1,-21,1
1418,-12,1,-10,1,2,1,11,1,-7,1,-4,1,-12,1,-26,1,-26,1,-13,1,-7,1,-20,1
1419,-10,1,-7,1,3,1,8,1,-7,1,-2,1,-12,1,-26,1,-26,1,-13,1,-7,1,-19,1
1420,-3,1,-8,1,-5,1,5,1,1,1,-7,1,-16,1,-29,1,-28,1,-16,1,-10,1,-22,1
1421,-1,1,-9,1,-8,1,5,1,3,1,-9,1,-17,1,-30,1,-29,1,-15,1,-9,1,-22,1
1422,-6,1,-6,1,0,1,6,1,-3,1,-3,1,-17,1,-30,1,-28,1,-13,1,-7,1,-20,1
1423,-7,1,-4,1,3,1,5,1,-5,1,-1,1,-18,1,-30,1,-28,1,-13,1,-7,1,-19,1
1424,-10,1,-5,1,5,1,7,1,-8,1,0,1,-17,1,-28,1,-25,1,-10,1,-5,1,-17,1
1425,-8,1,-3,1,5,1,5,1,-7,1,1,1,-17,1,-27,1,-24,1,-9,1,-3,1,-15,1
1426,-2,1,1,1,3,1,0,1,-2,1,2,1,-19,1,-27,1,-24,1,-8,1,-2,1,-14,1
1427,1,1,2,1,1,1,-1,1,0,1,2,1,-20,1,-27,1,-24,1,-8,1,-2,1,-14,1
1428,0,1,-1,1,-1,1,0,1,0,1,-1,1,-21,1,-28,1,-23,1,-9,1,-3,1,-13,1
1429,1,1,-1,1,-2,1,0,1,1,1,-1,1,-21,1,-27,1,-24,1,-9,1,-3,1,-14,1
1430,0,1,-6,1,-6,1,3,1,3,1,-6,1,-21,1,-26,1,-23,1,-8,1,-2,1,-13,1
1431,0,1,-8,1,-8,1,4,1,4,1,-8,1,-23,1,-26,1,-24,1,-8,1,-2,1,-13,1
1432,3,1,-10,1,-13,1,3,1,8,1,-11,1,-25,1,-29,1,-26,1,-10,1,-4,1,-15,1
1433,2,1,-10,1,-12,1,4,1,7,1,-11,1,-25,1,-29,1,-26,1,-10,1,-5,1,-15,1
1434,0,1,-11,1,-11,1,5,1,5,1,-11,1,-24,1,-29,1,-25,1,-10,1,-4,1,-16,1
1435,2,1,-11,1,-13,1,4,1,7,1,-12,1,-23,1,-29,1,-25,1,-10,1,-5,1,-16,1
1436,3,1,-9,1,-12,1,3,1,7,1,-10,1,-21,1,-27,1,-22,1,-9,1,-4,1,-15,1
1437,3,1,-8,1,-11,1,2,1,7,1,-9,1,-21,1,-25,1,-22,1,-9,1,-3,1,-14,1
1438,1,1,-11,1,-12,1,5,1,6,1,-11,1,-23,1,-27,1,-23,1,-11,1,-3,1,-17,1
1439,-1,1,-14,1,-13,1,7,1,6,1,-14,1,-24,1,-27,1,-23,1,-12,1,-4,1,-17,1
1440,-1,1,-9,1,-8,1,5,1,3,1,-9,1,-26,1,-29,1,-25,1,-13,1,-5,1,-18,1
1441,2,1,-6,1,-8,1,2,1,5,1,-7,1,-29,1,-32,1,-26,1,-15,1,-6,1,-19,1
1442,1,1,-11,1,-12,1,5,1,6,1,-11,1,-31,1,-33,1,-27,1,-15,1,-7,1,-19,1
1443,1,1,-15,1,-16,1,7,1,8,1,-15,1,-30,1,-32,1,-26,1,-14,1,-5,1,-17,1
1444,-1,1,-16,1,-15,1,8,1,7,1,-16,1,-30,1,-32,1,-26,1,-12,1,-4,1,-16,1
1445,-2,1,-16,1,-14,1,9,1,6,1,-15,1,-30,1,-32,1,-26,1,-12,1,-4,1,-17,1
1446,-4,1,-17,1,-13,1,10,1,4,1,-15,1,-31,1,-34,1,-27,1,-13,1,-6,1,-19,1
1447,-4,1,-20,1,-16,1,12,1,6,1,-18,1,-31,1,-34,1,-29,1,-15,1,-8,1,-21,1
1448,-5,1,-21,1,-16,1,13,1,5,1,-19,1,-28,1,-33,1,-27,1,-12,1,-7,1,-22,1
1449,-5,1,-18,1,-13,1,11,1,4,1,-16,1,-26,1,-30,1,-26,1,-11,1,-6,1,-21,1
1450,-7,1,-20,1,-13,1,13,1,3,1,-17,1,-26,1,-30,1,-26,1,-11,1,-6,1,-22,1
1451,-11,1,-22,1,-11,1,16,1,0,1,-17,1,-27,1,-32,1,-27,1,-12,1,-7,1,-23,1
1452,-14,1,-23,1,-9,1,18,1,-3,1,-16,1,-26,1,-33,1,-29,1,-13,1,-8,1,-25,1
1453,-15,1,-24,1,-9,1,19,1,-3,1,-17,1,-28,1,-35,1,-31,1,-15,1,-10,1,-28,1
1454,-16,1,-27,1,-11,1,21,1,-3,1,-19,1,-28,1,-37,1,-33,1,-17,1,-11,1,-30,1
1455,-15,1,-26,1,-11,1,20,1,-2,1,-19,1,-28,1,-37,1,-32,1,-17,1,-11,1,-29,1
1456,-16,1,-27,1,-11,1,21,1,-3,1,-19,1,-32,1,-39,1,-34,1,-19,1,-12,1,-30,1
1457,-15,1,-25,1,-10,1,20,1,-3,1,-18,1,-33,1,-40,1,-35,1,-20,1,-12,1,-32,1
1458,-15,1,-22,1,-7,1,18,1,-4,1,-15,1,-34,1,-40,1,-37,1,-20,1,-13,1,-33,1
1459,-14,1,-23,1,-9,1,18,1,-3,1,-16,1,-34,1,-41,1,-36,1,-20,1,-14,1,-34,1
1460,-14,1,-25,1,-11,1,19,1,-2,1,-18,1,-34,1,-41,1,-36,1,-20,1,-13,1,-33,1
1461,-12,1,-23,1,-11,1,17,1,-1,1,-17,1,-34,1,-43,1,-37,1,-21,1,-13,1,-33,1
1462,-14,1,-24,1,-10,1,19,1,-2,1,-17,1,-34,1,-43,1,-37,1,-21,1,-14,1,-34,1
1463,-15,1,-25,1,-10,1,20,1,-3,1,-18,1,-35,1,-42,1,-38,1,-21,1,-15,1,-34,1
1464,-15,1,-27,1,-12,1,21,1,-2,1,-20,1,-36,1,-43,1,-38,1,-23,1,-16,1,-35,1
1465,-17,1,-28,1,-11,1,22,1,-3,1,-20,1,-36,1,-43,1,-39,1,-23,1,-17,1,-34,1
1466,-18,1,-28,1,-10,1,23,1,-4,1,-19,1,-36,1,-43,1,-39,1,-24,1,-17,1,-34,1
1467,-18,1,-27,1,-9,1,22,1,-5,1,-18,1,-34,1,-44,1,-39,1,-25,1,-17,1,-35,1
1468,-17,1,-25,1,-8,1,21,1,-5,1,-17,1,-34,1,-43,1,-39,1,-23,1,-18,1,-36,1
1469,-18,1,-25,1,-7,1,21,1,-6,1,-16,1,-35,1,-43,1,-38,1,-23,1,-18,1,-36,1
1470,-18,1,-27,1,-9,1,22,1,-5,1,-18,1,-35,1,-43,1,-39,1,-23,1,-18,1,-36,1
1471,-17,1,-28,1,-11,1,22,1,-3,1,-20,1,-34,1,-43,1,-38,1,-22,1,-17,1,-36,1
1472,-19,1,-31,1,-12,1,25,1,-4,1,-22,1,-35,1,-43,1,-38,1,-22,1,-17,1,-36,1
1473,-19,1,-30,1,-11,1,24,1,-4,1,-21,1,-33,1,-41,1,-37,1,-21,1,-16,1,-36,1
1474,-17,1,-28,1,-11,1,22,1,-3,1,-20,1,-34,1,-42,1,-38,1,-22,1,-18,1,-37,1
1475,-20,1,-25,1,-5,1,22,1,-8,1,-15,1,-35,1,-43,1,-38,1,-22,1,-19,1,-36,1
1476,-24,1,-25,1,-1,1,24,1,-12,1,-13,1,-34,1,-42,1,-38,1,-22,1,-18,1,-36,1
1477,-19,1,-22,1,-3,1,20,1,-8,1,-13,1,-37,1,-45,1,-41,1,-25,1,-20,1,-38,1
1478,-21,1,-27,1,-6,1,24,1,-8,1,-17,1,-35,1,-42,1,-38,1,-22,1,-18,1,-35,1
1479,-22,1,-33,1,-11,1,27,1,-6,1,-22,1,-32,1,-40,1,-36,1,-19,1,-16,1,-33,1
1480,-20,1,-31,1,-11,1,25,1,-5,1,-21,1,-33,1,-40,1,-36,1,-19,1,-17,1,-33,1
1481,-19,1,-29,1,-10,1,24,1,-5,1,-20,1,-35,1,-42,1,-37,1,-22,1,-19,1,-34,1
1482,-22,1,-26,1,-4,1,24,1,-9,1,-15,1,-35,1,-41,1,-37,1,-21,1,-19,1,-34,1
1483,-21,1,-26,1,-5,1,23,1,-8,1,-16,1,-36,1,-42,1,-38,1,-23,1,-22,1,-37,1
1484,-20,1,-26,1,-6,1,23,1,-7,1,-16,1,-34,1,-41,1,-38,1,-23,1,-22,1,-37,1
1485,-22,1,-28,1,-6,1,25,1,-8,1,-17,1,-27,1,-36,1,-33,1,-18,1,-17,1,-32,1
1486,-24,1,-30,1,-6,1,27,1,-9,1,-18,1,-21,1,-32,1,-32,1,-17,1,-17,1,-33,1
1487,-21,1,-28,1,-7,1,24,1,-7,1,-18,1,-15,1,-26,1,-30,1,-17,1,-17,1,-33,1
1488,-19,1,-25,1,-6,1,22,1,-7,1,-16,1,-11,1,-20,1,-24,1,-11,1,-12,1,-29,1
1489,-18,1,-25,1,-7,1,21,1,-6,1,-16,1,-8,1,-11,1,-19,1,-7,1,-8,1,-28,1
1490,-13,1,-24,1,-11,1,18,1,-1,1,-18,1,-4,1,2,1,-10,1,-3,1,-6,1,-26,1
1491,-5,1,-22,1,-17,1,13,1,6,1,-20,1,6,1,24,1,4,1,5,1,0,1,-22,1
1492,0,1,-15,1,-15,1,7,1,7,1,-15,1,18,1,46,1,23,1,20,1,10,1,-15,1
1493,10,1,-3,1,-13,1,-3,1,11,1,-8,1,24,1,70,1,48,1,39,1,26,1,-3,1
1494,22,1,7,1,-15,1,-14,1,19,1,-4,1,25,1,97,1,76,1,60,1,42,1,8,1
1495,35,1,24,1,-11,1,-29,1,23,1,7,1,17,1,119,1,104,1,84,1,61,1,22,1
1496,56,1,43,1,-13,1,-49,1,35,1,15,1,-3,1,140,1,140,1,113,1,86,1,41,1
1497,76,1,60,1,-16,1,-68,1,46,1,22,1,-27,1,155,1,172,1,143,1,112,1,61,1
1498,88,1,81,1,-7,1,-84,1,48,1,37,1,-62,1,154,1,197,1,170,1,138,1,85,1
1499,104,1,108,1,4,1,-106,1,50,1,56,1,-108,1,129,1,206,1,190,1,161,1,108,1
1500,108,1,123,1,15,1,-115,1,47,1,69,1,-144,1,106,1,210,1,201,1,173,1,122,1
1501,105,1,126,1,21,1,-115,1,42,1,74,1,-163,1,88,1,211,1,205,1,176,1,125,1
1502,94,1,110,1,16,1,-102,1,39,1,63,1,-166,1,70,1,197,1,190,1,161,1,111,1
1503,78,1,86,1,8,1,-82,1,35,1,47,1,-161,1,46,1,166,1,156,1,129,1,84,1
1504,61,1,69,1,8,1,-65,1,27,1,39,1,-163,1,3,1,113,1,112,1,97,1,62,1
1505,38,1,56,1,18,1,-47,1,10,1,37,1,-162,1,-43,1,58,1,70,1,66,1,43,1
1506,16,1,38,1,22,1,-27,1,-3,1,30,1,-161,1,-90,1,4,1,31,1,36,1,24,1
1507,-1,1,21,1,22,1,-10,1,-11,1,21,1,-161,1,-139,1,-49,1,-7,1,8,1,5,1
1508,-20,1,7,1,27,1,6,1,-23,1,17,1,-163,1,-195,1,-103,1,-40,1,-16,1,-12,1
1509,-33,1,-11,1,22,1,22,1,-28,1,5,1,-170,1,-234,1,-143,1,-68,1,-37,1,-27,1
1510,-45,1,-23,1,22,1,34,1,-34,1,-1,1,-172,1,-253,1,-167,1,-86,1,-52,1,-40,1
1511,-44,1,-27,1,17,1,35,1,-31,1,-5,1,-165,1,-246,1,-169,1,-91,1,-58,1,-48,1
1512,-46,1,-34,1,12,1,40,1,-29,1,-11,1,-159,1,-233,1,-165,1,-93,1,-64,1,-55,1
1513,-54,1,-37,1,17,1,45,1,-36,1,-10,1,-152,1,-224,1,-160,1,-93,1,-66,1,-57,1
1514,-56,1,-39,1,17,1,47,1,-37,1,-11,1,-144,1,-213,1,-155,1,-93,1,-67,1,-60,1
1515,-58,1,-45,1,13,1,51,1,-36,1,-16,1,-134,1,-197,1,-148,1,-92,1,-68,1,-63,1
1516,-58,1,-48,1,10,1,53,1,-34,1,-19,1,-119,1,-177,1,-138,1,-88,1,-69,1,-64,1
1517,-53,1,-39,1,14,1,46,1,-34,1,-13,1,-103,1,-156,1,-123,1,-81,1,-63,1,-61,1
1518,-47,1,-31,1,16,1,39,1,-32,1,-8,1,-89,1,-139,1,-108,1,-69,1,-54,1,-55,1
1519,-45,1,-27,1,18,1,36,1,-32,1,-5,1,-70,1,-119,1,-92,1,-58,1,-44,1,-48,1
1520,-42,1,-24,1,18,1,33,1,-30,1,-3,1,-53,1,-102,1,-80,1,-48,1,-38,1,-43,1
1521,-32,1,-18,1,14,1,25,1,-23,1,-2,1,-40,1,-85,1,-67,1,-40,1,-32,1,-39,1
1522,-26,1,-15,1,11,1,20,1,-19,1,-2,1,-24,1,-68,1,-55,1,-31,1,-25,1,-34,1
1523,-23,1,-15,1,8,1,19,1,-16,1,-4,1,-11,1,-54,1,-45,1,-24,1,-19,1,-31,1
1524,-20,1,-16,1,4,1,18,1,-12,1,-6,1,-3,1,-46,1,-40,1,-20,1,-16,1,-29,1
1525,-21,1,-18,1,3,1,19,1,-12,1,-8,1,2,1,-39,1,-37,1,-17,1,-15,1,-29,1
1526,-18,1,-20,1,-2,1,19,1,-8,1,-11,1,9,1,-32,1,-31,1,-14,1,-14,1,-29,1
1527,-16,1,-22,1,-6,1,19,1,-5,1,-14,1,14,1,-26,1,-29,1,-14,1,-14,1,-29,1
1528,-14,1,-21,1,-7,1,17,1,-4,1,-14,1,17,1,-24,1,-29,1,-14,1,-14,1,-30,1
1529,-12,1,-17,1,-5,1,14,1,-4,1,-11,1,18,1,-23,1,-29,1,-14,1,-15,1,-31,1
1530,-13,1,-16,1,-3,1,14,1,-5,1,-10,1,19,1,-21,1,-29,1,-16,1,-14,1,-29,1
1531,-12,1,-15,1,-3,1,13,1,-5,1,-9,1,19,1,-20,1,-29,1,-15,1,-15,1,-30,1
1532,-7,1,-16,1,-9,1,11,1,1,1,-13,1,19,1,-20,1,-29,1,-15,1,-15,1,-30,1
1533,-8,1,-19,1,-11,1,13,1,1,1,-15,1,21,1,-18,1,-27,1,-14,1,-14,1,-29,1
1534,-8,1,-19,1,-11,1,13,1,1,1,-15,1,23,1,-14,1,-25,1,-12,1,-11,1,-27,1
1535,-9,1,-17,1,-8,1,13,1,-1,1,-13,1,24,1,-12,1,-24,1,-11,1,-10,1,-27,1
1536,-6,1,-17,1,-11,1,11,1,2,1,-14,1,26,1,-11,1,-22,1,-11,1,-9,1,-27,1
1537,-5,1,-18,1,-13,1,11,1,4,1,-16,1,26,1,-10,1,-21,1,-10,1,-8,1,-26,1
1538,-11,1,-15,1,-4,1,13,1,-4,1,-10,1,29,1,-7,1,-20,1,-10,1,-7,1,-25,1
1539,-12,1,-12,1,0,1,12,1,-6,1,-6,1,29,1,-7,1,-19,1,-9,1,-6,1,-25,1
1540,-9,1,-13,1,-4,1,11,1,-3,1,-9,1,28,1,-6,1,-19,1,-10,1,-7,1,-26,1
1541,-5,1,-9,1,-4,1,7,1,-1,1,-7,1,25,1,-7,1,-22,1,-13,1,-9,1,-28,1
1542,-9,1,-7,1,2,1,8,1,-6,1,-3,1,27,1,-6,1,-20,1,-11,1,-8,1,-27,1
1543,-9,1,-13,1,-4,1,11,1,-3,1,-9,1,29,1,-4,1,-17,1,-10,1,-5,1,-27,1
1544,-6,1,-19,1,-13,1,12,1,3,1,-16,1,30,1,-2,1,-15,1,-8,1,-3,1,-25,1
1545,-2,1,-20,1,-18,1,11,1,8,1,-19,1,32,1,0,1,-14,1,-7,1,-1,1,-24,1
1546,-2,1,-19,1,-17,1,10,1,7,1,-18,1,31,1,0,1,-14,1,-6,1,-2,1,-24,1
1547,-3,1,-14,1,-11,1,8,1,4,1,-13,1,31,1,1,1,-14,1,-5,1,-3,1,-24,1
1548,-2,1,-11,1,-9,1,6,1,3,1,-10,1,33,1,2,1,-12,1,-2,1,-1,1,-24,1
1549,-4,1,-12,1,-8,1,8,1,2,1,-10,1,34,1,5,1,-12,1,-1,1,-1,1,-23,1
1550,0,1,-9,1,-9,1,4,1,4,1,-9,1,32,1,4,1,-12,1,-1,1,-1,1,-24,1
1551,-2,1,-11,1,-9,1,6,1,3,1,-10,1,32,1,6,1,-11,1,0,1,-1,1,-23,1
1552,-1,1,-12,1,-11,1,6,1,5,1,-12,1,32,1,7,1,-9,1,1,1,-1,1,-23,1
1553,-1,1,-9,1,-8,1,5,1,3,1,-9,1,32,1,7,1,-9,1,2,1,-2,1,-24,1
1554,-2,1,-7,1,-5,1,4,1,1,1,-6,1,33,1,7,1,-8,1,4,1,-1,1,-23,1
1555,0,1,-7,1,-7,1,3,1,3,1,-7,1,34,1,8,1,-8,1,5,1,-1,1,-24,1
1556,0,1,-10,1,-10,1,5,1,5,1,-10,1,34,1,9,1,-7,1,7,1,0,1,-23,1
1557,0,1,-10,1,-10,1,5,1,5,1,-10,1,36,1,11,1,-4,1,8,1,1,1,-22,1
1558,-1,1,-11,1,-10,1,6,1,4,1,-11,1,37,1,12,1,-3,1,9,1,2,1,-21,1
1559,-1,1,-11,1,-10,1,6,1,4,1,-11,1,38,1,14,1,-2,1,10,1,2,1,-22,1
1560,0,1,-7,1,-7,1,3,1,3,1,-7,1,38,1,14,1,-2,1,10,1,2,1,-23,1
1561,1,1,-6,1,-7,1,2,1,4,1,-6,1,37,1,14,1,-2,1,9,1,2,1,-24,1
1562,0,1,-3,1,-3,1,1,1,1,1,-3,1,37,1,16,1,0,1,10,1,3,1,-22,1
1563,1,1,-4,1,-5,1,1,1,3,1,-4,1,38,1,18,1,0,1,11,1,4,1,-20,1
1564,2,1,-5,1,-7,1,1,1,4,1,-6,1,38,1,19,1,1,1,11,1,5,1,-19,1
1565,4,1,-4,1,-8,1,0,1,6,1,-6,1,38,1,20,1,2,1,11,1,5,1,-18,1
1566,2,1,-3,1,-5,1,0,1,3,1,-4,1,38,1,22,1,3,1,12,1,7,1,-18,1
1567,6,1,-2,1,-8,1,-2,1,7,1,-5,1,38,1,22,1,4,1,11,1,6,1,-18,1
1568,8,1,0,1,-8,1,-4,1,8,1,-4,1,38,1,25,1,5,1,11,1,8,1,-15,1
1569,7,1,0,1,-7,1,-3,1,7,1,-3,1,40,1,27,1,7,1,13,1,10,1,-15,1
1570,7,1,-1,1,-8,1,-3,1,7,1,-4,1,41,1,29,1,8,1,14,1,11,1,-15,1
1571,5,1,-1,1,-6,1,-2,1,5,1,-3,1,43,1,31,1,9,1,15,1,12,1,-13,1
1572,5,1,-1,1,-6,1,-2,1,5,1,-3,1,44,1,33,1,11,1,16,1,13,1,-12,1
1573,7,1,1,1,-6,1,-4,1,7,1,-2,1,44,1,36,1,12,1,17,1,14,1,-10,1
1574,8,1,2,1,-6,1,-5,1,7,1,-2,1,45,1,37,1,12,1,17,1,15,1,-10,1
1575,7,1,2,1,-5,1,-4,1,6,1,-1,1,47,1,41,1,16,1,21,1,17,1,-7,1
1576,12,1,3,1,-9,1,-7,1,11,1,-3,1,45,1,42,1,16,1,20,1,17,1,-7,1
1577,9,1,3,1,-6,1,-6,1,8,1,-1,1,46,1,44,1,19,1,24,1,20,1,-5,1
1578,12,1,3,1,-9,1,-7,1,11,1,-3,1,45,1,45,1,19,1,23,1,19,1,-5,1
1579,15,1,0,1,-15,1,-7,1,15,1,-7,1,46,1,48,1,21,1,25,1,20,1,-3,1
1580,17,1,2,1,-15,1,-9,1,16,1,-6,1,47,1,50,1,24,1,27,1,21,1,-2,1
1581,15,1,4,1,-11,1,-9,1,13,1,-3,1,49,1,54,1,27,1,31,1,24,1,0,1
1582,15,1,3,1,-12,1,-9,1,14,1,-4,1,51,1,56,1,29,1,33,1,25,1,0,1
1583,17,1,6,1,-11,1,-11,1,14,1,-2,1,50,1,57,1,29,1,35,1,25,1,-2,1
1584,18,1,14,1,-4,1,-16,1,11,1,5,1,48,1,58,1,30,1,36,1,23,1,-2,1
1585,20,1,19,1,-1,1,-19,1,11,1,9,1,46,1,59,1,31,1,37,1,23,1,-1,1
1586,20,1,18,1,-2,1,-19,1,11,1,8,1,49,1,63,1,36,1,41,1,27,1,1,1
1587,22,1,17,1,-5,1,-19,1,14,1,6,1,50,1,66,1,38,1,44,1,29,1,2,1
1588,23,1,16,1,-7,1,-19,1,15,1,5,1,50,1,67,1,40,1,45,1,30,1,2,1
1589,26,1,18,1,-8,1,-22,1,17,1,5,1,51,1,70,1,44,1,47,1,32,1,4,1
1590,27,1,20,1,-7,1,-23,1,17,1,7,1,50,1,71,1,45,1,49,1,32,1,4,1
1591,26,1,20,1,-6,1,-23,1,16,1,7,1,50,1,74,1,48,1,51,1,34,1,6,1
1592,24,1,17,1,-7,1,-20,1,16,1,5,1,52,1,78,1,53,1,55,1,37,1,8,1
1593,26,1,15,1,-11,1,-20,1,19,1,2,1,54,1,81,1,56,1,56,1,39,1,9,1
1594,25,1,19,1,-6,1,-22,1,16,1,7,1,52,1,81,1,58,1,56,1,39,1,9,1
1595,25,1,25,1,0,1,-25,1,13,1,13,1,52,1,82,1,60,1,56,1,39,1,9,1
1596,27,1,25,1,-2,1,-26,1,15,1,12,1,52,1,85,1,62,1,57,1,42,1,12,1
1597,31,1,21,1,-10,1,-26,1,21,1,6,1,51,1,87,1,64,1,58,1,42,1,12,1
1598,26,1,23,1,-3,1,-24,1,15,1,10,1,52,1,88,1,66,1,59,1,43,1,14,1
1599,28,1,23,1,-5,1,-25,1,17,1,9,1,50,1,88,1,66,1,59,1,44,1,14,1
1600,27,1,22,1,-5,1,-24,1,16,1,9,1,51,1,90,1,68,1,59,1,46,1,15,1
1601,28,1,26,1,-2,1,-27,1,15,1,12,1,50,1,90,1,69,1,59,1,47,1,17,1
1602,29,1,28,1,-1,1,-28,1,15,1,14,1,50,1,90,1,70,1,58,1,46,1,18,1
1603,26,1,27,1,1,1,-26,1,13,1,14,1,50,1,92,1,72,1,59,1,48,1,19,1
1604,28,1,27,1,-1,1,-27,1,15,1,13,1,49,1,91,1,72,1,60,1,49,1,19,1
1605,29,1,28,1,-1,1,-28,1,15,1,14,1,49,1,91,1,73,1,60,1,49,1,19,1
1606,29,1,30,1,1,1,-29,1,14,1,16,1,48,1,90,1,72,1,60,1,49,1,19,1
1607,29,1,34,1,5,1,-31,1,12,1,20,1,48,1,90,1,73,1,60,1,50,1,21,1
1608,32,1,32,1,0,1,-32,1,16,1,16,1,46,1,88,1,71,1,58,1,49,1,20,1
1609,29,1,28,1,-1,1,-28,1,15,1,14,1,46,1,88,1,71,1,59,1,49,1,21,1
1610,29,1,30,1,1,1,-29,1,14,1,16,1,46,1,89,1,72,1,59,1,51,1,22,1
1611,32,1,32,1,0,1,-32,1,16,1,16,1,45,1,89,1,70,1,60,1,52,1,23,1
1612,33,1,34,1,1,1,-33,1,16,1,18,1,44,1,88,1,70,1,60,1,53,1,23,1
1613,33,1,36,1,3,1,-34,1,15,1,20,1,42,1,86,1,68,1,60,1,51,1,23,1
1614,32,1,36,1,4,1,-34,1,14,1,20,1,41,1,85,1,68,1,60,1,52,1,24,1
1615,29,1,35,1,6,1,-32,1,12,1,21,1,41,1,85,1,68,1,60,1,52,1,25,1
1616,28,1,35,1,7,1,-31,1,11,1,21,1,43,1,85,1,68,1,59,1,53,1,25,1
1617,29,1,35,1,6,1,-32,1,12,1,21,1,40,1,82,1,66,1,59,1,53,1,24,1
1618,28,1,30,1,2,1,-29,1,13,1,16,1,37,1,78,1,63,1,57,1,50,1,22,1
1619,25,1,30,1,5,1,-27,1,10,1,18,1,38,1,78,1,64,1,58,1,52,1,25,1
1620,25,1,33,1,8,1,-29,1,9,1,21,1,38,1,77,1,64,1,58,1,52,1,25,1
1621,27,1,34,1,7,1,-30,1,10,1,21,1,36,1,73,1,60,1,56,1,51,1,23,1
1622,28,1,33,1,5,1,-30,1,12,1,19,1,37,1,70,1,58,1,55,1,50,1,22,1
1623,23,1,31,1,8,1,-27,1,8,1,20,1,36,1,69,1,57,1,55,1,49,1,21,1
1624,24,1,31,1,7,1,-27,1,9,1,19,1,35,1,66,1,54,1,53,1,48,1,20,1
1625,21,1,28,1,7,1,-24,1,7,1,18,1,36,1,64,1,53,1,53,1,48,1,19,1
1626,18,1,27,1,9,1,-22,1,5,1,18,1,37,1,62,1,50,1,53,1,46,1,17,1
1627,20,1,32,1,12,1,-26,1,4,1,22,1,34,1,56,1,45,1,48,1,43,1,13,1
1628,21,1,32,1,11,1,-26,1,5,1,22,1,32,1,50,1,40,1,44,1,39,1,9,1
1629,19,1,32,1,13,1,-25,1,3,1,23,1,32,1,47,1,38,1,41,1,37,1,8,1
1630,15,1,30,1,15,1,-22,1,0,1,23,1,31,1,42,1,34,1,38,1,34,1,5,1
1631,10,1,26,1,16,1,-18,1,-3,1,21,1,32,1,39,1,32,1,37,1,34,1,5,1
1632,10,1,21,1,11,1,-15,1,0,1,16,1,32,1,37,1,31,1,37,1,32,1,3,1
1633,7,1,19,1,12,1,-13,1,-2,1,16,1,32,1,34,1,28,1,35,1,31,1,2,1
1634,9,1,19,1,10,1,-14,1,0,1,15,1,34,1,32,1,25,1,34,1,29,1,0,1
1635,10,1,16,1,6,1,-13,1,2,1,11,1,32,1,27,1,21,1,30,1,25,1,-3,1
1636,6,1,13,1,7,1,-9,1,0,1,10,1,30,1,22,1,17,1,26,1,22,1,-5,1
1637,6,1,14,1,8,1,-10,1,-1,1,11,1,28,1,17,1,11,1,21,1,18,1,-9,1
1638,1,1,15,1,14,1,-8,1,-6,1,15,1,29,1,15,1,10,1,20,1,17,1,-9,1
1639,-4,1,8,1,12,1,-2,1,-8,1,10,1,31,1,14,1,9,1,20,1,17,1,-9,1
1640,-4,1,0,1,4,1,2,1,-4,1,2,1,31,1,12,1,7,1,19,1,16,1,-11,1
1641,-4,1,-4,1,0,1,4,1,-2,1,-2,1,30,1,8,1,3,1,16,1,14,1,-13,1
1642,-4,1,-4,1,0,1,4,1,-2,1,-2,1,28,1,4,1,0,1,12,1,10,1,-16,1
1643,-5,1,-4,1,1,1,4,1,-3,1,-2,1,27,1,1,1,-2,1,9,1,8,1,-18,1
1644,-3,1,-5,1,-2,1,4,1,-1,1,-4,1,27,1,-2,1,-6,1,5,1,5,1,-21,1
1645,-5,1,-9,1,-4,1,7,1,-1,1,-7,1,27,1,-4,1,-8,1,4,1,3,1,-22,1
1646,-8,1,-11,1,-3,1,9,1,-3,1,-7,1,26,1,-6,1,-9,1,2,1,2,1,-23,1
1647,-11,1,-16,1,-5,1,13,1,-3,1,-11,1,26,1,-8,1,-12,1,0,1,1,1,-25,1
1648,-13,1,-18,1,-5,1,15,1,-4,1,-12,1,26,1,-10,1,-14,1,-1,1,0,1,-24,1
1649,-12,1,-15,1,-3,1,13,1,-5,1,-9,1,25,1,-11,1,-16,1,-3,1,-1,1,-25,1
1650,-8,1,-15,1,-7,1,11,1,-1,1,-11,1,25,1,-13,1,-16,1,-4,1,-2,1,-26,1
1651,-7,1,-16,1,-9,1,11,1,1,1,-13,1,25,1,-15,1,-18,1,-5,1,-2,1,-27,1
1652,-10,1,-18,1,-8,1,14,1,-1,1,-13,1,24,1,-17,1,-20,1,-7,1,-3,1,-29,1
1653,-13,1,-19,1,-6,1,16,1,-4,1,-13,1,23,1,-18,1,-21,1,-8,1,-4,1,-30,1
1654,-11,1,-18,1,-7,1,14,1,-2,1,-13,1,23,1,-20,1,-24,1,-10,1,-6,1,-31,1
1655,-12,1,-22,1,-10,1,17,1,-1,1,-16,1,23,1,-21,1,-24,1,-10,1,-6,1,-30,1
1656,-14,1,-24,1,-10,1,19,1,-2,1,-17,1,23,1,-22,1,-24,1,-10,1,-7,1,-30,1
1657,-15,1,-21,1,-6,1,18,1,-5,1,-14,1,22,1,-22,1,-26,1,-12,1,-7,1,-31,1
1658,-12,1,-15,1,-3,1,13,1,-5,1,-9,1,21,1,-23,1,-27,1,-13,1,-9,1,-33,1
1659,-9,1,-13,1,-4,1,11,1,-3,1,-9,1,22,1,-23,1,-27,1,-13,1,-9,1,-33,1
1660,-11,1,-16,1,-5,1,13,1,-3,1,-11,1,22,1,-24,1,-28,1,-14,1,-10,1,-33,1
1661,-14,1,-18,1,-4,1,16,1,-5,1,-11,1,20,1,-25,1,-30,1,-16,1,-11,1,-35,1
1662,-14,1,-16,1,-2,1,15,1,-6,1,-9,1,19,1,-27,1,-31,1,-17,1,-13,1,-37,1
1663,-14,1,-15,1,-1,1,14,1,-7,1,-8,1,20,1,-27,1,-32,1,-17,1,-12,1,-38,1
1664,-10,1,-12,1,-2,1,11,1,-4,1,-7,1,19,1,-27,1,-31,1,-18,1,-13,1,-39,1
1665,-9,1,-13,1,-4,1,11,1,-3,1,-9,1,21,1,-25,1,-31,1,-17,1,-12,1,-39,1
1666,-11,1,-16,1,-5,1,13,1,-3,1,-11,1,22,1,-25,1,-29,1,-15,1,-10,1,-37,1
1667,-10,1,-17,1,-7,1,13,1,-2,1,-12,1,21,1,-25,1,-31,1,-15,1,-11,1,-38,1
1668,-10,1,-15,1,-5,1,12,1,-3,1,-10,1,20,1,-25,1,-29,1,-15,1,-11,1,-39,1
1669,-11,1,-13,1,-2,1,12,1,-5,1,-8,1,19,1,-26,1,-29,1,-15,1,-11,1,-39,1
1670,-11,1,-12,1,-1,1,11,1,-5,1,-7,1,19,1,-26,1,-29,1,-14,1,-10,1,-40,1
1671,-11,1,-9,1,2,1,10,1,-7,1,-4,1,19,1,-25,1,-30,1,-14,1,-11,1,-41,1
1672,-14,1,-9,1,5,1,11,1,-10,1,-2,1,18,1,-25,1,-29,1,-14,1,-11,1,-41,1
1673,-13,1,-10,1,3,1,11,1,-8,1,-4,1,16,1,-27,1,-31,1,-16,1,-14,1,-42,1
1674,-9,1,-8,1,1,1,8,1,-5,1,-4,1,16,1,-27,1,-30,1,-15,1,-14,1,-43,1
1675,-8,1,-6,1,2,1,7,1,-5,1,-2,1,18,1,-25,1,-29,1,-15,1,-14,1,-43,1
1676,-11,1,-8,1,3,1,9,1,-7,1,-3,1,18,1,-25,1,-28,1,-14,1,-13,1,-42,1
1677,-12,1,-8,1,4,1,10,1,-8,1,-2,1,18,1,-26,1,-29,1,-14,1,-14,1,-43,1
1678,-11,1,-8,1,3,1,9,1,-7,1,-3,1,18,1,-24,1,-29,1,-12,1,-12,1,-42,1
1679,-11,1,-6,1,5,1,8,1,-8,1,-1,1,18,1,-24,1,-30,1,-13,1,-13,1,-42,1
1680,-11,1,-5,1,6,1,8,1,-9,1,0,1,17,1,-26,1,-31,1,-14,1,-13,1,-42,1
1681,-9,1,-5,1,4,1,7,1,-7,1,-1,1,19,1,-25,1,-30,1,-12,1,-11,1,-42,1
1682,-16,1,-5,1,11,1,10,1,-14,1,3,1,21,1,-22,1,-28,1,-9,1,-9,1,-40,1
1683,-15,1,-6,1,9,1,10,1,-12,1,1,1,19,1,-24,1,-30,1,-10,1,-12,1,-42,1
1684,-6,1,-7,1,-1,1,6,1,-3,1,-4,1,17,1,-27,1,-33,1,-13,1,-15,1,-46,1
1685,-8,1,-9,1,-1,1,8,1,-4,1,-5,1,18,1,-24,1,-32,1,-13,1,-14,1,-45,1
1686,-10,1,-9,1,1,1,9,1,-6,1,-4,1,17,1,-24,1,-32,1,-13,1,-14,1,-44,1
1687,-10,1,-6,1,4,1,8,1,-7,1,-1,1,17,1,-25,1,-33,1,-14,1,-16,1,-44,1
1688,-12,1,-6,1,6,1,9,1,-9,1,0,1,17,1,-25,1,-33,1,-14,1,-14,1,-43,1
1689,-13,1,-11,1,2,1,12,1,-8,1,-5,1,18,1,-24,1,-32,1,-13,1,-13,1,-42,1
1690,-13,1,-12,1,1,1,12,1,-7,1,-6,1,18,1,-23,1,-31,1,-13,1,-13,1,-43,1
1691,-13,1,-11,1,2,1,12,1,-8,1,-5,1,18,1,-23,1,-31,1,-13,1,-13,1,-44,1
1692,-13,1,-11,1,2,1,12,1,-8,1,-5,1,17,1,-24,1,-32,1,-15,1,-14,1,-44,1
1693,-15,1,-10,1,5,1,12,1,-10,1,-3,1,17,1,-24,1,-32,1,-15,1,-13,1,-44,1
1694,-15,1,-11,1,4,1,13,1,-10,1,-4,1,18,1,-23,1,-31,1,-14,1,-12,1,-43,1
1695,-13,1,-13,1,0,1,13,1,-7,1,-7,1,18,1,-22,1,-30,1,-13,1,-11,1,-42,1
1696,-14,1,-12,1,2,1,13,1,-8,1,-5,1,19,1,-22,1,-30,1,-14,1,-11,1,-42,1
1697,-13,1,-12,1,1,1,12,1,-7,1,-6,1,16,1,-23,1,-31,1,-15,1,-12,1,-43,1
1698,-14,1,-12,1,2,1,13,1,-8,1,-5,1,16,1,-24,1,-32,1,-17,1,-12,1,-43,1
1699,-14,1,-11,1,3,1,12,1,-9,1,-4,1,16,1,-24,1,-33,1,-18,1,-12,1,-45,1
1700,-15,1,-10,1,5,1,12,1,-10,1,-3,1,15,1,-25,1,-34,1,-20,1,-13,1,-45,1
1701,-16,1,-10,1,6,1,13,1,-11,1,-2,1,15,1,-26,1,-32,1,-20,1,-13,1,-44,1
1702,-16,1,-11,1,5,1,13,1,-11,1,-3,1,16,1,-25,1,-31,1,-19,1,-13,1,-44,1
1703,-17,1,-12,1,5,1,14,1,-11,1,-4,1,15,1,-24,1,-31,1,-19,1,-12,1,-43,1
1704,-18,1,-16,1,2,1,17,1,-10,1,-7,1,15,1,-25,1,-31,1,-19,1,-12,1,-43,1
1705,-16,1,-17,1,-1,1,16,1,-8,1,-9,1,15,1,-24,1,-30,1,-18,1,-12,1,-43,1
1706,-19,1,-16,1,3,1,17,1,-11,1,-7,1,14,1,-24,1,-31,1,-17,1,-13,1,-44,1
1707,-19,1,-16,1,3,1,17,1,-11,1,-7,1,15,1,-24,1,-31,1,-17,1,-11,1,-44,1
1708,-18,1,-17,1,1,1,17,1,-10,1,-8,1,13,1,-26,1,-32,1,-19,1,-13,1,-45,1
1709,-21,1,-17,1,4,1,19,1,-13,1,-7,1,13,1,-25,1,-32,1,-18,1,-12,1,-45,1
1710,-21,1,-14,1,7,1,17,1,-14,1,-4,1,12,1,-27,1,-34,1,-18,1,-13,1,-46,1
1711,-21,1,-11,1,10,1,16,1,-16,1,-1,1,12,1,-28,1,-36,1,-20,1,-15,1,-48,1
1712,-21,1,-15,1,6,1,18,1,-14,1,-5,1,14,1,-27,1,-34,1,-18,1,-13,1,-47,1
1713,-20,1,-20,1,0,1,20,1,-10,1,-10,1,13,1,-28,1,-34,1,-19,1,-15,1,-49,1
1714,-20,1,-20,1,0,1,20,1,-10,1,-10,1,13,1,-28,1,-35,1,-19,1,-15,1,-49,1
1715,-22,1,-18,1,4,1,20,1,-13,1,-7,1,15,1,-26,1,-33,1,-17,1,-15,1,-51,1
1716,-25,1,-18,1,7,1,21,1,-16,1,-6,1,15,1,-27,1,-34,1,-19,1,-17,1,-52,1
1717,-24,1,-19,1,5,1,21,1,-15,1,-7,1,14,1,-28,1,-36,1,-20,1,-16,1,-53,1
1718,-21,1,-18,1,3,1,19,1,-12,1,-8,1,12,1,-30,1,-37,1,-21,1,-15,1,-52,1
1719,-20,1,-21,1,-1,1,20,1,-10,1,-11,1,12,1,-29,1,-35,1,-20,1,-13,1,-49,1
1720,-25,1,-19,1,6,1,22,1,-16,1,-7,1,13,1,-27,1,-35,1,-20,1,-15,1,-50,1
1721,-25,1,-18,1,7,1,21,1,-16,1,-6,1,12,1,-29,1,-38,1,-22,1,-17,1,-54,1
1722,-22,1,-18,1,4,1,20,1,-13,1,-7,1,12,1,-30,1,-38,1,-22,1,-16,1,-53,1
1723,-21,1,-18,1,3,1,19,1,-12,1,-8,1,13,1,-28,1,-37,1,-20,1,-14,1,-51,1
1724,-22,1,-20,1,2,1,21,1,-12,1,-9,1,12,1,-29,1,-37,1,-20,1,-13,1,-51,1
1725,-22,1,-20,1,2,1,21,1,-12,1,-9,1,13,1,-30,1,-38,1,-20,1,-13,1,-50,1
1726,-23,1,-19,1,4,1,21,1,-14,1,-8,1,14,1,-27,1,-35,1,-18,1,-11,1,-49,1
1727,-19,1,-18,1,1,1,18,1,-10,1,-9,1,14,1,-28,1,-37,1,-19,1,-12,1,-50,1
1728,-15,1,-15,1,0,1,15,1,-8,1,-8,1,14,1,-28,1,-36,1,-19,1,-11,1,-50,1
1729,-18,1,-17,1,1,1,17,1,-10,1,-8,1,14,1,-29,1,-36,1,-20,1,-12,1,-51,1
1730,-19,1,-18,1,1,1,18,1,-10,1,-9,1,13,1,-30,1,-38,1,-22,1,-13,1,-51,1
1731,-19,1,-20,1,-1,1,19,1,-9,1,-11,1,13,1,-30,1,-38,1,-21,1,-13,1,-50,1
1732,-18,1,-19,1,-1,1,18,1,-9,1,-10,1,14,1,-29,1,-37,1,-20,1,-12,1,-48,1
1733,-18,1,-18,1,0,1,18,1,-9,1,-9,1,14,1,-29,1,-38,1,-21,1,-13,1,-48,1
1734,-16,1,-14,1,2,1,15,1,-9,1,-6,1,14,1,-30,1,-37,1,-21,1,-12,1,-47,1
1735,-17,1,-16,1,1,1,16,1,-9,1,-8,1,12,1,-32,1,-40,1,-23,1,-15,1,-49,1
1736,-19,1,-19,1,0,1,19,1,-10,1,-10,1,13,1,-32,1,-40,1,-23,1,-14,1,-49,1
1737,-16,1,-18,1,-2,1,17,1,-7,1,-10,1,15,1,-30,1,-38,1,-21,1,-11,1,-46,1
1738,-17,1,-19,1,-2,1,18,1,-8,1,-11,1,16,1,-29,1,-36,1,-20,1,-9,1,-44,1
1739,-17,1,-19,1,-2,1,18,1,-8,1,-11,1,12,1,-33,1,-39,1,-23,1,-12,1,-47,1
1740,-17,1,-15,1,2,1,16,1,-10,1,-7,1,11,1,-34,1,-41,1,-25,1,-14,1,-49,1
1741,-16,1,-15,1,1,1,15,1,-9,1,-7,1,12,1,-33,1,-39,1,-23,1,-12,1,-48,1
1742,-16,1,-15,1,1,1,15,1,-9,1,-7,1,14,1,-31,1,-37,1,-20,1,-10,1,-46,1
1743,-16,1,-17,1,-1,1,16,1,-8,1,-9,1,12,1,-31,1,-39,1,-21,1,-11,1,-47,1
1744,-17,1,-18,1,-1,1,17,1,-8,1,-10,1,11,1,-33,1,-40,1,-21,1,-12,1,-47,1
1745,-16,1,-19,1,-3,1,17,1,-7,1,-11,1,10,1,-34,1,-41,1,-23,1,-14,1,-49,1
1746,-16,1,-16,1,0,1,16,1,-8,1,-8,1,11,1,-33,1,-39,1,-21,1,-11,1,-47,1
1747,-13,1,-14,1,-1,1,13,1,-6,1,-8,1,11,1,-32,1,-39,1,-20,1,-10,1,-46,1
1748,-11,1,-13,1,-2,1,12,1,-5,1,-8,1,10,1,-33,1,-40,1,-21,1,-11,1,-47,1
1749,-11,1,-13,1,-2,1,12,1,-5,1,-8,1,9,1,-34,1,-42,1,-21,1,-13,1,-48,1
1750,-12,1,-13,1,-1,1,12,1,-6,1,-7,1,11,1,-33,1,-40,1,-21,1,-12,1,-47,1
1751,-17,1,-12,1,5,1,14,1,-11,1,-4,1,13,1,-32,1,-39,1,-19,1,-10,1,-46,1
1752,-10,1,-11,1,-1,1,10,1,-5,1,-6,1,11,1,-34,1,-41,1,-20,1,-12,1,-47,1
1753,-9,1,-11,1,-2,1,10,1,-4,1,-7,1,13,1,-33,1,-40,1,-19,1,-11,1,-47,1
1754,-8,1,-10,1,-2,1,9,1,-3,1,-6,1,16,1,-30,1,-37,1,-17,1,-8,1,-45,1
1755,-7,1,-7,1,0,1,7,1,-4,1,-4,1,16,1,-28,1,-36,1,-16,1,-7,1,-44,1
1756,-6,1,-3,1,3,1,4,1,-5,1,0,1,15,1,-29,1,-37,1,-16,1,-6,1,-45,1
1757,-5,1,-1,1,4,1,3,1,-5,1,1,1,14,1,-30,1,-38,1,-18,1,-8,1,-46,1
1758,-2,1,2,1,4,1,0,1,-3,1,3,1,14,1,-31,1,-39,1,-18,1,-8,1,-48,1
1759,-3,1,1,1,4,1,1,1,-3,1,2,1,18,1,-28,1,-35,1,-15,1,-5,1,-45,1
1760,-5,1,-3,1,2,1,4,1,-4,1,-1,1,20,1,-26,1,-33,1,-13,1,-3,1,-25,1
1761,-5,1,0,1,5,1,2,1,-5,1,2,1,20,1,-27,1,-33,1,-14,1,-3,1,-6,1
1762,-3,1,3,1,6,1,0,1,-4,1,4,1,19,1,-27,1,-32,1,-12,1,-2,1,-2,1
1763,-2,1,7,1,9,1,-2,1,-5,1,8,1,18,1,-27,1,-33,1,-12,1,-3,1,-3,1
1764,-1,1,7,1,8,1,-3,1,-4,1,7,1,17,1,-28,1,-34,1,-12,1,-2,1,-3,1
1765,-3,1,0,1,3,1,1,1,-3,1,1,1,20,1,-25,1,-31,1,-8,1,0,1,-1,1
1766,-5,1,2,1,7,1,1,1,-6,1,4,1,22,1,-24,1,-30,1,-7,1,2,1,-1,1
1767,-2,1,6,1,8,1,-2,1,-5,1,7,1,20,1,-24,1,-31,1,-9,1,0,1,-5,1
1768,0,1,9,1,9,1,-4,1,-4,1,9,1,18,1,-26,1,-32,1,-10,1,0,1,-6,1
1769,1,1,7,1,6,1,-4,1,-2,1,7,1,17,1,-27,1,-33,1,-9,1,0,1,-7,1
1770,0,1,8,1,8,1,-4,1,-4,1,8,1,15,1,-26,1,-32,1,-8,1,1,1,-5,1
1771,0,1,12,1,12,1,-6,1,-6,1,12,1,12,1,-28,1,-32,1,-8,1,2,1,-4,1
