TS,I,If,II,IIf,III,IIIf,aVR,aVRf,aVL,aVLf,aVF,aVFf,V1,V1f,V2,V2f,V3,V3f,V4,V4f,V5,V5f,V6,V6f
1,5,1,-4,1,-9,1,0,1,7,1,-6,1,-13,1,-17,1,-19,1,-21,1,-15,1,-11,1
2,3,1,-3,1,-6,1,0,1,4,1,-4,1,-13,1,-17,1,-19,1,-21,1,-14,1,-10,1
3,4,1,-2,1,-6,1,-1,1,5,1,-4,1,-13,1,-17,1,-19,1,-21,1,-15,1,-11,1
4,3,1,-2,1,-5,1,0,1,4,1,-3,1,-13,1,-17,1,-19,1,-21,1,-15,1,-11,1
5,2,1,-2,1,-4,1,0,1,3,1,-3,1,-13,1,-17,1,-19,1,-21,1,-15,1,-11,1
6,1,1,-2,1,-3,1,0,1,2,1,-2,1,-13,1,-18,1,-19,1,-21,1,-15,1,-11,1
7,1,1,-2,1,-3,1,0,1,2,1,-2,1,-13,1,-18,1,-19,1,-20,1,-14,1,-11,1
8,2,1,-2,1,-4,1,0,1,3,1,-3,1,-13,1,-18,1,-19,1,-19,1,-14,1,-10,1
9,2,1,-2,1,-4,1,0,1,3,1,-3,1,-14,1,-18,1,-20,1,-19,1,-14,1,-10,1
10,3,1,-2,1,-5,1,0,1,4,1,-3,1,-14,1,-18,1,-21,1,-19,1,-15,1,-10,1
11,4,1,-2,1,-6,1,-1,1,5,1,-4,1,-14,1,-18,1,-22,1,-19,1,-15,1,-10,1
12,4,1,-2,1,-6,1,-1,1,5,1,-4,1,-14,1,-18,1,-22,1,-20,1,-15,1,-11,1
13,3,1,-2,1,-5,1,0,1,4,1,-3,1,-14,1,-17,1,-21,1,-20,1,-15,1,-11,1
14,2,1,-2,1,-4,1,0,1,3,1,-3,1,-14,1,-17,1,-21,1,-20,1,-14,1,-10,1
15,2,1,-2,1,-4,1,0,1,3,1,-3,1,-14,1,-17,1,-21,1,-20,1,-15,1,-10,1
16,4,1,-2,1,-6,1,-1,1,5,1,-4,1,-15,1,-18,1,-21,1,-20,1,-15,1,-11,1
17,5,1,-2,1,-7,1,-1,1,6,1,-4,1,-15,1,-18,1,-20,1,-20,1,-15,1,-10,1
18,4,1,-3,1,-7,1,0,1,5,1,-5,1,-14,1,-17,1,-20,1,-19,1,-14,1,-10,1
19,5,1,-3,1,-8,1,-1,1,6,1,-5,1,-14,1,-17,1,-20,1,-19,1,-14,1,-9,1
20,5,1,-3,1,-8,1,-1,1,6,1,-5,1,-14,1,-18,1,-20,1,-19,1,-14,1,-9,1
21,5,1,-3,1,-8,1,-1,1,6,1,-5,1,-14,1,-18,1,-20,1,-19,1,-15,1,-10,1
22,4,1,-3,1,-7,1,0,1,5,1,-5,1,-14,1,-18,1,-20,1,-20,1,-15,1,-10,1
23,4,1,-3,1,-7,1,0,1,5,1,-5,1,-14,1,-18,1,-20,1,-20,1,-15,1,-11,1
24,4,1,-3,1,-7,1,0,1,5,1,-5,1,-14,1,-18,1,-20,1,-20,1,-15,1,-11,1
25,5,1,-3,1,-8,1,-1,1,6,1,-5,1,-14,1,-18,1,-19,1,-20,1,-14,1,-12,1
26,4,1,-4,1,-8,1,0,1,6,1,-6,1,-15,1,-18,1,-19,1,-20,1,-14,1,-11,1
27,4,1,-4,1,-8,1,0,1,6,1,-6,1,-15,1,-17,1,-20,1,-20,1,-14,1,-11,1
28,5,1,-4,1,-9,1,0,1,7,1,-6,1,-15,1,-18,1,-20,1,-20,1,-14,1,-12,1
29,6,1,-3,1,-9,1,-1,1,7,1,-6,1,-16,1,-19,1,-21,1,-20,1,-15,1,-12,1
30,5,1,-3,1,-8,1,-1,1,6,1,-5,1,-16,1,-19,1,-21,1,-20,1,-15,1,-12,1
31,5,1,-2,1,-7,1,-1,1,6,1,-4,1,-15,1,-18,1,-21,1,-20,1,-15,1,-11,1
32,4,1,-1,1,-5,1,-1,1,4,1,-3,1,-14,1,-17,1,-20,1,-20,1,-14,1,-11,1
33,4,1,-1,1,-5,1,-1,1,4,1,-3,1,-13,1,-17,1,-20,1,-20,1,-14,1,-10,1
34,4,1,0,1,-4,1,-2,1,4,1,-2,1,-12,1,-16,1,-18,1,-20,1,-13,1,-10,1
35,3,1,0,1,-3,1,-1,1,3,1,-1,1,-11,1,-14,1,-17,1,-19,1,-13,1,-9,1
36,2,1,1,1,-1,1,-1,1,2,1,0,1,-11,1,-13,1,-17,1,-18,1,-12,1,-9,1
37,1,1,2,1,1,1,-1,1,0,1,2,1,-10,1,-13,1,-16,1,-17,1,-12,1,-9,1
38,2,1,4,1,2,1,-3,1,0,1,3,1,-9,1,-11,1,-16,1,-17,1,-12,1,-9,1
39,3,1,5,1,2,1,-4,1,1,1,4,1,-8,1,-11,1,-15,1,-16,1,-11,1,-8,1
40,4,1,6,1,2,1,-5,1,1,1,4,1,-8,1,-11,1,-15,1,-16,1,-11,1,-8,1
41,5,1,7,1,2,1,-6,1,2,1,5,1,-8,1,-11,1,-15,1,-16,1,-11,1,-7,1
42,7,1,8,1,1,1,-7,1,3,1,5,1,-8,1,-11,1,-14,1,-15,1,-11,1,-7,1
43,9,1,9,1,0,1,-9,1,5,1,5,1,-8,1,-11,1,-13,1,-14,1,-11,1,-6,1
44,10,1,11,1,1,1,-10,1,5,1,6,1,-8,1,-10,1,-12,1,-14,1,-11,1,-6,1
45,10,1,11,1,1,1,-10,1,5,1,6,1,-7,1,-9,1,-11,1,-13,1,-10,1,-6,1
46,10,1,12,1,2,1,-11,1,4,1,7,1,-7,1,-9,1,-11,1,-13,1,-10,1,-5,1
47,11,1,11,1,0,1,-11,1,6,1,6,1,-5,1,-8,1,-11,1,-13,1,-10,1,-5,1
48,10,1,11,1,1,1,-10,1,5,1,6,1,-4,1,-8,1,-12,1,-13,1,-9,1,-5,1
49,10,1,12,1,2,1,-11,1,4,1,7,1,-4,1,-8,1,-11,1,-12,1,-9,1,-4,1
50,8,1,14,1,6,1,-11,1,1,1,10,1,-4,1,-8,1,-10,1,-11,1,-8,1,-3,1
51,8,1,16,1,8,1,-12,1,0,1,12,1,-4,1,-8,1,-9,1,-9,1,-7,1,-2,1
52,8,1,17,1,9,1,-12,1,0,1,13,1,-5,1,-9,1,-9,1,-9,1,-7,1,-2,1
53,7,1,19,1,12,1,-13,1,-2,1,16,1,-7,1,-10,1,-9,1,-8,1,-5,1,-1,1
54,7,1,20,1,13,1,-13,1,-3,1,17,1,-8,1,-10,1,-9,1,-8,1,-5,1,0,1
55,9,1,21,1,12,1,-15,1,-1,1,17,1,-10,1,-11,1,-9,1,-7,1,-4,1,1,1
56,11,1,22,1,11,1,-16,1,0,1,17,1,-11,1,-12,1,-10,1,-7,1,-3,1,1,1
57,12,1,22,1,10,1,-17,1,1,1,16,1,-12,1,-13,1,-10,1,-7,1,-2,1,2,1
58,14,1,22,1,8,1,-18,1,3,1,15,1,-13,1,-13,1,-10,1,-8,1,-1,1,2,1
59,14,1,22,1,8,1,-18,1,3,1,15,1,-14,1,-15,1,-11,1,-9,1,-1,1,2,1
60,15,1,22,1,7,1,-18,1,4,1,15,1,-15,1,-16,1,-11,1,-11,1,-2,1,1,1
61,16,1,22,1,6,1,-19,1,5,1,14,1,-16,1,-17,1,-13,1,-11,1,-3,1,1,1
62,16,1,21,1,5,1,-18,1,6,1,13,1,-17,1,-17,1,-13,1,-12,1,-5,1,1,1
63,16,1,21,1,5,1,-18,1,6,1,13,1,-18,1,-17,1,-14,1,-12,1,-5,1,1,1
64,17,1,20,1,3,1,-18,1,7,1,12,1,-19,1,-18,1,-14,1,-12,1,-5,1,1,1
65,19,1,19,1,0,1,-19,1,10,1,10,1,-20,1,-18,1,-14,1,-12,1,-5,1,1,1
66,18,1,16,1,-2,1,-17,1,10,1,7,1,-20,1,-18,1,-14,1,-13,1,-5,1,1,1
67,17,1,15,1,-2,1,-16,1,10,1,7,1,-20,1,-18,1,-14,1,-13,1,-5,1,1,1
68,18,1,14,1,-4,1,-16,1,11,1,5,1,-19,1,-19,1,-14,1,-12,1,-5,1,0,1
69,18,1,14,1,-4,1,-16,1,11,1,5,1,-19,1,-18,1,-14,1,-13,1,-6,1,0,1
70,16,1,13,1,-3,1,-14,1,10,1,5,1,-18,1,-16,1,-14,1,-12,1,-6,1,0,1
71,14,1,11,1,-3,1,-12,1,9,1,4,1,-17,1,-14,1,-15,1,-12,1,-6,1,-1,1
72,12,1,10,1,-2,1,-11,1,7,1,4,1,-17,1,-13,1,-15,1,-12,1,-6,1,-1,1
73,12,1,9,1,-3,1,-10,1,8,1,3,1,-17,1,-13,1,-17,1,-13,1,-6,1,-2,1
74,12,1,7,1,-5,1,-9,1,9,1,1,1,-17,1,-15,1,-18,1,-14,1,-7,1,-3,1
75,12,1,5,1,-7,1,-8,1,10,1,-1,1,-17,1,-16,1,-18,1,-15,1,-8,1,-4,1
76,12,1,4,1,-8,1,-8,1,10,1,-2,1,-17,1,-17,1,-18,1,-16,1,-9,1,-5,1
77,11,1,3,1,-8,1,-7,1,10,1,-2,1,-16,1,-17,1,-18,1,-16,1,-10,1,-5,1
78,10,1,2,1,-8,1,-6,1,9,1,-3,1,-16,1,-18,1,-18,1,-17,1,-10,1,-5,1
79,9,1,1,1,-8,1,-5,1,9,1,-3,1,-16,1,-18,1,-19,1,-17,1,-11,1,-5,1
80,7,1,0,1,-7,1,-3,1,7,1,-3,1,-16,1,-18,1,-20,1,-18,1,-12,1,-6,1
81,6,1,1,1,-5,1,-3,1,6,1,-2,1,-16,1,-17,1,-21,1,-20,1,-13,1,-6,1
82,7,1,0,1,-7,1,-3,1,7,1,-3,1,-17,1,-18,1,-22,1,-21,1,-14,1,-7,1
83,5,1,0,1,-5,1,-2,1,5,1,-2,1,-16,1,-19,1,-23,1,-23,1,-14,1,-7,1
84,3,1,0,1,-3,1,-1,1,3,1,-1,1,-15,1,-19,1,-23,1,-23,1,-14,1,-7,1
85,2,1,-1,1,-3,1,0,1,2,1,-2,1,-14,1,-19,1,-23,1,-23,1,-14,1,-8,1
86,1,1,-1,1,-2,1,0,1,1,1,-1,1,-15,1,-20,1,-24,1,-23,1,-15,1,-8,1
87,1,1,-2,1,-3,1,0,1,2,1,-2,1,-14,1,-20,1,-24,1,-23,1,-16,1,-9,1
88,1,1,-2,1,-3,1,0,1,2,1,-2,1,-14,1,-20,1,-24,1,-23,1,-16,1,-10,1
89,0,1,-3,1,-3,1,1,1,1,1,-3,1,-14,1,-20,1,-23,1,-23,1,-17,1,-10,1
90,0,1,-3,1,-3,1,1,1,1,1,-3,1,-15,1,-20,1,-23,1,-23,1,-17,1,-11,1
91,0,1,-3,1,-3,1,1,1,1,1,-3,1,-15,1,-20,1,-24,1,-24,1,-18,1,-11,1
92,1,1,-4,1,-5,1,1,1,3,1,-4,1,-15,1,-20,1,-24,1,-24,1,-18,1,-12,1
93,2,1,-4,1,-6,1,1,1,4,1,-5,1,-15,1,-20,1,-24,1,-24,1,-18,1,-12,1
94,1,1,-5,1,-6,1,2,1,3,1,-5,1,-15,1,-20,1,-24,1,-24,1,-18,1,-12,1
95,-1,1,-6,1,-5,1,3,1,2,1,-6,1,-15,1,-21,1,-24,1,-25,1,-19,1,-12,1
96,-1,1,-6,1,-5,1,3,1,2,1,-6,1,-16,1,-21,1,-24,1,-24,1,-19,1,-11,1
97,0,1,-6,1,-6,1,3,1,3,1,-6,1,-17,1,-22,1,-24,1,-25,1,-20,1,-12,1
98,1,1,-7,1,-8,1,3,1,4,1,-7,1,-17,1,-22,1,-25,1,-25,1,-21,1,-12,1
99,0,1,-7,1,-7,1,3,1,3,1,-7,1,-17,1,-21,1,-25,1,-25,1,-20,1,-12,1
100,-1,1,-6,1,-5,1,3,1,2,1,-6,1,-16,1,-20,1,-25,1,-25,1,-20,1,-11,1
101,-1,1,-6,1,-5,1,3,1,2,1,-6,1,-16,1,-19,1,-25,1,-25,1,-20,1,-12,1
102,0,1,-6,1,-6,1,3,1,3,1,-6,1,-16,1,-19,1,-25,1,-27,1,-21,1,-13,1
103,1,1,-6,1,-7,1,2,1,4,1,-6,1,-14,1,-16,1,-24,1,-27,1,-21,1,-13,1
104,1,1,-6,1,-7,1,2,1,4,1,-6,1,-9,1,-10,1,-20,1,-25,1,-21,1,-14,1
105,2,1,-7,1,-9,1,2,1,5,1,-8,1,-3,1,-3,1,-16,1,-24,1,-21,1,-14,1
106,2,1,-7,1,-9,1,2,1,5,1,-8,1,1,1,3,1,-11,1,-22,1,-21,1,-13,1
107,2,1,-5,1,-7,1,1,1,4,1,-6,1,8,1,11,1,-6,1,-19,1,-19,1,-13,1
108,3,1,-5,1,-8,1,1,1,5,1,-6,1,15,1,20,1,0,1,-15,1,-17,1,-11,1
109,6,1,-3,1,-9,1,-1,1,7,1,-6,1,21,1,29,1,7,1,-8,1,-12,1,-8,1
110,12,1,-1,1,-13,1,-5,1,12,1,-7,1,26,1,37,1,17,1,2,1,-2,1,-1,1
111,20,1,3,1,-17,1,-11,1,19,1,-7,1,34,1,51,1,35,1,23,1,14,1,9,1
112,32,1,11,1,-21,1,-21,1,27,1,-5,1,43,1,69,1,61,1,52,1,39,1,26,1
113,46,1,21,1,-25,1,-33,1,36,1,-2,1,51,1,88,1,90,1,86,1,69,1,47,1
114,61,1,35,1,-26,1,-48,1,44,1,5,1,54,1,101,1,118,1,120,1,100,1,70,1
115,77,1,51,1,-26,1,-64,1,52,1,13,1,48,1,102,1,138,1,152,1,131,1,93,1
116,95,1,68,1,-27,1,-81,1,61,1,21,1,30,1,90,1,151,1,179,1,161,1,117,1
117,110,1,84,1,-26,1,-97,1,68,1,29,1,7,1,71,1,156,1,201,1,188,1,140,1
118,120,1,97,1,-23,1,-108,1,72,1,37,1,-18,1,46,1,155,1,216,1,208,1,156,1
119,123,1,102,1,-21,1,-112,1,72,1,41,1,-42,1,18,1,150,1,223,1,219,1,163,1
120,118,1,103,1,-15,1,-110,1,67,1,44,1,-61,1,-8,1,142,1,222,1,219,1,163,1
121,108,1,99,1,-9,1,-103,1,59,1,45,1,-77,1,-32,1,132,1,211,1,208,1,156,1
122,97,1,91,1,-6,1,-94,1,52,1,43,1,-93,1,-53,1,117,1,192,1,187,1,142,1
123,83,1,84,1,1,1,-83,1,41,1,43,1,-109,1,-71,1,97,1,166,1,160,1,124,1
124,66,1,79,1,13,1,-72,1,27,1,46,1,-120,1,-87,1,71,1,133,1,128,1,104,1
125,48,1,73,1,25,1,-60,1,12,1,49,1,-127,1,-103,1,36,1,92,1,94,1,82,1
126,28,1,65,1,37,1,-46,1,-4,1,51,1,-131,1,-121,1,-6,1,45,1,58,1,60,1
127,13,1,55,1,42,1,-34,1,-14,1,49,1,-127,1,-129,1,-40,1,6,1,26,1,39,1
128,4,1,46,1,42,1,-25,1,-19,1,44,1,-119,1,-126,1,-56,1,-16,1,6,1,23,1
129,0,1,37,1,37,1,-18,1,-18,1,37,1,-108,1,-115,1,-62,1,-29,1,-7,1,12,1
130,0,1,29,1,29,1,-14,1,-14,1,29,1,-94,1,-101,1,-60,1,-34,1,-14,1,5,1
131,0,1,25,1,25,1,-12,1,-12,1,25,1,-80,1,-87,1,-55,1,-35,1,-16,1,1,1
132,0,1,21,1,21,1,-10,1,-10,1,21,1,-66,1,-73,1,-49,1,-32,1,-17,1,-1,1
133,1,1,18,1,17,1,-9,1,-8,1,18,1,-52,1,-61,1,-42,1,-28,1,-16,1,-2,1
134,3,1,15,1,12,1,-9,1,-4,1,14,1,-40,1,-49,1,-35,1,-24,1,-15,1,-3,1
135,4,1,11,1,7,1,-7,1,-1,1,9,1,-31,1,-38,1,-28,1,-21,1,-15,1,-5,1
136,4,1,7,1,3,1,-5,1,1,1,5,1,-24,1,-29,1,-23,1,-20,1,-15,1,-6,1
137,2,1,4,1,2,1,-3,1,0,1,3,1,-20,1,-22,1,-20,1,-19,1,-15,1,-7,1
138,1,1,1,1,0,1,-1,1,1,1,1,1,-16,1,-17,1,-17,1,-19,1,-15,1,-8,1
139,0,1,0,1,0,1,0,1,0,1,0,1,-13,1,-14,1,-16,1,-19,1,-16,1,-9,1
140,0,1,-2,1,-2,1,1,1,1,1,-2,1,-12,1,-14,1,-16,1,-20,1,-17,1,-10,1
141,-1,1,-4,1,-3,1,2,1,1,1,-4,1,-10,1,-14,1,-16,1,-20,1,-19,1,-11,1
142,-3,1,-5,1,-2,1,4,1,-1,1,-4,1,-9,1,-14,1,-16,1,-20,1,-19,1,-11,1
143,-3,1,-5,1,-2,1,4,1,-1,1,-4,1,-8,1,-14,1,-17,1,-20,1,-20,1,-11,1
144,-3,1,-5,1,-2,1,4,1,-1,1,-4,1,-7,1,-13,1,-18,1,-21,1,-20,1,-11,1
145,-4,1,-6,1,-2,1,5,1,-1,1,-4,1,-6,1,-13,1,-18,1,-22,1,-20,1,-12,1
146,-4,1,-6,1,-2,1,5,1,-1,1,-4,1,-6,1,-12,1,-19,1,-22,1,-19,1,-12,1
147,-4,1,-6,1,-2,1,5,1,-1,1,-4,1,-6,1,-12,1,-19,1,-23,1,-19,1,-13,1
148,-4,1,-7,1,-3,1,5,1,-1,1,-5,1,-6,1,-11,1,-19,1,-23,1,-19,1,-13,1
149,-5,1,-7,1,-2,1,6,1,-2,1,-5,1,-7,1,-11,1,-19,1,-24,1,-20,1,-12,1
150,-5,1,-8,1,-3,1,6,1,-1,1,-6,1,-6,1,-10,1,-19,1,-25,1,-20,1,-12,1
151,-4,1,-8,1,-4,1,6,1,0,1,-6,1,-6,1,-10,1,-18,1,-25,1,-21,1,-12,1
152,-4,1,-8,1,-4,1,6,1,0,1,-6,1,-5,1,-10,1,-18,1,-25,1,-21,1,-13,1
153,-3,1,-9,1,-6,1,6,1,1,1,-8,1,-5,1,-11,1,-19,1,-26,1,-21,1,-13,1
154,-3,1,-9,1,-6,1,6,1,1,1,-8,1,-4,1,-11,1,-19,1,-26,1,-21,1,-13,1
155,-1,1,-9,1,-8,1,5,1,3,1,-9,1,-4,1,-11,1,-19,1,-26,1,-21,1,-13,1
156,0,1,-9,1,-9,1,4,1,4,1,-9,1,-4,1,-10,1,-19,1,-26,1,-22,1,-13,1
157,0,1,-9,1,-9,1,4,1,4,1,-9,1,-4,1,-10,1,-19,1,-25,1,-22,1,-14,1
158,-1,1,-9,1,-8,1,5,1,3,1,-9,1,-4,1,-10,1,-19,1,-25,1,-22,1,-14,1
159,0,1,-9,1,-9,1,4,1,4,1,-9,1,-4,1,-10,1,-19,1,-25,1,-22,1,-14,1
160,-1,1,-9,1,-8,1,5,1,3,1,-9,1,-4,1,-10,1,-19,1,-25,1,-21,1,-14,1
161,-1,1,-9,1,-8,1,5,1,3,1,-9,1,-5,1,-11,1,-19,1,-25,1,-21,1,-15,1
162,0,1,-9,1,-9,1,4,1,4,1,-9,1,-5,1,-12,1,-19,1,-25,1,-21,1,-15,1
163,-1,1,-8,1,-7,1,4,1,3,1,-8,1,-5,1,-11,1,-18,1,-24,1,-21,1,-14,1
164,-3,1,-8,1,-5,1,5,1,1,1,-7,1,-4,1,-11,1,-18,1,-24,1,-22,1,-14,1
165,-4,1,-8,1,-4,1,6,1,0,1,-6,1,-3,1,-10,1,-17,1,-24,1,-21,1,-13,1
166,-5,1,-6,1,-1,1,5,1,-2,1,-4,1,-3,1,-10,1,-17,1,-24,1,-21,1,-13,1
167,-5,1,-7,1,-2,1,6,1,-2,1,-5,1,-3,1,-10,1,-17,1,-24,1,-21,1,-13,1
168,-3,1,-7,1,-4,1,5,1,0,1,-6,1,-3,1,-9,1,-17,1,-25,1,-21,1,-14,1
169,-3,1,-6,1,-3,1,4,1,0,1,-5,1,-3,1,-9,1,-17,1,-25,1,-21,1,-14,1
170,-2,1,-6,1,-4,1,4,1,1,1,-5,1,-3,1,-9,1,-16,1,-25,1,-21,1,-13,1
171,-2,1,-6,1,-4,1,4,1,1,1,-5,1,-2,1,-8,1,-15,1,-25,1,-21,1,-13,1
172,-2,1,-6,1,-4,1,4,1,1,1,-5,1,-2,1,-8,1,-15,1,-24,1,-21,1,-13,1
173,-3,1,-7,1,-4,1,5,1,0,1,-6,1,-1,1,-9,1,-16,1,-24,1,-21,1,-12,1
174,-2,1,-7,1,-5,1,4,1,1,1,-6,1,-1,1,-9,1,-17,1,-25,1,-21,1,-12,1
175,-1,1,-7,1,-6,1,4,1,2,1,-7,1,-1,1,-10,1,-17,1,-25,1,-20,1,-12,1
176,-1,1,-8,1,-7,1,4,1,3,1,-8,1,-1,1,-9,1,-18,1,-24,1,-19,1,-12,1
177,0,1,-8,1,-8,1,4,1,4,1,-8,1,-1,1,-9,1,-17,1,-23,1,-19,1,-11,1
178,1,1,-7,1,-8,1,3,1,4,1,-7,1,-2,1,-9,1,-17,1,-23,1,-19,1,-12,1
179,2,1,-7,1,-9,1,2,1,5,1,-8,1,-3,1,-9,1,-16,1,-23,1,-19,1,-12,1
180,1,1,-6,1,-7,1,2,1,4,1,-6,1,-2,1,-9,1,-16,1,-22,1,-18,1,-12,1
181,0,1,-6,1,-6,1,3,1,3,1,-6,1,-1,1,-8,1,-15,1,-21,1,-18,1,-11,1
182,0,1,-6,1,-6,1,3,1,3,1,-6,1,-1,1,-8,1,-15,1,-21,1,-18,1,-11,1
183,0,1,-6,1,-6,1,3,1,3,1,-6,1,-1,1,-8,1,-15,1,-21,1,-19,1,-12,1
184,0,1,-6,1,-6,1,3,1,3,1,-6,1,0,1,-7,1,-16,1,-21,1,-19,1,-12,1
185,1,1,-6,1,-7,1,2,1,4,1,-6,1,0,1,-6,1,-15,1,-21,1,-19,1,-12,1
186,1,1,-6,1,-7,1,2,1,4,1,-6,1,0,1,-6,1,-15,1,-21,1,-19,1,-12,1
187,1,1,-5,1,-6,1,2,1,3,1,-5,1,0,1,-6,1,-15,1,-21,1,-19,1,-12,1
188,1,1,-5,1,-6,1,2,1,3,1,-5,1,0,1,-6,1,-14,1,-20,1,-19,1,-12,1
189,0,1,-4,1,-4,1,2,1,2,1,-4,1,0,1,-4,1,-13,1,-20,1,-18,1,-12,1
190,-1,1,-3,1,-2,1,2,1,0,1,-3,1,1,1,-4,1,-12,1,-19,1,-17,1,-10,1
191,-4,1,-3,1,1,1,3,1,-3,1,-1,1,2,1,-3,1,-11,1,-19,1,-16,1,-10,1
192,-5,1,-4,1,1,1,4,1,-3,1,-2,1,2,1,-2,1,-11,1,-18,1,-16,1,-9,1
193,-4,1,-4,1,0,1,4,1,-2,1,-2,1,3,1,-2,1,-12,1,-18,1,-16,1,-9,1
194,-3,1,-3,1,0,1,3,1,-2,1,-2,1,3,1,-1,1,-12,1,-17,1,-16,1,-10,1
195,-2,1,-3,1,-1,1,2,1,-1,1,-2,1,3,1,-1,1,-11,1,-17,1,-16,1,-10,1
196,-1,1,-3,1,-2,1,2,1,0,1,-3,1,3,1,-1,1,-10,1,-17,1,-16,1,-10,1
197,0,1,-2,1,-2,1,1,1,1,1,-2,1,3,1,0,1,-9,1,-17,1,-16,1,-10,1
198,1,1,-2,1,-3,1,0,1,2,1,-2,1,3,1,0,1,-7,1,-16,1,-16,1,-11,1
199,1,1,-2,1,-3,1,0,1,2,1,-2,1,3,1,1,1,-6,1,-16,1,-16,1,-11,1
200,1,1,-2,1,-3,1,0,1,2,1,-2,1,4,1,1,1,-5,1,-15,1,-16,1,-11,1
201,1,1,-2,1,-3,1,0,1,2,1,-2,1,4,1,1,1,-5,1,-15,1,-16,1,-11,1
202,2,1,-2,1,-4,1,0,1,3,1,-3,1,3,1,1,1,-5,1,-14,1,-16,1,-11,1
203,2,1,-1,1,-3,1,0,1,2,1,-2,1,3,1,1,1,-5,1,-13,1,-14,1,-10,1
204,2,1,-1,1,-3,1,0,1,2,1,-2,1,3,1,2,1,-4,1,-12,1,-14,1,-10,1
205,3,1,0,1,-3,1,-1,1,3,1,-1,1,4,1,2,1,-3,1,-12,1,-13,1,-9,1
206,4,1,0,1,-4,1,-2,1,4,1,-2,1,4,1,3,1,-3,1,-12,1,-13,1,-8,1
207,5,1,0,1,-5,1,-2,1,5,1,-2,1,4,1,3,1,-2,1,-11,1,-13,1,-8,1
208,5,1,0,1,-5,1,-2,1,5,1,-2,1,4,1,3,1,-1,1,-11,1,-13,1,-9,1
209,7,1,0,1,-7,1,-3,1,7,1,-3,1,4,1,4,1,-1,1,-10,1,-13,1,-9,1
210,8,1,0,1,-8,1,-4,1,8,1,-4,1,4,1,4,1,0,1,-9,1,-12,1,-9,1
211,8,1,1,1,-7,1,-4,1,8,1,-3,1,4,1,5,1,0,1,-9,1,-12,1,-9,1
212,8,1,2,1,-6,1,-5,1,7,1,-2,1,4,1,6,1,0,1,-9,1,-11,1,-8,1
213,8,1,2,1,-6,1,-5,1,7,1,-2,1,4,1,6,1,1,1,-8,1,-10,1,-7,1
214,8,1,2,1,-6,1,-5,1,7,1,-2,1,5,1,8,1,1,1,-7,1,-10,1,-6,1
215,8,1,3,1,-5,1,-5,1,7,1,-1,1,5,1,9,1,2,1,-5,1,-9,1,-4,1
216,8,1,3,1,-5,1,-5,1,7,1,-1,1,6,1,10,1,3,1,-4,1,-9,1,-4,1
217,9,1,4,1,-5,1,-6,1,7,1,0,1,6,1,11,1,4,1,-4,1,-8,1,-4,1
218,11,1,5,1,-6,1,-8,1,9,1,0,1,6,1,12,1,5,1,-3,1,-7,1,-4,1
219,11,1,6,1,-5,1,-8,1,8,1,1,1,6,1,13,1,6,1,-2,1,-5,1,-3,1
220,10,1,6,1,-4,1,-8,1,7,1,1,1,7,1,14,1,9,1,-1,1,-4,1,-2,1
221,10,1,7,1,-3,1,-8,1,7,1,2,1,7,1,14,1,11,1,1,1,-3,1,-2,1
222,10,1,7,1,-3,1,-8,1,7,1,2,1,7,1,15,1,12,1,1,1,-3,1,-1,1
223,10,1,7,1,-3,1,-8,1,7,1,2,1,8,1,18,1,13,1,2,1,-2,1,0,1
224,10,1,6,1,-4,1,-8,1,7,1,1,1,8,1,20,1,13,1,3,1,-1,1,0,1
225,11,1,6,1,-5,1,-8,1,8,1,1,1,8,1,21,1,13,1,4,1,0,1,0,1
226,11,1,6,1,-5,1,-8,1,8,1,1,1,8,1,23,1,15,1,6,1,0,1,1,1
227,12,1,7,1,-5,1,-9,1,9,1,1,1,8,1,25,1,16,1,8,1,1,1,1,1
228,14,1,7,1,-7,1,-10,1,11,1,0,1,8,1,25,1,17,1,9,1,2,1,1,1
229,14,1,8,1,-6,1,-11,1,10,1,1,1,8,1,25,1,18,1,10,1,2,1,1,1
230,16,1,9,1,-7,1,-12,1,12,1,1,1,8,1,26,1,20,1,11,1,3,1,2,1
231,17,1,10,1,-7,1,-13,1,12,1,2,1,9,1,27,1,22,1,12,1,4,1,2,1
232,17,1,11,1,-6,1,-14,1,12,1,3,1,9,1,29,1,24,1,13,1,6,1,3,1
233,18,1,13,1,-5,1,-15,1,12,1,4,1,9,1,30,1,25,1,14,1,7,1,3,1
234,19,1,14,1,-5,1,-16,1,12,1,5,1,10,1,30,1,27,1,15,1,10,1,3,1
235,18,1,14,1,-4,1,-16,1,11,1,5,1,10,1,32,1,28,1,18,1,12,1,4,1
236,17,1,14,1,-3,1,-15,1,10,1,6,1,10,1,33,1,30,1,20,1,13,1,5,1
237,18,1,15,1,-3,1,-16,1,11,1,6,1,10,1,34,1,30,1,23,1,14,1,6,1
238,21,1,15,1,-6,1,-18,1,14,1,5,1,9,1,35,1,32,1,25,1,16,1,7,1
239,22,1,16,1,-6,1,-19,1,14,1,5,1,9,1,36,1,33,1,26,1,17,1,8,1
240,24,1,16,1,-8,1,-20,1,16,1,4,1,9,1,36,1,35,1,28,1,19,1,9,1
241,24,1,17,1,-7,1,-20,1,16,1,5,1,10,1,37,1,37,1,29,1,20,1,11,1
242,23,1,18,1,-5,1,-20,1,14,1,7,1,10,1,38,1,39,1,30,1,21,1,12,1
243,22,1,19,1,-3,1,-20,1,13,1,8,1,10,1,38,1,40,1,32,1,23,1,13,1
244,23,1,20,1,-3,1,-21,1,13,1,9,1,9,1,39,1,41,1,34,1,24,1,14,1
245,25,1,21,1,-4,1,-23,1,15,1,9,1,8,1,39,1,41,1,35,1,25,1,15,1
246,28,1,23,1,-5,1,-25,1,17,1,9,1,8,1,39,1,42,1,35,1,27,1,15,1
247,29,1,24,1,-5,1,-26,1,17,1,10,1,6,1,39,1,42,1,36,1,28,1,16,1
248,29,1,24,1,-5,1,-26,1,17,1,10,1,6,1,38,1,42,1,36,1,28,1,16,1
249,30,1,25,1,-5,1,-27,1,18,1,10,1,5,1,38,1,43,1,37,1,29,1,16,1
250,30,1,27,1,-3,1,-28,1,17,1,12,1,5,1,38,1,43,1,38,1,30,1,16,1
251,31,1,28,1,-3,1,-29,1,17,1,13,1,6,1,38,1,44,1,39,1,30,1,16,1
252,32,1,29,1,-3,1,-30,1,18,1,13,1,5,1,37,1,44,1,39,1,31,1,17,1
253,31,1,30,1,-1,1,-30,1,16,1,15,1,5,1,37,1,44,1,41,1,32,1,18,1
254,29,1,29,1,0,1,-29,1,15,1,15,1,5,1,37,1,44,1,42,1,34,1,20,1
255,29,1,30,1,1,1,-29,1,14,1,16,1,4,1,37,1,44,1,43,1,35,1,22,1
256,28,1,29,1,1,1,-28,1,14,1,15,1,3,1,37,1,44,1,44,1,35,1,23,1
257,27,1,29,1,2,1,-28,1,13,1,16,1,3,1,37,1,44,1,45,1,36,1,24,1
258,27,1,29,1,2,1,-28,1,13,1,16,1,3,1,36,1,45,1,45,1,37,1,24,1
259,27,1,28,1,1,1,-27,1,13,1,15,1,3,1,36,1,45,1,45,1,38,1,24,1
260,28,1,28,1,0,1,-28,1,14,1,14,1,2,1,34,1,45,1,44,1,38,1,24,1
261,29,1,28,1,-1,1,-28,1,15,1,14,1,2,1,33,1,45,1,44,1,38,1,24,1
262,30,1,28,1,-2,1,-29,1,16,1,13,1,1,1,31,1,43,1,43,1,37,1,24,1
263,30,1,28,1,-2,1,-29,1,16,1,13,1,1,1,30,1,42,1,42,1,37,1,24,1
264,30,1,28,1,-2,1,-29,1,16,1,13,1,1,1,28,1,40,1,41,1,36,1,23,1
265,31,1,27,1,-4,1,-29,1,18,1,12,1,0,1,27,1,38,1,40,1,35,1,22,1
266,30,1,27,1,-3,1,-28,1,17,1,12,1,0,1,26,1,37,1,39,1,34,1,21,1
267,28,1,26,1,-2,1,-27,1,15,1,12,1,-2,1,24,1,35,1,38,1,33,1,20,1
268,27,1,25,1,-2,1,-26,1,15,1,12,1,-3,1,23,1,34,1,36,1,31,1,18,1
269,26,1,24,1,-2,1,-25,1,14,1,11,1,-4,1,21,1,32,1,34,1,29,1,17,1
270,26,1,24,1,-2,1,-25,1,14,1,11,1,-4,1,19,1,30,1,32,1,27,1,16,1
271,25,1,23,1,-2,1,-24,1,14,1,11,1,-4,1,19,1,28,1,29,1,25,1,15,1
272,25,1,22,1,-3,1,-23,1,14,1,10,1,-4,1,17,1,26,1,27,1,23,1,14,1
273,23,1,20,1,-3,1,-21,1,13,1,9,1,-4,1,15,1,23,1,26,1,21,1,12,1
274,21,1,18,1,-3,1,-19,1,12,1,8,1,-4,1,13,1,21,1,24,1,20,1,11,1
275,20,1,17,1,-3,1,-18,1,12,1,7,1,-4,1,11,1,19,1,22,1,18,1,10,1
276,18,1,16,1,-2,1,-17,1,10,1,7,1,-5,1,10,1,17,1,20,1,17,1,9,1
277,17,1,15,1,-2,1,-16,1,10,1,7,1,-6,1,9,1,15,1,18,1,15,1,8,1
278,16,1,15,1,-1,1,-15,1,9,1,7,1,-6,1,7,1,14,1,16,1,14,1,7,1
279,15,1,14,1,-1,1,-14,1,8,1,7,1,-6,1,5,1,12,1,15,1,12,1,5,1
280,14,1,12,1,-2,1,-13,1,8,1,5,1,-6,1,4,1,10,1,13,1,10,1,4,1
281,13,1,10,1,-3,1,-11,1,8,1,4,1,-6,1,1,1,8,1,11,1,8,1,2,1
282,12,1,9,1,-3,1,-10,1,8,1,3,1,-6,1,0,1,6,1,8,1,6,1,1,1
283,11,1,7,1,-4,1,-9,1,8,1,2,1,-6,1,-1,1,3,1,6,1,4,1,0,1
284,11,1,6,1,-5,1,-8,1,8,1,1,1,-6,1,-1,1,1,1,4,1,2,1,-1,1
285,11,1,5,1,-6,1,-8,1,9,1,0,1,-6,1,-2,1,0,1,2,1,0,1,-2,1
286,11,1,5,1,-6,1,-8,1,9,1,0,1,-7,1,-3,1,-1,1,0,1,-1,1,-4,1
287,10,1,4,1,-6,1,-7,1,8,1,-1,1,-7,1,-4,1,-3,1,-1,1,-2,1,-5,1
288,9,1,3,1,-6,1,-6,1,8,1,-1,1,-8,1,-5,1,-4,1,-3,1,-4,1,-6,1
289,8,1,2,1,-6,1,-5,1,7,1,-2,1,-9,1,-6,1,-6,1,-5,1,-6,1,-6,1
290,8,1,2,1,-6,1,-5,1,7,1,-2,1,-9,1,-7,1,-7,1,-7,1,-7,1,-7,1
291,8,1,2,1,-6,1,-5,1,7,1,-2,1,-9,1,-8,1,-8,1,-8,1,-8,1,-9,1
292,8,1,1,1,-7,1,-4,1,8,1,-3,1,-9,1,-9,1,-9,1,-9,1,-9,1,-9,1
293,7,1,0,1,-7,1,-3,1,7,1,-3,1,-9,1,-9,1,-10,1,-10,1,-10,1,-10,1
294,7,1,0,1,-7,1,-3,1,7,1,-3,1,-9,1,-10,1,-11,1,-11,1,-12,1,-10,1
295,8,1,-1,1,-9,1,-3,1,8,1,-5,1,-9,1,-11,1,-12,1,-12,1,-13,1,-10,1
296,7,1,-1,1,-8,1,-3,1,7,1,-4,1,-9,1,-11,1,-13,1,-13,1,-13,1,-11,1
297,7,1,-1,1,-8,1,-3,1,7,1,-4,1,-10,1,-11,1,-14,1,-14,1,-13,1,-11,1
298,6,1,-1,1,-7,1,-2,1,6,1,-4,1,-10,1,-11,1,-13,1,-14,1,-13,1,-12,1
299,4,1,-3,1,-7,1,0,1,5,1,-5,1,-11,1,-12,1,-14,1,-15,1,-14,1,-12,1
300,4,1,-4,1,-8,1,0,1,6,1,-6,1,-10,1,-12,1,-14,1,-16,1,-15,1,-13,1
301,4,1,-3,1,-7,1,0,1,5,1,-5,1,-10,1,-13,1,-16,1,-16,1,-16,1,-14,1
302,4,1,-4,1,-8,1,0,1,6,1,-6,1,-10,1,-13,1,-16,1,-17,1,-17,1,-15,1
303,3,1,-4,1,-7,1,0,1,5,1,-5,1,-10,1,-14,1,-16,1,-17,1,-18,1,-15,1
304,3,1,-4,1,-7,1,0,1,5,1,-5,1,-10,1,-14,1,-16,1,-16,1,-18,1,-16,1
305,4,1,-3,1,-7,1,0,1,5,1,-5,1,-10,1,-14,1,-16,1,-16,1,-18,1,-16,1
306,4,1,-3,1,-7,1,0,1,5,1,-5,1,-10,1,-14,1,-16,1,-16,1,-18,1,-16,1
307,3,1,-3,1,-6,1,0,1,4,1,-4,1,-9,1,-13,1,-15,1,-17,1,-18,1,-16,1
308,2,1,-3,1,-5,1,0,1,3,1,-4,1,-8,1,-13,1,-14,1,-17,1,-18,1,-16,1
309,1,1,-4,1,-5,1,1,1,3,1,-4,1,-9,1,-13,1,-15,1,-17,1,-19,1,-16,1
310,0,1,-5,1,-5,1,2,1,2,1,-5,1,-8,1,-12,1,-14,1,-16,1,-17,1,-15,1
311,-2,1,-5,1,-3,1,3,1,0,1,-4,1,-8,1,-11,1,-14,1,-15,1,-16,1,-14,1
312,-3,1,-7,1,-4,1,5,1,0,1,-6,1,-9,1,-12,1,-15,1,-16,1,-17,1,-15,1
313,-1,1,-6,1,-5,1,3,1,2,1,-6,1,-9,1,-12,1,-15,1,-16,1,-17,1,-15,1
314,0,1,-6,1,-6,1,3,1,3,1,-6,1,-10,1,-13,1,-16,1,-17,1,-17,1,-15,1
315,0,1,-5,1,-5,1,2,1,2,1,-5,1,-9,1,-13,1,-17,1,-18,1,-17,1,-15,1
316,1,1,-4,1,-5,1,1,1,3,1,-4,1,-9,1,-13,1,-17,1,-17,1,-17,1,-15,1
317,2,1,-3,1,-5,1,0,1,3,1,-4,1,-8,1,-13,1,-16,1,-17,1,-17,1,-15,1
318,2,1,-3,1,-5,1,0,1,3,1,-4,1,-8,1,-12,1,-15,1,-17,1,-17,1,-15,1
319,4,1,-3,1,-7,1,0,1,5,1,-5,1,-8,1,-13,1,-17,1,-18,1,-18,1,-15,1
320,4,1,-4,1,-8,1,0,1,6,1,-6,1,-9,1,-13,1,-17,1,-18,1,-19,1,-16,1
321,3,1,-4,1,-7,1,0,1,5,1,-5,1,-9,1,-12,1,-17,1,-17,1,-17,1,-15,1
322,2,1,-4,1,-6,1,1,1,4,1,-5,1,-8,1,-12,1,-16,1,-17,1,-18,1,-15,1
323,1,1,-4,1,-5,1,1,1,3,1,-4,1,-8,1,-12,1,-16,1,-17,1,-18,1,-15,1
324,0,1,-5,1,-5,1,2,1,2,1,-5,1,-8,1,-12,1,-16,1,-18,1,-18,1,-15,1
325,0,1,-5,1,-5,1,2,1,2,1,-5,1,-8,1,-12,1,-16,1,-18,1,-18,1,-15,1
326,0,1,-5,1,-5,1,2,1,2,1,-5,1,-8,1,-13,1,-16,1,-18,1,-19,1,-15,1
327,1,1,-4,1,-5,1,1,1,3,1,-4,1,-9,1,-12,1,-17,1,-18,1,-19,1,-15,1
328,2,1,-5,1,-7,1,1,1,4,1,-6,1,-9,1,-11,1,-17,1,-17,1,-19,1,-15,1
329,2,1,-5,1,-7,1,1,1,4,1,-6,1,-9,1,-11,1,-17,1,-18,1,-19,1,-15,1
330,3,1,-4,1,-7,1,0,1,5,1,-5,1,-9,1,-12,1,-17,1,-18,1,-19,1,-14,1
331,2,1,-4,1,-6,1,1,1,4,1,-5,1,-9,1,-11,1,-18,1,-18,1,-20,1,-14,1
332,2,1,-4,1,-6,1,1,1,4,1,-5,1,-9,1,-11,1,-17,1,-17,1,-20,1,-14,1
333,2,1,-4,1,-6,1,1,1,4,1,-5,1,-9,1,-11,1,-17,1,-18,1,-20,1,-14,1
334,3,1,-4,1,-7,1,0,1,5,1,-5,1,-10,1,-12,1,-18,1,-18,1,-20,1,-14,1
335,4,1,-4,1,-8,1,0,1,6,1,-6,1,-10,1,-12,1,-17,1,-19,1,-20,1,-13,1
336,4,1,-4,1,-8,1,0,1,6,1,-6,1,-10,1,-12,1,-17,1,-19,1,-20,1,-13,1
337,4,1,-4,1,-8,1,0,1,6,1,-6,1,-10,1,-12,1,-18,1,-20,1,-20,1,-13,1
338,4,1,-4,1,-8,1,0,1,6,1,-6,1,-10,1,-12,1,-18,1,-20,1,-20,1,-13,1
339,3,1,-5,1,-8,1,1,1,5,1,-6,1,-10,1,-13,1,-18,1,-20,1,-21,1,-13,1
340,2,1,-5,1,-7,1,1,1,4,1,-6,1,-10,1,-13,1,-18,1,-20,1,-21,1,-13,1
341,2,1,-5,1,-7,1,1,1,4,1,-6,1,-10,1,-13,1,-19,1,-19,1,-21,1,-13,1
342,2,1,-5,1,-7,1,1,1,4,1,-6,1,-10,1,-13,1,-18,1,-19,1,-22,1,-13,1
343,2,1,-5,1,-7,1,1,1,4,1,-6,1,-11,1,-13,1,-19,1,-20,1,-22,1,-13,1
344,2,1,-4,1,-6,1,1,1,4,1,-5,1,-10,1,-13,1,-18,1,-19,1,-21,1,-12,1
345,2,1,-4,1,-6,1,1,1,4,1,-5,1,-10,1,-13,1,-18,1,-19,1,-20,1,-12,1
346,1,1,-4,1,-5,1,1,1,3,1,-4,1,-10,1,-13,1,-18,1,-19,1,-19,1,-12,1
347,1,1,-4,1,-5,1,1,1,3,1,-4,1,-9,1,-13,1,-18,1,-18,1,-19,1,-11,1
348,1,1,-5,1,-6,1,2,1,3,1,-5,1,-10,1,-14,1,-18,1,-19,1,-19,1,-11,1
349,3,1,-4,1,-7,1,0,1,5,1,-5,1,-10,1,-15,1,-19,1,-19,1,-19,1,-11,1
350,5,1,-4,1,-9,1,0,1,7,1,-6,1,-11,1,-15,1,-20,1,-18,1,-19,1,-11,1
351,6,1,-4,1,-10,1,-1,1,8,1,-7,1,-11,1,-16,1,-20,1,-18,1,-18,1,-10,1
352,5,1,-4,1,-9,1,0,1,7,1,-6,1,-10,1,-16,1,-20,1,-18,1,-18,1,-11,1
353,6,1,-5,1,-11,1,0,1,8,1,-8,1,-10,1,-17,1,-20,1,-18,1,-19,1,-11,1
354,5,1,-5,1,-10,1,0,1,7,1,-7,1,-10,1,-16,1,-20,1,-18,1,-20,1,-12,1
355,6,1,-4,1,-10,1,-1,1,8,1,-7,1,-11,1,-17,1,-19,1,-19,1,-20,1,-13,1
356,6,1,-4,1,-10,1,-1,1,8,1,-7,1,-11,1,-17,1,-19,1,-19,1,-19,1,-13,1
357,5,1,-3,1,-8,1,-1,1,6,1,-5,1,-12,1,-16,1,-19,1,-19,1,-18,1,-12,1
358,4,1,-3,1,-7,1,0,1,5,1,-5,1,-12,1,-16,1,-19,1,-19,1,-17,1,-12,1
359,3,1,-2,1,-5,1,0,1,4,1,-3,1,-13,1,-16,1,-20,1,-20,1,-18,1,-12,1
360,2,1,-2,1,-4,1,0,1,3,1,-3,1,-13,1,-15,1,-20,1,-20,1,-19,1,-11,1
361,1,1,-2,1,-3,1,0,1,2,1,-2,1,-12,1,-15,1,-20,1,-19,1,-19,1,-10,1
362,2,1,-2,1,-4,1,0,1,3,1,-3,1,-13,1,-15,1,-20,1,-19,1,-18,1,-9,1
363,1,1,-2,1,-3,1,0,1,2,1,-2,1,-13,1,-16,1,-20,1,-19,1,-18,1,-9,1
364,1,1,-2,1,-3,1,0,1,2,1,-2,1,-13,1,-17,1,-20,1,-19,1,-18,1,-9,1
365,1,1,-2,1,-3,1,0,1,2,1,-2,1,-13,1,-18,1,-20,1,-19,1,-18,1,-9,1
366,0,1,-2,1,-2,1,1,1,1,1,-2,1,-13,1,-17,1,-20,1,-19,1,-19,1,-9,1
367,-1,1,-3,1,-2,1,2,1,0,1,-3,1,-12,1,-17,1,-20,1,-18,1,-19,1,-10,1
368,0,1,-2,1,-2,1,1,1,1,1,-2,1,-12,1,-16,1,-20,1,-19,1,-20,1,-11,1
369,1,1,-2,1,-3,1,0,1,2,1,-2,1,-12,1,-17,1,-20,1,-19,1,-20,1,-11,1
370,2,1,-3,1,-5,1,0,1,3,1,-4,1,-12,1,-17,1,-21,1,-20,1,-21,1,-12,1
371,1,1,-3,1,-4,1,1,1,2,1,-3,1,-12,1,-16,1,-21,1,-21,1,-20,1,-12,1
372,1,1,-3,1,-4,1,1,1,2,1,-3,1,-12,1,-16,1,-21,1,-21,1,-20,1,-12,1
373,2,1,-3,1,-5,1,0,1,3,1,-4,1,-13,1,-17,1,-22,1,-22,1,-21,1,-13,1
374,3,1,-3,1,-6,1,0,1,4,1,-4,1,-13,1,-18,1,-23,1,-22,1,-21,1,-12,1
375,3,1,-3,1,-6,1,0,1,4,1,-4,1,-14,1,-18,1,-23,1,-22,1,-21,1,-12,1
376,3,1,-4,1,-7,1,0,1,5,1,-5,1,-14,1,-18,1,-23,1,-22,1,-21,1,-12,1
377,3,1,-4,1,-7,1,0,1,5,1,-5,1,-14,1,-19,1,-24,1,-22,1,-21,1,-12,1
378,3,1,-4,1,-7,1,0,1,5,1,-5,1,-14,1,-19,1,-23,1,-22,1,-21,1,-12,1
379,3,1,-5,1,-8,1,1,1,5,1,-6,1,-14,1,-19,1,-23,1,-22,1,-20,1,-11,1
380,2,1,-4,1,-6,1,1,1,4,1,-5,1,-15,1,-19,1,-23,1,-21,1,-19,1,-11,1
381,1,1,-5,1,-6,1,2,1,3,1,-5,1,-15,1,-19,1,-23,1,-21,1,-19,1,-11,1
382,1,1,-6,1,-7,1,2,1,4,1,-6,1,-15,1,-20,1,-22,1,-21,1,-20,1,-12,1
383,1,1,-5,1,-6,1,2,1,3,1,-5,1,-15,1,-21,1,-23,1,-22,1,-21,1,-12,1
384,3,1,-5,1,-8,1,1,1,5,1,-6,1,-15,1,-21,1,-24,1,-22,1,-21,1,-12,1
385,2,1,-6,1,-8,1,2,1,5,1,-7,1,-15,1,-21,1,-24,1,-22,1,-20,1,-12,1
386,2,1,-6,1,-8,1,2,1,5,1,-7,1,-15,1,-21,1,-25,1,-23,1,-20,1,-12,1
387,2,1,-6,1,-8,1,2,1,5,1,-7,1,-16,1,-21,1,-25,1,-23,1,-19,1,-12,1
388,1,1,-5,1,-6,1,2,1,3,1,-5,1,-16,1,-22,1,-25,1,-23,1,-20,1,-12,1
389,1,1,-5,1,-6,1,2,1,3,1,-5,1,-16,1,-22,1,-26,1,-24,1,-20,1,-14,1
390,2,1,-4,1,-6,1,1,1,4,1,-5,1,-16,1,-22,1,-26,1,-25,1,-21,1,-15,1
391,3,1,-4,1,-7,1,0,1,5,1,-5,1,-14,1,-23,1,-26,1,-26,1,-21,1,-15,1
392,3,1,-4,1,-7,1,0,1,5,1,-5,1,-14,1,-23,1,-26,1,-26,1,-21,1,-15,1
393,4,1,-4,1,-8,1,0,1,6,1,-6,1,-15,1,-23,1,-26,1,-26,1,-21,1,-15,1
394,5,1,-4,1,-9,1,0,1,7,1,-6,1,-15,1,-24,1,-26,1,-26,1,-22,1,-14,1
395,4,1,-4,1,-8,1,0,1,6,1,-6,1,-15,1,-23,1,-26,1,-25,1,-22,1,-14,1
396,2,1,-5,1,-7,1,1,1,4,1,-6,1,-15,1,-23,1,-26,1,-23,1,-22,1,-14,1
397,2,1,-5,1,-7,1,1,1,4,1,-6,1,-15,1,-23,1,-27,1,-23,1,-22,1,-14,1
398,2,1,-5,1,-7,1,1,1,4,1,-6,1,-15,1,-23,1,-27,1,-24,1,-23,1,-14,1
399,3,1,-5,1,-8,1,1,1,5,1,-6,1,-15,1,-24,1,-27,1,-24,1,-22,1,-15,1
400,2,1,-5,1,-7,1,1,1,4,1,-6,1,-16,1,-24,1,-26,1,-24,1,-23,1,-15,1
401,2,1,-6,1,-8,1,2,1,5,1,-7,1,-16,1,-25,1,-26,1,-24,1,-23,1,-15,1
402,2,1,-6,1,-8,1,2,1,5,1,-7,1,-17,1,-25,1,-26,1,-25,1,-23,1,-16,1
403,1,1,-5,1,-6,1,2,1,3,1,-5,1,-17,1,-26,1,-27,1,-25,1,-22,1,-15,1
404,1,1,-6,1,-7,1,2,1,4,1,-6,1,-17,1,-26,1,-27,1,-25,1,-22,1,-14,1
405,2,1,-6,1,-8,1,2,1,5,1,-7,1,-17,1,-27,1,-27,1,-25,1,-23,1,-14,1
406,3,1,-6,1,-9,1,1,1,6,1,-7,1,-17,1,-27,1,-28,1,-26,1,-23,1,-15,1
407,3,1,-6,1,-9,1,1,1,6,1,-7,1,-16,1,-26,1,-27,1,-26,1,-23,1,-14,1
408,3,1,-6,1,-9,1,1,1,6,1,-7,1,-15,1,-24,1,-26,1,-25,1,-23,1,-15,1
409,1,1,-5,1,-6,1,2,1,3,1,-5,1,-15,1,-24,1,-26,1,-25,1,-22,1,-15,1
410,1,1,-6,1,-7,1,2,1,4,1,-6,1,-15,1,-24,1,-26,1,-25,1,-23,1,-15,1
411,0,1,-6,1,-6,1,3,1,3,1,-6,1,-16,1,-24,1,-26,1,-24,1,-23,1,-15,1
412,1,1,-6,1,-7,1,2,1,4,1,-6,1,-16,1,-25,1,-26,1,-25,1,-24,1,-15,1
413,1,1,-6,1,-7,1,2,1,4,1,-6,1,-17,1,-26,1,-27,1,-25,1,-24,1,-15,1
414,1,1,-6,1,-7,1,2,1,4,1,-6,1,-17,1,-27,1,-28,1,-25,1,-23,1,-14,1
415,2,1,-6,1,-8,1,2,1,5,1,-7,1,-18,1,-27,1,-27,1,-26,1,-23,1,-14,1
416,2,1,-6,1,-8,1,2,1,5,1,-7,1,-18,1,-28,1,-28,1,-26,1,-23,1,-15,1
417,1,1,-5,1,-6,1,2,1,3,1,-5,1,-17,1,-27,1,-28,1,-26,1,-22,1,-15,1
418,1,1,-5,1,-6,1,2,1,3,1,-5,1,-17,1,-27,1,-28,1,-25,1,-22,1,-15,1
419,2,1,-5,1,-7,1,1,1,4,1,-6,1,-17,1,-27,1,-27,1,-26,1,-22,1,-15,1
420,2,1,-5,1,-7,1,1,1,4,1,-6,1,-17,1,-27,1,-28,1,-27,1,-23,1,-16,1
421,3,1,-5,1,-8,1,1,1,5,1,-6,1,-17,1,-28,1,-28,1,-27,1,-23,1,-16,1
422,3,1,-4,1,-7,1,0,1,5,1,-5,1,-18,1,-28,1,-28,1,-27,1,-24,1,-17,1
423,3,1,-4,1,-7,1,0,1,5,1,-5,1,-18,1,-27,1,-28,1,-27,1,-23,1,-16,1
424,1,1,-5,1,-6,1,2,1,3,1,-5,1,-17,1,-27,1,-28,1,-27,1,-22,1,-15,1
425,0,1,-5,1,-5,1,2,1,2,1,-5,1,-17,1,-27,1,-28,1,-26,1,-22,1,-15,1
426,0,1,-5,1,-5,1,2,1,2,1,-5,1,-17,1,-27,1,-29,1,-25,1,-22,1,-15,1
427,0,1,-6,1,-6,1,3,1,3,1,-6,1,-18,1,-27,1,-29,1,-25,1,-23,1,-14,1
428,0,1,-7,1,-7,1,3,1,3,1,-7,1,-18,1,-27,1,-29,1,-26,1,-23,1,-14,1
429,1,1,-7,1,-8,1,3,1,4,1,-7,1,-18,1,-27,1,-29,1,-26,1,-23,1,-14,1
430,0,1,-8,1,-8,1,4,1,4,1,-8,1,-18,1,-28,1,-29,1,-26,1,-23,1,-14,1
431,-1,1,-6,1,-5,1,3,1,2,1,-6,1,-17,1,-28,1,-29,1,-27,1,-23,1,-14,1
432,-1,1,-6,1,-5,1,3,1,2,1,-6,1,-16,1,-27,1,-28,1,-27,1,-23,1,-14,1
433,-1,1,-6,1,-5,1,3,1,2,1,-6,1,-16,1,-28,1,-29,1,-27,1,-23,1,-15,1
434,-1,1,-6,1,-5,1,3,1,2,1,-6,1,-17,1,-28,1,-29,1,-28,1,-23,1,-16,1
435,0,1,-5,1,-5,1,2,1,2,1,-5,1,-17,1,-29,1,-29,1,-27,1,-23,1,-16,1
436,2,1,-5,1,-7,1,1,1,4,1,-6,1,-18,1,-29,1,-29,1,-27,1,-23,1,-16,1
437,1,1,-5,1,-6,1,2,1,3,1,-5,1,-18,1,-29,1,-29,1,-28,1,-23,1,-15,1
438,3,1,-5,1,-8,1,1,1,5,1,-6,1,-19,1,-28,1,-28,1,-27,1,-23,1,-15,1
439,3,1,-5,1,-8,1,1,1,5,1,-6,1,-18,1,-28,1,-27,1,-27,1,-23,1,-15,1
440,4,1,-6,1,-10,1,1,1,7,1,-8,1,-18,1,-29,1,-27,1,-27,1,-23,1,-15,1
441,6,1,-6,1,-12,1,0,1,9,1,-9,1,-18,1,-31,1,-28,1,-28,1,-24,1,-16,1
442,4,1,-6,1,-10,1,1,1,7,1,-8,1,-17,1,-31,1,-28,1,-27,1,-24,1,-15,1
443,1,1,-7,1,-8,1,3,1,4,1,-7,1,-16,1,-30,1,-28,1,-27,1,-24,1,-14,1
444,-1,1,-7,1,-6,1,4,1,2,1,-7,1,-15,1,-29,1,-28,1,-27,1,-24,1,-14,1
445,0,1,-6,1,-6,1,3,1,3,1,-6,1,-15,1,-28,1,-28,1,-27,1,-24,1,-14,1
446,1,1,-5,1,-6,1,2,1,3,1,-5,1,-15,1,-28,1,-28,1,-27,1,-25,1,-14,1
447,1,1,-6,1,-7,1,2,1,4,1,-6,1,-16,1,-28,1,-29,1,-28,1,-24,1,-15,1
448,0,1,-6,1,-6,1,3,1,3,1,-6,1,-14,1,-27,1,-28,1,-27,1,-24,1,-15,1
449,0,1,-6,1,-6,1,3,1,3,1,-6,1,-13,1,-27,1,-27,1,-26,1,-24,1,-15,1
450,-2,1,-5,1,-3,1,3,1,0,1,-4,1,-12,1,-27,1,-26,1,-26,1,-23,1,-15,1
451,-1,1,-4,1,-3,1,2,1,1,1,-4,1,-12,1,-28,1,-26,1,-26,1,-23,1,-15,1
452,-1,1,-4,1,-3,1,2,1,1,1,-4,1,-12,1,-28,1,-26,1,-27,1,-23,1,-15,1
453,-1,1,-3,1,-2,1,2,1,0,1,-3,1,-12,1,-28,1,-26,1,-26,1,-22,1,-15,1
454,0,1,-1,1,-1,1,0,1,0,1,-1,1,-12,1,-27,1,-26,1,-26,1,-21,1,-15,1
455,1,1,0,1,-1,1,0,1,1,1,0,1,-11,1,-26,1,-25,1,-25,1,-22,1,-14,1
456,2,1,0,1,-2,1,-1,1,2,1,-1,1,-11,1,-26,1,-25,1,-25,1,-21,1,-14,1
457,4,1,1,1,-3,1,-2,1,4,1,-1,1,-12,1,-27,1,-25,1,-25,1,-21,1,-14,1
458,6,1,2,1,-4,1,-4,1,5,1,-1,1,-12,1,-27,1,-25,1,-25,1,-21,1,-14,1
459,7,1,3,1,-4,1,-5,1,6,1,0,1,-12,1,-27,1,-25,1,-24,1,-20,1,-13,1
460,7,1,5,1,-2,1,-6,1,5,1,2,1,-12,1,-27,1,-24,1,-24,1,-19,1,-13,1
461,6,1,6,1,0,1,-6,1,3,1,3,1,-10,1,-26,1,-23,1,-23,1,-18,1,-12,1
462,5,1,7,1,2,1,-6,1,2,1,5,1,-10,1,-25,1,-23,1,-22,1,-18,1,-12,1
463,5,1,7,1,2,1,-6,1,2,1,5,1,-8,1,-25,1,-23,1,-21,1,-18,1,-11,1
464,3,1,7,1,4,1,-5,1,0,1,6,1,-7,1,-24,1,-21,1,-21,1,-18,1,-11,1
465,3,1,8,1,5,1,-5,1,-1,1,7,1,-6,1,-24,1,-20,1,-20,1,-17,1,-10,1
466,4,1,10,1,6,1,-7,1,-1,1,8,1,-6,1,-24,1,-19,1,-19,1,-17,1,-9,1
467,5,1,11,1,6,1,-8,1,0,1,9,1,-6,1,-24,1,-19,1,-19,1,-17,1,-9,1
468,7,1,13,1,6,1,-10,1,1,1,10,1,-7,1,-25,1,-19,1,-19,1,-15,1,-9,1
469,7,1,14,1,7,1,-10,1,0,1,11,1,-9,1,-26,1,-19,1,-18,1,-15,1,-9,1
470,6,1,14,1,8,1,-10,1,-1,1,11,1,-10,1,-27,1,-19,1,-18,1,-14,1,-9,1
471,4,1,15,1,11,1,-9,1,-3,1,13,1,-11,1,-27,1,-19,1,-18,1,-14,1,-8,1
472,5,1,15,1,10,1,-10,1,-2,1,13,1,-13,1,-29,1,-20,1,-18,1,-14,1,-9,1
473,6,1,15,1,9,1,-10,1,-1,1,12,1,-15,1,-30,1,-22,1,-19,1,-15,1,-8,1
474,8,1,16,1,8,1,-12,1,0,1,12,1,-17,1,-31,1,-22,1,-19,1,-15,1,-8,1
475,9,1,17,1,8,1,-13,1,1,1,13,1,-19,1,-32,1,-23,1,-19,1,-15,1,-9,1
476,9,1,18,1,9,1,-13,1,0,1,14,1,-21,1,-33,1,-23,1,-20,1,-15,1,-9,1
477,11,1,18,1,7,1,-14,1,2,1,13,1,-22,1,-33,1,-23,1,-20,1,-15,1,-9,1
478,12,1,18,1,6,1,-15,1,3,1,12,1,-22,1,-33,1,-24,1,-21,1,-16,1,-9,1
479,11,1,17,1,6,1,-14,1,3,1,12,1,-20,1,-33,1,-24,1,-22,1,-17,1,-9,1
480,10,1,16,1,6,1,-13,1,2,1,11,1,-20,1,-33,1,-24,1,-22,1,-17,1,-9,1
481,11,1,15,1,4,1,-13,1,4,1,10,1,-21,1,-34,1,-25,1,-23,1,-16,1,-9,1
482,13,1,14,1,1,1,-13,1,6,1,8,1,-21,1,-34,1,-25,1,-23,1,-16,1,-8,1
483,13,1,12,1,-1,1,-12,1,7,1,6,1,-22,1,-34,1,-26,1,-23,1,-16,1,-8,1
484,13,1,10,1,-3,1,-11,1,8,1,4,1,-22,1,-34,1,-26,1,-23,1,-16,1,-8,1
485,13,1,9,1,-4,1,-11,1,9,1,3,1,-21,1,-33,1,-24,1,-22,1,-16,1,-7,1
486,13,1,8,1,-5,1,-10,1,9,1,2,1,-21,1,-33,1,-24,1,-22,1,-16,1,-7,1
487,12,1,5,1,-7,1,-8,1,10,1,-1,1,-20,1,-32,1,-24,1,-22,1,-17,1,-7,1
488,10,1,3,1,-7,1,-6,1,9,1,-2,1,-19,1,-31,1,-24,1,-22,1,-18,1,-7,1
489,8,1,1,1,-7,1,-4,1,8,1,-3,1,-19,1,-31,1,-25,1,-22,1,-19,1,-7,1
490,6,1,0,1,-6,1,-3,1,6,1,-3,1,-18,1,-31,1,-25,1,-23,1,-18,1,-8,1
491,6,1,-2,1,-8,1,-2,1,7,1,-5,1,-17,1,-31,1,-25,1,-23,1,-17,1,-8,1
492,5,1,-3,1,-8,1,-1,1,6,1,-5,1,-16,1,-31,1,-25,1,-23,1,-17,1,-9,1
493,4,1,-5,1,-9,1,0,1,6,1,-7,1,-15,1,-31,1,-26,1,-24,1,-17,1,-9,1
494,3,1,-6,1,-9,1,1,1,6,1,-7,1,-15,1,-31,1,-26,1,-24,1,-18,1,-10,1
495,2,1,-7,1,-9,1,2,1,5,1,-8,1,-14,1,-31,1,-26,1,-24,1,-18,1,-10,1
496,1,1,-8,1,-9,1,3,1,5,1,-8,1,-14,1,-31,1,-26,1,-25,1,-19,1,-11,1
497,0,1,-9,1,-9,1,4,1,4,1,-9,1,-14,1,-31,1,-26,1,-26,1,-20,1,-12,1
498,0,1,-11,1,-11,1,5,1,5,1,-11,1,-14,1,-31,1,-26,1,-26,1,-20,1,-13,1
499,1,1,-12,1,-13,1,5,1,7,1,-12,1,-15,1,-32,1,-28,1,-28,1,-22,1,-14,1
500,2,1,-13,1,-15,1,5,1,8,1,-14,1,-16,1,-33,1,-30,1,-29,1,-23,1,-16,1
501,3,1,-14,1,-17,1,5,1,10,1,-15,1,-16,1,-34,1,-31,1,-30,1,-24,1,-17,1
502,2,1,-14,1,-16,1,6,1,9,1,-15,1,-16,1,-35,1,-32,1,-31,1,-25,1,-18,1
503,2,1,-14,1,-16,1,6,1,9,1,-15,1,-17,1,-35,1,-33,1,-32,1,-26,1,-19,1
504,0,1,-15,1,-15,1,7,1,7,1,-15,1,-17,1,-35,1,-33,1,-33,1,-27,1,-20,1
505,0,1,-15,1,-15,1,7,1,7,1,-15,1,-16,1,-35,1,-33,1,-33,1,-27,1,-19,1
506,-2,1,-16,1,-14,1,9,1,6,1,-15,1,-16,1,-34,1,-33,1,-33,1,-27,1,-19,1
507,-2,1,-16,1,-14,1,9,1,6,1,-15,1,-16,1,-35,1,-33,1,-34,1,-27,1,-18,1
508,-1,1,-16,1,-15,1,8,1,7,1,-16,1,-16,1,-35,1,-33,1,-34,1,-27,1,-18,1
509,0,1,-16,1,-16,1,8,1,8,1,-16,1,-16,1,-36,1,-34,1,-35,1,-28,1,-18,1
510,0,1,-16,1,-16,1,8,1,8,1,-16,1,-16,1,-36,1,-35,1,-36,1,-29,1,-19,1
511,0,1,-16,1,-16,1,8,1,8,1,-16,1,-15,1,-35,1,-35,1,-36,1,-29,1,-19,1
512,0,1,-16,1,-16,1,8,1,8,1,-16,1,-15,1,-35,1,-35,1,-37,1,-29,1,-19,1
513,-1,1,-16,1,-15,1,8,1,7,1,-16,1,-15,1,-35,1,-34,1,-37,1,-30,1,-19,1
514,-3,1,-17,1,-14,1,10,1,5,1,-16,1,-15,1,-35,1,-34,1,-36,1,-30,1,-19,1
515,-4,1,-16,1,-12,1,10,1,4,1,-14,1,-14,1,-34,1,-34,1,-36,1,-30,1,-19,1
516,-4,1,-15,1,-11,1,9,1,3,1,-13,1,-14,1,-34,1,-34,1,-36,1,-30,1,-19,1
517,-4,1,-15,1,-11,1,9,1,3,1,-13,1,-14,1,-34,1,-35,1,-36,1,-30,1,-19,1
518,-2,1,-15,1,-13,1,8,1,5,1,-14,1,-14,1,-33,1,-34,1,-36,1,-30,1,-20,1
519,0,1,-17,1,-17,1,8,1,8,1,-17,1,-13,1,-29,1,-31,1,-36,1,-31,1,-22,1
520,0,1,-19,1,-19,1,9,1,9,1,-19,1,-10,1,-23,1,-28,1,-35,1,-32,1,-23,1
521,0,1,-21,1,-21,1,10,1,10,1,-21,1,-4,1,-15,1,-23,1,-34,1,-33,1,-24,1
522,0,1,-20,1,-20,1,10,1,10,1,-20,1,1,1,-7,1,-18,1,-33,1,-34,1,-25,1
523,0,1,-19,1,-19,1,9,1,9,1,-19,1,7,1,1,1,-12,1,-30,1,-32,1,-24,1
524,1,1,-18,1,-19,1,8,1,10,1,-18,1,13,1,9,1,-5,1,-24,1,-30,1,-22,1
525,5,1,-16,1,-21,1,5,1,13,1,-18,1,19,1,16,1,2,1,-16,1,-24,1,-18,1
526,13,1,-11,1,-24,1,-1,1,18,1,-17,1,24,1,24,1,14,1,-2,1,-13,1,-10,1
527,21,1,-5,1,-26,1,-8,1,23,1,-15,1,29,1,36,1,34,1,20,1,7,1,3,1
528,32,1,4,1,-28,1,-18,1,30,1,-12,1,37,1,53,1,61,1,53,1,36,1,21,1
529,44,1,17,1,-27,1,-30,1,36,1,-5,1,43,1,71,1,92,1,89,1,69,1,44,1
530,58,1,33,1,-25,1,-45,1,42,1,4,1,46,1,83,1,120,1,125,1,104,1,69,1
531,70,1,47,1,-23,1,-58,1,47,1,12,1,42,1,85,1,139,1,157,1,139,1,96,1
532,82,1,63,1,-19,1,-72,1,51,1,22,1,28,1,74,1,149,1,186,1,173,1,124,1
533,93,1,80,1,-13,1,-86,1,53,1,34,1,9,1,54,1,151,1,209,1,203,1,149,1
534,99,1,91,1,-8,1,-95,1,54,1,42,1,-12,1,30,1,150,1,227,1,225,1,168,1
535,99,1,95,1,-4,1,-97,1,52,1,46,1,-31,1,4,1,144,1,234,1,235,1,175,1
536,94,1,93,1,-1,1,-93,1,48,1,46,1,-48,1,-21,1,135,1,232,1,232,1,173,1
537,85,1,88,1,3,1,-86,1,41,1,46,1,-62,1,-43,1,123,1,221,1,217,1,162,1
538,74,1,80,1,6,1,-77,1,34,1,43,1,-75,1,-61,1,108,1,202,1,193,1,144,1
539,61,1,75,1,14,1,-68,1,24,1,45,1,-90,1,-79,1,87,1,173,1,161,1,122,1
540,45,1,68,1,23,1,-56,1,11,1,46,1,-103,1,-96,1,58,1,135,1,122,1,96,1
541,28,1,62,1,34,1,-45,1,-3,1,48,1,-112,1,-115,1,19,1,88,1,84,1,72,1
542,11,1,56,1,45,1,-33,1,-17,1,51,1,-116,1,-132,1,-24,1,36,1,43,1,47,1
543,-3,1,49,1,52,1,-23,1,-27,1,50,1,-115,1,-139,1,-57,1,-6,1,9,1,25,1
544,-9,1,40,1,49,1,-15,1,-29,1,44,1,-110,1,-137,1,-74,1,-32,1,-13,1,9,1
545,-10,1,31,1,41,1,-10,1,-25,1,36,1,-103,1,-129,1,-80,1,-46,1,-27,1,-1,1
546,-9,1,23,1,32,1,-7,1,-20,1,27,1,-93,1,-116,1,-78,1,-52,1,-35,1,-9,1
547,-7,1,18,1,25,1,-5,1,-16,1,21,1,-83,1,-102,1,-73,1,-53,1,-38,1,-14,1
548,-6,1,14,1,20,1,-4,1,-13,1,17,1,-71,1,-89,1,-66,1,-50,1,-38,1,-16,1
549,-6,1,11,1,17,1,-2,1,-11,1,14,1,-57,1,-75,1,-58,1,-45,1,-36,1,-17,1
550,-5,1,7,1,12,1,-1,1,-8,1,9,1,-45,1,-63,1,-50,1,-39,1,-33,1,-17,1
551,-3,1,2,1,5,1,0,1,-4,1,3,1,-34,1,-52,1,-43,1,-35,1,-31,1,-17,1
552,-2,1,-2,1,0,1,2,1,-1,1,-1,1,-26,1,-44,1,-39,1,-34,1,-31,1,-18,1
553,-1,1,-6,1,-5,1,3,1,2,1,-6,1,-21,1,-37,1,-35,1,-33,1,-31,1,-18,1
554,-1,1,-8,1,-7,1,4,1,3,1,-8,1,-17,1,-32,1,-32,1,-33,1,-31,1,-19,1
555,-1,1,-9,1,-8,1,5,1,3,1,-9,1,-14,1,-28,1,-30,1,-33,1,-32,1,-20,1
556,-1,1,-10,1,-9,1,5,1,4,1,-10,1,-14,1,-26,1,-28,1,-34,1,-34,1,-21,1
557,-2,1,-11,1,-9,1,6,1,3,1,-10,1,-13,1,-26,1,-28,1,-35,1,-35,1,-23,1
558,-3,1,-12,1,-9,1,7,1,3,1,-11,1,-13,1,-26,1,-28,1,-35,1,-36,1,-24,1
559,-4,1,-12,1,-8,1,8,1,2,1,-10,1,-13,1,-26,1,-28,1,-36,1,-38,1,-25,1
560,-4,1,-13,1,-9,1,8,1,2,1,-11,1,-12,1,-26,1,-29,1,-37,1,-39,1,-25,1
561,-4,1,-15,1,-11,1,9,1,3,1,-13,1,-10,1,-25,1,-30,1,-37,1,-39,1,-25,1
562,-4,1,-16,1,-12,1,10,1,4,1,-14,1,-8,1,-24,1,-30,1,-38,1,-39,1,-26,1
563,-5,1,-17,1,-12,1,11,1,3,1,-15,1,-8,1,-23,1,-30,1,-38,1,-39,1,-27,1
564,-5,1,-17,1,-12,1,11,1,3,1,-15,1,-8,1,-22,1,-30,1,-38,1,-39,1,-27,1
565,-4,1,-16,1,-12,1,10,1,4,1,-14,1,-8,1,-22,1,-30,1,-38,1,-39,1,-27,1
566,-4,1,-15,1,-11,1,9,1,3,1,-13,1,-8,1,-22,1,-30,1,-39,1,-40,1,-28,1
567,-4,1,-15,1,-11,1,9,1,3,1,-13,1,-8,1,-22,1,-30,1,-38,1,-41,1,-28,1
568,-4,1,-16,1,-12,1,10,1,4,1,-14,1,-8,1,-22,1,-30,1,-39,1,-42,1,-28,1
569,-4,1,-16,1,-12,1,10,1,4,1,-14,1,-8,1,-23,1,-31,1,-40,1,-43,1,-29,1
570,-4,1,-16,1,-12,1,10,1,4,1,-14,1,-7,1,-22,1,-31,1,-40,1,-43,1,-29,1
571,-3,1,-16,1,-13,1,9,1,5,1,-15,1,-7,1,-22,1,-31,1,-40,1,-44,1,-29,1
572,-3,1,-16,1,-13,1,9,1,5,1,-15,1,-7,1,-22,1,-31,1,-40,1,-44,1,-29,1
573,-3,1,-15,1,-12,1,9,1,4,1,-14,1,-7,1,-21,1,-30,1,-39,1,-43,1,-29,1
574,-3,1,-16,1,-13,1,9,1,5,1,-15,1,-7,1,-21,1,-30,1,-39,1,-42,1,-28,1
575,-3,1,-16,1,-13,1,9,1,5,1,-15,1,-7,1,-21,1,-29,1,-39,1,-42,1,-28,1
576,-2,1,-16,1,-14,1,9,1,6,1,-15,1,-7,1,-21,1,-29,1,-39,1,-42,1,-28,1
577,-3,1,-16,1,-13,1,9,1,5,1,-15,1,-7,1,-20,1,-29,1,-39,1,-43,1,-28,1
578,-4,1,-16,1,-12,1,10,1,4,1,-14,1,-6,1,-20,1,-28,1,-39,1,-43,1,-27,1
579,-5,1,-15,1,-10,1,10,1,2,1,-13,1,-5,1,-19,1,-28,1,-38,1,-43,1,-27,1
580,-5,1,-15,1,-10,1,10,1,2,1,-13,1,-5,1,-19,1,-28,1,-38,1,-44,1,-27,1
581,-5,1,-16,1,-11,1,10,1,3,1,-14,1,-5,1,-20,1,-28,1,-38,1,-44,1,-27,1
582,-6,1,-16,1,-10,1,11,1,2,1,-13,1,-4,1,-20,1,-28,1,-38,1,-44,1,-27,1
583,-7,1,-16,1,-9,1,11,1,1,1,-13,1,-4,1,-20,1,-28,1,-37,1,-43,1,-27,1
584,-7,1,-16,1,-9,1,11,1,1,1,-13,1,-4,1,-20,1,-27,1,-37,1,-42,1,-27,1
585,-6,1,-15,1,-9,1,10,1,1,1,-12,1,-4,1,-19,1,-27,1,-37,1,-42,1,-27,1
586,-5,1,-15,1,-10,1,10,1,2,1,-13,1,-4,1,-19,1,-27,1,-38,1,-42,1,-27,1
587,-5,1,-15,1,-10,1,10,1,2,1,-13,1,-5,1,-19,1,-28,1,-38,1,-43,1,-27,1
588,-5,1,-14,1,-9,1,9,1,2,1,-12,1,-5,1,-19,1,-27,1,-37,1,-43,1,-27,1
589,-4,1,-14,1,-10,1,9,1,3,1,-12,1,-5,1,-18,1,-27,1,-37,1,-42,1,-27,1
590,-3,1,-13,1,-10,1,8,1,3,1,-12,1,-5,1,-17,1,-27,1,-38,1,-43,1,-28,1
591,-3,1,-13,1,-10,1,8,1,3,1,-12,1,-4,1,-16,1,-26,1,-37,1,-41,1,-28,1
592,-6,1,-13,1,-7,1,9,1,0,1,-10,1,-4,1,-16,1,-26,1,-37,1,-41,1,-27,1
593,-7,1,-13,1,-6,1,10,1,-1,1,-10,1,-3,1,-16,1,-25,1,-36,1,-41,1,-26,1
594,-6,1,-13,1,-7,1,9,1,0,1,-10,1,-3,1,-16,1,-25,1,-36,1,-41,1,-26,1
595,-5,1,-14,1,-9,1,9,1,2,1,-12,1,-3,1,-15,1,-25,1,-35,1,-42,1,-26,1
596,-4,1,-13,1,-9,1,8,1,2,1,-11,1,-3,1,-15,1,-24,1,-35,1,-41,1,-26,1
597,-3,1,-14,1,-11,1,8,1,4,1,-13,1,-3,1,-15,1,-25,1,-35,1,-42,1,-26,1
598,-2,1,-14,1,-12,1,8,1,5,1,-13,1,-3,1,-15,1,-25,1,-36,1,-42,1,-26,1
599,-1,1,-14,1,-13,1,7,1,6,1,-14,1,-4,1,-14,1,-26,1,-36,1,-42,1,-27,1
600,0,1,-13,1,-13,1,6,1,6,1,-13,1,-4,1,-14,1,-26,1,-37,1,-43,1,-28,1
601,2,1,-13,1,-15,1,5,1,8,1,-14,1,-4,1,-14,1,-26,1,-36,1,-43,1,-29,1
602,2,1,-13,1,-15,1,5,1,8,1,-14,1,-4,1,-13,1,-24,1,-35,1,-42,1,-29,1
603,0,1,-13,1,-13,1,6,1,6,1,-13,1,-3,1,-13,1,-23,1,-34,1,-42,1,-29,1
604,-1,1,-13,1,-12,1,7,1,5,1,-13,1,-3,1,-13,1,-23,1,-34,1,-42,1,-29,1
605,-1,1,-13,1,-12,1,7,1,5,1,-13,1,-3,1,-13,1,-23,1,-34,1,-42,1,-28,1
606,-2,1,-12,1,-10,1,7,1,4,1,-11,1,-2,1,-12,1,-22,1,-33,1,-41,1,-27,1
607,-3,1,-12,1,-9,1,7,1,3,1,-11,1,-2,1,-11,1,-22,1,-33,1,-40,1,-26,1
608,-3,1,-12,1,-9,1,7,1,3,1,-11,1,-2,1,-10,1,-21,1,-33,1,-40,1,-26,1
609,-3,1,-12,1,-9,1,7,1,3,1,-11,1,-1,1,-10,1,-22,1,-32,1,-40,1,-26,1
610,-3,1,-12,1,-9,1,7,1,3,1,-11,1,-1,1,-9,1,-21,1,-32,1,-40,1,-26,1
611,-1,1,-11,1,-10,1,6,1,4,1,-11,1,-1,1,-9,1,-20,1,-31,1,-40,1,-26,1
612,-1,1,-12,1,-11,1,6,1,5,1,-12,1,-1,1,-9,1,-20,1,-31,1,-40,1,-26,1
613,-1,1,-12,1,-11,1,6,1,5,1,-12,1,-1,1,-8,1,-20,1,-30,1,-41,1,-25,1
614,0,1,-11,1,-11,1,5,1,5,1,-11,1,-1,1,-8,1,-19,1,-30,1,-40,1,-25,1
615,0,1,-11,1,-11,1,5,1,5,1,-11,1,-1,1,-8,1,-19,1,-30,1,-39,1,-25,1
616,0,1,-11,1,-11,1,5,1,5,1,-11,1,-1,1,-8,1,-18,1,-30,1,-39,1,-25,1
617,-1,1,-11,1,-10,1,6,1,4,1,-11,1,-1,1,-7,1,-18,1,-29,1,-38,1,-24,1
618,0,1,-10,1,-10,1,5,1,5,1,-10,1,-1,1,-6,1,-16,1,-28,1,-38,1,-24,1
619,0,1,-9,1,-9,1,4,1,4,1,-9,1,-1,1,-5,1,-16,1,-27,1,-37,1,-24,1
620,1,1,-8,1,-9,1,3,1,5,1,-8,1,-1,1,-5,1,-16,1,-27,1,-37,1,-26,1
621,1,1,-7,1,-8,1,3,1,4,1,-7,1,-1,1,-5,1,-16,1,-27,1,-37,1,-26,1
622,1,1,-8,1,-9,1,3,1,5,1,-8,1,-1,1,-5,1,-15,1,-26,1,-37,1,-26,1
623,1,1,-8,1,-9,1,3,1,5,1,-8,1,-1,1,-5,1,-14,1,-25,1,-37,1,-25,1
624,1,1,-7,1,-8,1,3,1,4,1,-7,1,0,1,-3,1,-12,1,-25,1,-36,1,-24,1
625,1,1,-7,1,-8,1,3,1,4,1,-7,1,0,1,-2,1,-10,1,-23,1,-35,1,-22,1
626,0,1,-7,1,-7,1,3,1,3,1,-7,1,0,1,-2,1,-8,1,-22,1,-35,1,-22,1
627,0,1,-7,1,-7,1,3,1,3,1,-7,1,1,1,-1,1,-8,1,-21,1,-34,1,-21,1
628,1,1,-7,1,-8,1,3,1,4,1,-7,1,1,1,0,1,-8,1,-21,1,-34,1,-21,1
629,3,1,-7,1,-10,1,2,1,6,1,-8,1,1,1,0,1,-7,1,-19,1,-34,1,-22,1
630,5,1,-8,1,-13,1,1,1,9,1,-10,1,1,1,1,1,-6,1,-18,1,-33,1,-22,1
631,5,1,-7,1,-12,1,1,1,8,1,-9,1,1,1,2,1,-4,1,-17,1,-32,1,-22,1
632,5,1,-7,1,-12,1,1,1,8,1,-9,1,1,1,3,1,-3,1,-16,1,-31,1,-22,1
633,6,1,-6,1,-12,1,0,1,9,1,-9,1,0,1,3,1,-2,1,-15,1,-31,1,-20,1
634,5,1,-5,1,-10,1,0,1,7,1,-7,1,0,1,4,1,-1,1,-15,1,-30,1,-19,1
635,7,1,-4,1,-11,1,-1,1,9,1,-7,1,0,1,5,1,0,1,-14,1,-30,1,-18,1
636,7,1,-4,1,-11,1,-1,1,9,1,-7,1,0,1,6,1,0,1,-13,1,-29,1,-17,1
637,6,1,-3,1,-9,1,-1,1,7,1,-6,1,0,1,7,1,1,1,-12,1,-28,1,-16,1
638,7,1,-2,1,-9,1,-2,1,8,1,-5,1,1,1,8,1,2,1,-11,1,-27,1,-16,1
639,7,1,-2,1,-9,1,-2,1,8,1,-5,1,2,1,10,1,3,1,-10,1,-26,1,-16,1
640,8,1,-2,1,-10,1,-3,1,9,1,-6,1,2,1,11,1,4,1,-8,1,-26,1,-17,1
641,9,1,-2,1,-11,1,-3,1,10,1,-6,1,2,1,12,1,5,1,-6,1,-24,1,-17,1
642,10,1,-1,1,-11,1,-4,1,10,1,-6,1,2,1,13,1,7,1,-5,1,-23,1,-16,1
643,10,1,-1,1,-11,1,-4,1,10,1,-6,1,2,1,14,1,8,1,-4,1,-21,1,-15,1
644,12,1,0,1,-12,1,-6,1,12,1,-6,1,2,1,15,1,10,1,-2,1,-20,1,-14,1
645,13,1,0,1,-13,1,-6,1,13,1,-6,1,2,1,16,1,12,1,-2,1,-19,1,-13,1
646,13,1,0,1,-13,1,-6,1,13,1,-6,1,2,1,16,1,13,1,0,1,-18,1,-12,1
647,13,1,1,1,-12,1,-7,1,13,1,-5,1,2,1,17,1,14,1,1,1,-17,1,-10,1
648,15,1,2,1,-13,1,-8,1,14,1,-5,1,3,1,19,1,16,1,3,1,-16,1,-8,1
649,15,1,3,1,-12,1,-9,1,14,1,-4,1,3,1,20,1,17,1,4,1,-14,1,-7,1
650,16,1,3,1,-13,1,-9,1,15,1,-5,1,2,1,21,1,17,1,6,1,-13,1,-7,1
651,17,1,4,1,-13,1,-10,1,15,1,-4,1,2,1,22,1,18,1,7,1,-12,1,-6,1
652,17,1,5,1,-12,1,-11,1,15,1,-3,1,2,1,23,1,20,1,8,1,-10,1,-6,1
653,16,1,6,1,-10,1,-11,1,13,1,-2,1,2,1,24,1,21,1,10,1,-8,1,-5,1
654,16,1,7,1,-9,1,-11,1,13,1,-1,1,2,1,25,1,23,1,12,1,-6,1,-3,1
655,18,1,8,1,-10,1,-13,1,14,1,-1,1,2,1,25,1,24,1,14,1,-4,1,-2,1
656,19,1,9,1,-10,1,-14,1,15,1,0,1,2,1,26,1,26,1,15,1,-3,1,-2,1
657,20,1,10,1,-10,1,-15,1,15,1,0,1,2,1,26,1,26,1,16,1,-1,1,0,1
658,20,1,10,1,-10,1,-15,1,15,1,0,1,3,1,28,1,28,1,17,1,0,1,0,1
659,22,1,11,1,-11,1,-16,1,17,1,0,1,2,1,28,1,29,1,18,1,2,1,2,1
660,24,1,12,1,-12,1,-18,1,18,1,0,1,1,1,28,1,29,1,19,1,3,1,2,1
661,24,1,13,1,-11,1,-18,1,18,1,1,1,1,1,28,1,30,1,21,1,4,1,3,1
662,23,1,14,1,-9,1,-18,1,16,1,3,1,1,1,29,1,31,1,23,1,5,1,5,1
663,22,1,15,1,-7,1,-18,1,15,1,4,1,1,1,29,1,31,1,24,1,6,1,6,1
664,22,1,16,1,-6,1,-19,1,14,1,5,1,1,1,28,1,31,1,25,1,7,1,7,1
665,23,1,16,1,-7,1,-19,1,15,1,5,1,1,1,28,1,31,1,25,1,7,1,7,1
666,23,1,17,1,-6,1,-20,1,15,1,6,1,1,1,28,1,32,1,26,1,8,1,8,1
667,22,1,17,1,-5,1,-19,1,14,1,6,1,0,1,28,1,33,1,27,1,10,1,9,1
668,22,1,17,1,-5,1,-19,1,14,1,6,1,0,1,28,1,33,1,28,1,11,1,10,1
669,24,1,18,1,-6,1,-21,1,15,1,6,1,-1,1,27,1,33,1,29,1,12,1,11,1
670,25,1,19,1,-6,1,-22,1,16,1,7,1,-2,1,27,1,32,1,29,1,12,1,12,1
671,26,1,19,1,-7,1,-22,1,17,1,6,1,-2,1,26,1,32,1,29,1,13,1,12,1
672,26,1,19,1,-7,1,-22,1,17,1,6,1,-2,1,25,1,32,1,28,1,13,1,12,1
673,27,1,20,1,-7,1,-23,1,17,1,7,1,-3,1,24,1,31,1,28,1,14,1,12,1
674,27,1,19,1,-8,1,-23,1,18,1,6,1,-3,1,23,1,30,1,29,1,14,1,12,1
675,26,1,19,1,-7,1,-22,1,17,1,6,1,-4,1,23,1,30,1,29,1,15,1,12,1
676,27,1,20,1,-7,1,-23,1,17,1,7,1,-4,1,23,1,30,1,29,1,15,1,12,1
677,26,1,20,1,-6,1,-23,1,16,1,7,1,-5,1,22,1,30,1,29,1,15,1,12,1
678,25,1,21,1,-4,1,-23,1,15,1,9,1,-5,1,21,1,29,1,29,1,15,1,12,1
679,23,1,20,1,-3,1,-21,1,13,1,9,1,-5,1,19,1,29,1,29,1,15,1,11,1
680,23,1,20,1,-3,1,-21,1,13,1,9,1,-5,1,19,1,27,1,28,1,14,1,11,1
681,22,1,18,1,-4,1,-20,1,13,1,7,1,-5,1,18,1,26,1,27,1,13,1,11,1
682,22,1,18,1,-4,1,-20,1,13,1,7,1,-5,1,17,1,24,1,25,1,12,1,10,1
683,23,1,17,1,-6,1,-20,1,15,1,6,1,-6,1,16,1,22,1,23,1,11,1,9,1
684,22,1,16,1,-6,1,-19,1,14,1,5,1,-7,1,15,1,21,1,21,1,10,1,8,1
685,21,1,15,1,-6,1,-18,1,14,1,5,1,-8,1,14,1,19,1,20,1,9,1,7,1
686,20,1,15,1,-5,1,-17,1,13,1,5,1,-8,1,12,1,18,1,18,1,7,1,7,1
687,20,1,14,1,-6,1,-17,1,13,1,4,1,-8,1,11,1,16,1,17,1,6,1,6,1
688,20,1,13,1,-7,1,-16,1,14,1,3,1,-8,1,9,1,15,1,15,1,4,1,5,1
689,19,1,12,1,-7,1,-15,1,13,1,3,1,-7,1,8,1,12,1,12,1,2,1,3,1
690,17,1,11,1,-6,1,-14,1,12,1,3,1,-7,1,7,1,10,1,11,1,0,1,2,1
691,15,1,10,1,-5,1,-12,1,10,1,3,1,-7,1,6,1,8,1,9,1,-1,1,1,1
692,14,1,9,1,-5,1,-11,1,10,1,2,1,-6,1,5,1,7,1,8,1,-2,1,0,1
693,12,1,7,1,-5,1,-9,1,9,1,1,1,-7,1,3,1,4,1,5,1,-5,1,-1,1
694,12,1,6,1,-6,1,-9,1,9,1,0,1,-8,1,2,1,2,1,3,1,-7,1,-3,1
695,12,1,5,1,-7,1,-8,1,10,1,-1,1,-9,1,0,1,0,1,0,1,-10,1,-4,1
696,9,1,4,1,-5,1,-6,1,7,1,0,1,-9,1,0,1,0,1,-1,1,-12,1,-5,1
697,8,1,4,1,-4,1,-6,1,6,1,0,1,-9,1,-1,1,-2,1,-4,1,-13,1,-6,1
698,8,1,3,1,-5,1,-5,1,7,1,-1,1,-9,1,-2,1,-4,1,-6,1,-15,1,-8,1
699,8,1,3,1,-5,1,-5,1,7,1,-1,1,-9,1,-4,1,-6,1,-9,1,-17,1,-10,1
700,8,1,1,1,-7,1,-4,1,8,1,-3,1,-10,1,-6,1,-8,1,-10,1,-19,1,-12,1
701,9,1,0,1,-9,1,-4,1,9,1,-4,1,-10,1,-8,1,-10,1,-12,1,-21,1,-13,1
702,7,1,0,1,-7,1,-3,1,7,1,-3,1,-10,1,-9,1,-12,1,-14,1,-23,1,-15,1
703,7,1,-1,1,-8,1,-3,1,7,1,-4,1,-10,1,-10,1,-13,1,-16,1,-25,1,-16,1
704,6,1,-1,1,-7,1,-2,1,6,1,-4,1,-9,1,-10,1,-13,1,-17,1,-26,1,-17,1
705,4,1,-1,1,-5,1,-1,1,4,1,-3,1,-9,1,-10,1,-13,1,-18,1,-26,1,-18,1
706,2,1,-2,1,-4,1,0,1,3,1,-3,1,-8,1,-10,1,-14,1,-18,1,-27,1,-20,1
707,1,1,-3,1,-4,1,1,1,2,1,-3,1,-8,1,-11,1,-15,1,-19,1,-27,1,-20,1
708,2,1,-4,1,-6,1,1,1,4,1,-5,1,-8,1,-11,1,-16,1,-20,1,-28,1,-21,1
709,1,1,-5,1,-6,1,2,1,3,1,-5,1,-9,1,-12,1,-17,1,-22,1,-29,1,-22,1
710,0,1,-6,1,-6,1,3,1,3,1,-6,1,-10,1,-13,1,-18,1,-23,1,-29,1,-22,1
711,-1,1,-7,1,-6,1,4,1,2,1,-7,1,-10,1,-13,1,-19,1,-24,1,-30,1,-22,1
712,-1,1,-7,1,-6,1,4,1,2,1,-7,1,-10,1,-13,1,-19,1,-25,1,-31,1,-22,1
713,-3,1,-8,1,-5,1,5,1,1,1,-7,1,-10,1,-13,1,-19,1,-25,1,-31,1,-23,1
714,-2,1,-8,1,-6,1,5,1,2,1,-7,1,-10,1,-14,1,-20,1,-26,1,-32,1,-23,1
715,-1,1,-9,1,-8,1,5,1,3,1,-9,1,-9,1,-14,1,-20,1,-27,1,-32,1,-23,1
716,-1,1,-10,1,-9,1,5,1,4,1,-10,1,-9,1,-14,1,-21,1,-27,1,-32,1,-23,1
717,-2,1,-10,1,-8,1,6,1,3,1,-9,1,-9,1,-14,1,-21,1,-27,1,-32,1,-22,1
718,-2,1,-10,1,-8,1,6,1,3,1,-9,1,-9,1,-14,1,-21,1,-27,1,-32,1,-22,1
719,-1,1,-10,1,-9,1,5,1,4,1,-10,1,-10,1,-13,1,-22,1,-27,1,-33,1,-22,1
720,0,1,-10,1,-10,1,5,1,5,1,-10,1,-10,1,-13,1,-22,1,-27,1,-33,1,-22,1
721,-1,1,-10,1,-9,1,5,1,4,1,-10,1,-10,1,-12,1,-22,1,-27,1,-33,1,-22,1
722,-2,1,-10,1,-8,1,6,1,3,1,-9,1,-10,1,-12,1,-21,1,-27,1,-33,1,-23,1
723,-3,1,-10,1,-7,1,6,1,2,1,-9,1,-9,1,-13,1,-22,1,-26,1,-33,1,-23,1
724,-2,1,-10,1,-8,1,6,1,3,1,-9,1,-9,1,-14,1,-22,1,-26,1,-33,1,-23,1
725,-2,1,-10,1,-8,1,6,1,3,1,-9,1,-8,1,-14,1,-21,1,-26,1,-33,1,-23,1
726,-3,1,-10,1,-7,1,6,1,2,1,-9,1,-8,1,-14,1,-21,1,-25,1,-32,1,-22,1
727,-3,1,-10,1,-7,1,6,1,2,1,-9,1,-9,1,-14,1,-22,1,-25,1,-32,1,-22,1
728,-3,1,-10,1,-7,1,6,1,2,1,-9,1,-9,1,-13,1,-22,1,-26,1,-32,1,-22,1
729,-2,1,-10,1,-8,1,6,1,3,1,-9,1,-8,1,-13,1,-22,1,-26,1,-32,1,-22,1
730,-2,1,-10,1,-8,1,6,1,3,1,-9,1,-8,1,-13,1,-21,1,-26,1,-32,1,-23,1
731,-2,1,-9,1,-7,1,5,1,2,1,-8,1,-8,1,-13,1,-21,1,-26,1,-32,1,-23,1
732,-1,1,-9,1,-8,1,5,1,3,1,-9,1,-8,1,-13,1,-20,1,-27,1,-33,1,-22,1
733,0,1,-9,1,-9,1,4,1,4,1,-9,1,-8,1,-13,1,-20,1,-27,1,-33,1,-22,1
734,1,1,-9,1,-10,1,4,1,5,1,-9,1,-8,1,-13,1,-21,1,-27,1,-33,1,-22,1
735,0,1,-9,1,-9,1,4,1,4,1,-9,1,-8,1,-13,1,-21,1,-27,1,-33,1,-22,1
736,0,1,-9,1,-9,1,4,1,4,1,-9,1,-8,1,-13,1,-21,1,-27,1,-33,1,-22,1
737,1,1,-9,1,-10,1,4,1,5,1,-9,1,-9,1,-13,1,-21,1,-26,1,-33,1,-23,1
738,0,1,-8,1,-8,1,4,1,4,1,-8,1,-8,1,-13,1,-21,1,-25,1,-32,1,-22,1
739,0,1,-8,1,-8,1,4,1,4,1,-8,1,-8,1,-13,1,-20,1,-24,1,-32,1,-22,1
740,-1,1,-8,1,-7,1,4,1,3,1,-8,1,-8,1,-13,1,-21,1,-25,1,-33,1,-22,1
741,0,1,-8,1,-8,1,4,1,4,1,-8,1,-8,1,-13,1,-21,1,-25,1,-32,1,-22,1
742,0,1,-8,1,-8,1,4,1,4,1,-8,1,-8,1,-13,1,-21,1,-26,1,-33,1,-22,1
743,-1,1,-9,1,-8,1,5,1,3,1,-9,1,-8,1,-13,1,-21,1,-26,1,-33,1,-22,1
744,-1,1,-9,1,-8,1,5,1,3,1,-9,1,-8,1,-13,1,-21,1,-26,1,-33,1,-21,1
745,-2,1,-9,1,-7,1,5,1,2,1,-8,1,-8,1,-12,1,-21,1,-25,1,-32,1,-20,1
746,-1,1,-9,1,-8,1,5,1,3,1,-9,1,-8,1,-12,1,-21,1,-24,1,-32,1,-20,1
747,0,1,-9,1,-9,1,4,1,4,1,-9,1,-9,1,-11,1,-21,1,-24,1,-31,1,-20,1
748,0,1,-9,1,-9,1,4,1,4,1,-9,1,-9,1,-11,1,-20,1,-24,1,-31,1,-20,1
749,1,1,-9,1,-10,1,4,1,5,1,-9,1,-9,1,-12,1,-21,1,-25,1,-31,1,-20,1
750,1,1,-9,1,-10,1,4,1,5,1,-9,1,-9,1,-13,1,-21,1,-25,1,-32,1,-20,1
751,2,1,-9,1,-11,1,3,1,6,1,-10,1,-10,1,-13,1,-21,1,-26,1,-33,1,-21,1
752,2,1,-9,1,-11,1,3,1,6,1,-10,1,-10,1,-13,1,-21,1,-26,1,-33,1,-21,1
753,1,1,-9,1,-10,1,4,1,5,1,-9,1,-10,1,-13,1,-21,1,-26,1,-33,1,-21,1
754,1,1,-9,1,-10,1,4,1,5,1,-9,1,-10,1,-13,1,-22,1,-26,1,-33,1,-21,1
755,0,1,-9,1,-9,1,4,1,4,1,-9,1,-9,1,-13,1,-22,1,-25,1,-32,1,-20,1
756,-1,1,-8,1,-7,1,4,1,3,1,-8,1,-9,1,-12,1,-22,1,-25,1,-31,1,-20,1
757,-2,1,-8,1,-6,1,5,1,2,1,-7,1,-9,1,-12,1,-22,1,-24,1,-30,1,-19,1
758,-2,1,-7,1,-5,1,4,1,1,1,-6,1,-9,1,-11,1,-21,1,-24,1,-29,1,-18,1
759,-1,1,-7,1,-6,1,4,1,2,1,-7,1,-10,1,-12,1,-20,1,-24,1,-29,1,-18,1
760,0,1,-7,1,-7,1,3,1,3,1,-7,1,-10,1,-12,1,-19,1,-24,1,-29,1,-18,1
761,0,1,-7,1,-7,1,3,1,3,1,-7,1,-11,1,-12,1,-19,1,-24,1,-28,1,-18,1
762,0,1,-8,1,-8,1,4,1,4,1,-8,1,-11,1,-12,1,-19,1,-24,1,-28,1,-18,1
763,0,1,-8,1,-8,1,4,1,4,1,-8,1,-11,1,-12,1,-19,1,-24,1,-28,1,-17,1
764,0,1,-8,1,-8,1,4,1,4,1,-8,1,-11,1,-13,1,-19,1,-25,1,-28,1,-17,1
765,2,1,-9,1,-11,1,3,1,6,1,-10,1,-11,1,-13,1,-19,1,-26,1,-28,1,-17,1
766,2,1,-9,1,-11,1,3,1,6,1,-10,1,-11,1,-13,1,-20,1,-26,1,-28,1,-17,1
767,2,1,-8,1,-10,1,3,1,6,1,-9,1,-11,1,-13,1,-20,1,-25,1,-28,1,-17,1
768,2,1,-8,1,-10,1,3,1,6,1,-9,1,-11,1,-12,1,-19,1,-25,1,-27,1,-16,1
769,1,1,-8,1,-9,1,3,1,5,1,-8,1,-11,1,-12,1,-18,1,-24,1,-27,1,-16,1
770,0,1,-7,1,-7,1,3,1,3,1,-7,1,-11,1,-12,1,-19,1,-24,1,-27,1,-16,1
771,0,1,-7,1,-7,1,3,1,3,1,-7,1,-11,1,-12,1,-18,1,-23,1,-26,1,-17,1
772,-1,1,-5,1,-4,1,3,1,1,1,-5,1,-11,1,-12,1,-18,1,-23,1,-26,1,-17,1
773,-1,1,-5,1,-4,1,3,1,1,1,-5,1,-12,1,-13,1,-19,1,-24,1,-26,1,-17,1
774,-1,1,-4,1,-3,1,2,1,1,1,-4,1,-12,1,-13,1,-20,1,-23,1,-26,1,-16,1
775,-1,1,-5,1,-4,1,3,1,1,1,-5,1,-12,1,-13,1,-20,1,-23,1,-26,1,-16,1
776,0,1,-5,1,-5,1,2,1,2,1,-5,1,-12,1,-13,1,-20,1,-23,1,-26,1,-16,1
777,-1,1,-5,1,-4,1,3,1,1,1,-5,1,-12,1,-14,1,-21,1,-24,1,-26,1,-16,1
778,-1,1,-6,1,-5,1,3,1,2,1,-6,1,-12,1,-13,1,-21,1,-23,1,-26,1,-16,1
779,-1,1,-6,1,-5,1,3,1,2,1,-6,1,-12,1,-13,1,-20,1,-23,1,-26,1,-17,1
780,0,1,-7,1,-7,1,3,1,3,1,-7,1,-12,1,-14,1,-20,1,-24,1,-26,1,-17,1
781,0,1,-7,1,-7,1,3,1,3,1,-7,1,-12,1,-15,1,-20,1,-24,1,-25,1,-18,1
782,0,1,-7,1,-7,1,3,1,3,1,-7,1,-12,1,-14,1,-20,1,-24,1,-25,1,-17,1
783,0,1,-7,1,-7,1,3,1,3,1,-7,1,-13,1,-15,1,-20,1,-24,1,-25,1,-17,1
784,0,1,-7,1,-7,1,3,1,3,1,-7,1,-13,1,-15,1,-20,1,-24,1,-25,1,-16,1
785,1,1,-7,1,-8,1,3,1,4,1,-7,1,-14,1,-15,1,-21,1,-24,1,-26,1,-16,1
786,1,1,-6,1,-7,1,2,1,4,1,-6,1,-13,1,-15,1,-21,1,-24,1,-26,1,-16,1
787,0,1,-6,1,-6,1,3,1,3,1,-6,1,-13,1,-15,1,-21,1,-24,1,-26,1,-16,1
788,0,1,-6,1,-6,1,3,1,3,1,-6,1,-13,1,-15,1,-22,1,-24,1,-26,1,-16,1
789,0,1,-5,1,-5,1,2,1,2,1,-5,1,-13,1,-15,1,-23,1,-25,1,-26,1,-16,1
790,0,1,-5,1,-5,1,2,1,2,1,-5,1,-12,1,-16,1,-23,1,-25,1,-26,1,-15,1
791,1,1,-5,1,-6,1,2,1,3,1,-5,1,-12,1,-15,1,-23,1,-25,1,-26,1,-15,1
792,1,1,-6,1,-7,1,2,1,4,1,-6,1,-12,1,-15,1,-22,1,-25,1,-27,1,-15,1
793,1,1,-6,1,-7,1,2,1,4,1,-6,1,-13,1,-15,1,-22,1,-25,1,-27,1,-14,1
794,2,1,-6,1,-8,1,2,1,5,1,-7,1,-14,1,-16,1,-23,1,-25,1,-27,1,-15,1
795,3,1,-6,1,-9,1,1,1,6,1,-7,1,-14,1,-16,1,-23,1,-25,1,-28,1,-15,1
796,3,1,-6,1,-9,1,1,1,6,1,-7,1,-14,1,-17,1,-24,1,-25,1,-28,1,-16,1
797,3,1,-6,1,-9,1,1,1,6,1,-7,1,-13,1,-17,1,-24,1,-25,1,-27,1,-16,1
798,2,1,-6,1,-8,1,2,1,5,1,-7,1,-13,1,-17,1,-24,1,-25,1,-27,1,-16,1
799,1,1,-6,1,-7,1,2,1,4,1,-6,1,-13,1,-17,1,-24,1,-26,1,-27,1,-16,1
800,0,1,-7,1,-7,1,3,1,3,1,-7,1,-13,1,-17,1,-24,1,-26,1,-27,1,-16,1
801,0,1,-6,1,-6,1,3,1,3,1,-6,1,-14,1,-17,1,-24,1,-26,1,-27,1,-16,1
802,-1,1,-6,1,-5,1,3,1,2,1,-6,1,-14,1,-17,1,-23,1,-27,1,-26,1,-15,1
803,-1,1,-7,1,-6,1,4,1,2,1,-7,1,-15,1,-17,1,-24,1,-27,1,-26,1,-15,1
804,-1,1,-8,1,-7,1,4,1,3,1,-8,1,-16,1,-17,1,-24,1,-26,1,-25,1,-15,1
805,0,1,-7,1,-7,1,3,1,3,1,-7,1,-16,1,-17,1,-24,1,-25,1,-25,1,-15,1
806,0,1,-7,1,-7,1,3,1,3,1,-7,1,-16,1,-17,1,-24,1,-25,1,-25,1,-16,1
807,-1,1,-8,1,-7,1,4,1,3,1,-8,1,-15,1,-18,1,-24,1,-25,1,-26,1,-16,1
808,-1,1,-8,1,-7,1,4,1,3,1,-8,1,-15,1,-17,1,-23,1,-25,1,-25,1,-16,1
809,-1,1,-8,1,-7,1,4,1,3,1,-8,1,-15,1,-17,1,-22,1,-26,1,-25,1,-16,1
810,-1,1,-8,1,-7,1,4,1,3,1,-8,1,-15,1,-17,1,-23,1,-26,1,-25,1,-16,1
811,0,1,-8,1,-8,1,4,1,4,1,-8,1,-15,1,-17,1,-24,1,-26,1,-25,1,-16,1
812,0,1,-8,1,-8,1,4,1,4,1,-8,1,-15,1,-17,1,-24,1,-26,1,-25,1,-16,1
813,-1,1,-8,1,-7,1,4,1,3,1,-8,1,-15,1,-17,1,-25,1,-27,1,-25,1,-16,1
814,-1,1,-8,1,-7,1,4,1,3,1,-8,1,-15,1,-17,1,-25,1,-27,1,-25,1,-15,1
815,-2,1,-8,1,-6,1,5,1,2,1,-7,1,-15,1,-17,1,-25,1,-27,1,-25,1,-15,1
816,-3,1,-7,1,-4,1,5,1,0,1,-6,1,-15,1,-18,1,-25,1,-27,1,-25,1,-15,1
817,-3,1,-7,1,-4,1,5,1,0,1,-6,1,-16,1,-18,1,-25,1,-27,1,-25,1,-15,1
818,-2,1,-8,1,-6,1,5,1,2,1,-7,1,-16,1,-17,1,-25,1,-27,1,-24,1,-15,1
819,0,1,-8,1,-8,1,4,1,4,1,-8,1,-16,1,-17,1,-25,1,-27,1,-25,1,-16,1
820,1,1,-8,1,-9,1,3,1,5,1,-8,1,-17,1,-17,1,-24,1,-27,1,-25,1,-16,1
821,1,1,-8,1,-9,1,3,1,5,1,-8,1,-17,1,-17,1,-25,1,-26,1,-24,1,-16,1
822,0,1,-8,1,-8,1,4,1,4,1,-8,1,-16,1,-17,1,-24,1,-26,1,-24,1,-17,1
823,-1,1,-9,1,-8,1,5,1,3,1,-9,1,-16,1,-17,1,-25,1,-26,1,-24,1,-16,1
824,-1,1,-9,1,-8,1,5,1,3,1,-9,1,-16,1,-18,1,-25,1,-26,1,-24,1,-16,1
825,-1,1,-8,1,-7,1,4,1,3,1,-8,1,-16,1,-17,1,-26,1,-26,1,-23,1,-15,1
826,-2,1,-8,1,-6,1,5,1,2,1,-7,1,-16,1,-17,1,-25,1,-26,1,-23,1,-15,1
827,-2,1,-8,1,-6,1,5,1,2,1,-7,1,-15,1,-17,1,-25,1,-26,1,-22,1,-15,1
828,-2,1,-7,1,-5,1,4,1,1,1,-6,1,-15,1,-17,1,-24,1,-26,1,-23,1,-15,1
829,-1,1,-8,1,-7,1,4,1,3,1,-8,1,-15,1,-17,1,-24,1,-27,1,-23,1,-15,1
830,0,1,-8,1,-8,1,4,1,4,1,-8,1,-16,1,-17,1,-24,1,-27,1,-23,1,-15,1
831,1,1,-7,1,-8,1,3,1,4,1,-7,1,-16,1,-17,1,-25,1,-27,1,-23,1,-15,1
832,2,1,-6,1,-8,1,2,1,5,1,-7,1,-16,1,-17,1,-25,1,-28,1,-23,1,-15,1
833,1,1,-6,1,-7,1,2,1,4,1,-6,1,-15,1,-17,1,-25,1,-28,1,-22,1,-15,1
834,1,1,-6,1,-7,1,2,1,4,1,-6,1,-15,1,-17,1,-25,1,-28,1,-22,1,-15,1
835,0,1,-6,1,-6,1,3,1,3,1,-6,1,-16,1,-17,1,-26,1,-29,1,-23,1,-15,1
836,0,1,-7,1,-7,1,3,1,3,1,-7,1,-15,1,-18,1,-26,1,-29,1,-23,1,-15,1
837,1,1,-7,1,-8,1,3,1,4,1,-7,1,-15,1,-18,1,-26,1,-28,1,-23,1,-15,1
838,1,1,-7,1,-8,1,3,1,4,1,-7,1,-15,1,-17,1,-26,1,-27,1,-23,1,-16,1
839,1,1,-8,1,-9,1,3,1,5,1,-8,1,-15,1,-16,1,-25,1,-26,1,-23,1,-15,1
840,0,1,-8,1,-8,1,4,1,4,1,-8,1,-15,1,-17,1,-24,1,-26,1,-23,1,-15,1
841,0,1,-8,1,-8,1,4,1,4,1,-8,1,-15,1,-17,1,-24,1,-25,1,-23,1,-16,1
842,-1,1,-8,1,-7,1,4,1,3,1,-8,1,-14,1,-17,1,-24,1,-26,1,-22,1,-15,1
843,-2,1,-8,1,-6,1,5,1,2,1,-7,1,-14,1,-18,1,-23,1,-26,1,-21,1,-15,1
844,-3,1,-8,1,-5,1,5,1,1,1,-7,1,-14,1,-18,1,-23,1,-26,1,-21,1,-14,1
845,-4,1,-8,1,-4,1,6,1,0,1,-6,1,-14,1,-17,1,-23,1,-26,1,-20,1,-13,1
846,-4,1,-7,1,-3,1,5,1,-1,1,-5,1,-14,1,-17,1,-23,1,-26,1,-20,1,-13,1
847,-3,1,-6,1,-3,1,4,1,0,1,-5,1,-14,1,-17,1,-24,1,-26,1,-21,1,-13,1
848,-2,1,-6,1,-4,1,4,1,1,1,-5,1,-15,1,-17,1,-24,1,-26,1,-21,1,-13,1
849,-2,1,-7,1,-5,1,4,1,1,1,-6,1,-15,1,-17,1,-24,1,-25,1,-21,1,-12,1
850,-3,1,-7,1,-4,1,5,1,0,1,-6,1,-15,1,-18,1,-24,1,-25,1,-21,1,-12,1
851,-3,1,-8,1,-5,1,5,1,1,1,-7,1,-15,1,-18,1,-24,1,-25,1,-21,1,-13,1
852,-3,1,-8,1,-5,1,5,1,1,1,-7,1,-16,1,-18,1,-25,1,-26,1,-21,1,-13,1
853,-2,1,-7,1,-5,1,4,1,1,1,-6,1,-16,1,-19,1,-26,1,-26,1,-21,1,-13,1
854,-1,1,-7,1,-6,1,4,1,2,1,-7,1,-17,1,-19,1,-26,1,-27,1,-21,1,-14,1
855,-1,1,-7,1,-6,1,4,1,2,1,-7,1,-17,1,-19,1,-26,1,-27,1,-21,1,-14,1
856,-1,1,-7,1,-6,1,4,1,2,1,-7,1,-16,1,-19,1,-26,1,-27,1,-19,1,-14,1
857,-2,1,-7,1,-5,1,4,1,1,1,-6,1,-16,1,-19,1,-26,1,-26,1,-19,1,-14,1
858,-2,1,-8,1,-6,1,5,1,2,1,-7,1,-16,1,-19,1,-25,1,-26,1,-19,1,-13,1
859,-2,1,-9,1,-7,1,5,1,2,1,-8,1,-16,1,-19,1,-25,1,-26,1,-19,1,-13,1
860,-2,1,-9,1,-7,1,5,1,2,1,-8,1,-16,1,-19,1,-26,1,-26,1,-20,1,-13,1
861,-2,1,-8,1,-6,1,5,1,2,1,-7,1,-16,1,-19,1,-26,1,-26,1,-20,1,-12,1
862,-2,1,-8,1,-6,1,5,1,2,1,-7,1,-15,1,-19,1,-26,1,-26,1,-20,1,-12,1
863,-3,1,-8,1,-5,1,5,1,1,1,-7,1,-15,1,-19,1,-26,1,-26,1,-20,1,-11,1
864,-3,1,-8,1,-5,1,5,1,1,1,-7,1,-15,1,-18,1,-25,1,-26,1,-19,1,-11,1
865,-3,1,-8,1,-5,1,5,1,1,1,-7,1,-15,1,-18,1,-24,1,-26,1,-19,1,-11,1
866,-3,1,-8,1,-5,1,5,1,1,1,-7,1,-15,1,-18,1,-24,1,-26,1,-18,1,-11,1
867,-3,1,-7,1,-4,1,5,1,0,1,-6,1,-14,1,-17,1,-23,1,-25,1,-17,1,-10,1
868,-1,1,-6,1,-5,1,3,1,2,1,-6,1,-14,1,-17,1,-23,1,-24,1,-17,1,-10,1
869,-1,1,-5,1,-4,1,3,1,1,1,-5,1,-14,1,-17,1,-23,1,-24,1,-17,1,-11,1
870,0,1,-5,1,-5,1,2,1,2,1,-5,1,-14,1,-16,1,-24,1,-24,1,-17,1,-11,1
871,0,1,-3,1,-3,1,1,1,1,1,-3,1,-13,1,-15,1,-22,1,-23,1,-16,1,-10,1
872,0,1,-2,1,-2,1,1,1,1,1,-2,1,-12,1,-14,1,-22,1,-22,1,-16,1,-10,1
873,0,1,-1,1,-1,1,0,1,0,1,-1,1,-12,1,-14,1,-21,1,-22,1,-15,1,-9,1
874,0,1,0,1,0,1,0,1,0,1,0,1,-10,1,-13,1,-19,1,-20,1,-14,1,-8,1
875,0,1,2,1,2,1,-1,1,-1,1,2,1,-10,1,-13,1,-18,1,-20,1,-13,1,-7,1
876,1,1,3,1,2,1,-2,1,0,1,3,1,-9,1,-12,1,-17,1,-19,1,-12,1,-6,1
877,2,1,4,1,2,1,-3,1,0,1,3,1,-10,1,-12,1,-17,1,-19,1,-12,1,-6,1
878,2,1,5,1,3,1,-3,1,0,1,4,1,-10,1,-11,1,-17,1,-19,1,-12,1,-6,1
879,3,1,6,1,3,1,-4,1,0,1,5,1,-10,1,-11,1,-18,1,-18,1,-13,1,-6,1
880,3,1,6,1,3,1,-4,1,0,1,5,1,-10,1,-11,1,-18,1,-18,1,-12,1,-5,1
881,3,1,7,1,4,1,-5,1,0,1,6,1,-9,1,-10,1,-17,1,-18,1,-13,1,-6,1
882,4,1,7,1,3,1,-5,1,1,1,5,1,-7,1,-10,1,-16,1,-17,1,-13,1,-6,1
883,5,1,9,1,4,1,-7,1,1,1,7,1,-6,1,-10,1,-15,1,-17,1,-12,1,-6,1
884,4,1,10,1,6,1,-7,1,-1,1,8,1,-6,1,-10,1,-14,1,-16,1,-11,1,-6,1
885,4,1,11,1,7,1,-7,1,-1,1,9,1,-6,1,-10,1,-14,1,-14,1,-10,1,-5,1
886,4,1,12,1,8,1,-8,1,-2,1,10,1,-8,1,-11,1,-14,1,-14,1,-10,1,-4,1
887,3,1,13,1,10,1,-8,1,-3,1,12,1,-10,1,-12,1,-15,1,-14,1,-9,1,-3,1
888,3,1,15,1,12,1,-9,1,-4,1,14,1,-12,1,-12,1,-15,1,-14,1,-8,1,-2,1
889,3,1,16,1,13,1,-9,1,-5,1,15,1,-14,1,-13,1,-15,1,-14,1,-8,1,-1,1
890,3,1,16,1,13,1,-9,1,-5,1,15,1,-16,1,-14,1,-16,1,-14,1,-7,1,-1,1
891,4,1,17,1,13,1,-10,1,-4,1,15,1,-17,1,-15,1,-17,1,-14,1,-7,1,0,1
892,5,1,18,1,13,1,-11,1,-4,1,16,1,-18,1,-17,1,-17,1,-14,1,-6,1,0,1
893,6,1,18,1,12,1,-12,1,-3,1,15,1,-19,1,-18,1,-18,1,-14,1,-7,1,1,1
894,7,1,18,1,11,1,-12,1,-2,1,15,1,-20,1,-19,1,-19,1,-15,1,-7,1,1,1
895,8,1,17,1,9,1,-12,1,0,1,13,1,-20,1,-19,1,-19,1,-16,1,-7,1,1,1
896,9,1,17,1,8,1,-13,1,1,1,13,1,-20,1,-19,1,-19,1,-16,1,-7,1,1,1
897,9,1,16,1,7,1,-12,1,1,1,12,1,-20,1,-20,1,-19,1,-17,1,-8,1,0,1
898,9,1,15,1,6,1,-12,1,2,1,11,1,-20,1,-19,1,-18,1,-17,1,-7,1,0,1
899,8,1,14,1,6,1,-11,1,1,1,10,1,-21,1,-18,1,-18,1,-17,1,-7,1,0,1
900,8,1,13,1,5,1,-10,1,2,1,9,1,-21,1,-18,1,-18,1,-17,1,-7,1,0,1
901,7,1,11,1,4,1,-9,1,2,1,8,1,-21,1,-17,1,-18,1,-17,1,-7,1,1,1
902,7,1,10,1,3,1,-8,1,2,1,7,1,-21,1,-17,1,-17,1,-16,1,-6,1,1,1
903,8,1,9,1,1,1,-8,1,4,1,5,1,-21,1,-17,1,-18,1,-17,1,-7,1,0,1
904,8,1,7,1,-1,1,-7,1,5,1,3,1,-20,1,-17,1,-19,1,-17,1,-7,1,0,1
905,7,1,5,1,-2,1,-6,1,5,1,2,1,-19,1,-17,1,-19,1,-17,1,-7,1,0,1
906,5,1,3,1,-2,1,-4,1,4,1,1,1,-19,1,-17,1,-20,1,-17,1,-8,1,-1,1
907,3,1,1,1,-2,1,-2,1,3,1,0,1,-20,1,-18,1,-21,1,-18,1,-8,1,-2,1
908,2,1,0,1,-2,1,-1,1,2,1,-1,1,-20,1,-18,1,-21,1,-19,1,-8,1,-2,1
909,1,1,0,1,-1,1,0,1,1,1,0,1,-20,1,-17,1,-21,1,-19,1,-8,1,-2,1
910,0,1,0,1,0,1,0,1,0,1,0,1,-19,1,-17,1,-21,1,-20,1,-9,1,-3,1
911,-1,1,-1,1,0,1,1,1,-1,1,-1,1,-19,1,-16,1,-21,1,-20,1,-10,1,-3,1
912,-1,1,-2,1,-1,1,1,1,0,1,-2,1,-18,1,-16,1,-21,1,-20,1,-10,1,-4,1
913,-1,1,-3,1,-2,1,2,1,0,1,-3,1,-18,1,-17,1,-21,1,-21,1,-11,1,-5,1
914,0,1,-4,1,-4,1,2,1,2,1,-4,1,-18,1,-18,1,-22,1,-21,1,-12,1,-6,1
915,0,1,-5,1,-5,1,2,1,2,1,-5,1,-18,1,-18,1,-23,1,-23,1,-13,1,-7,1
916,-1,1,-5,1,-4,1,3,1,1,1,-5,1,-18,1,-18,1,-24,1,-24,1,-14,1,-8,1
917,-3,1,-6,1,-3,1,4,1,0,1,-5,1,-18,1,-18,1,-25,1,-24,1,-14,1,-8,1
918,-4,1,-6,1,-2,1,5,1,-1,1,-4,1,-18,1,-18,1,-25,1,-25,1,-14,1,-9,1
919,-4,1,-6,1,-2,1,5,1,-1,1,-4,1,-19,1,-19,1,-26,1,-26,1,-16,1,-9,1
920,-5,1,-7,1,-2,1,6,1,-2,1,-5,1,-19,1,-19,1,-28,1,-27,1,-17,1,-10,1
921,-5,1,-8,1,-3,1,6,1,-1,1,-6,1,-19,1,-19,1,-28,1,-28,1,-18,1,-10,1
922,-4,1,-9,1,-5,1,6,1,0,1,-7,1,-19,1,-20,1,-28,1,-28,1,-18,1,-10,1
923,-5,1,-10,1,-5,1,7,1,0,1,-8,1,-19,1,-21,1,-28,1,-28,1,-18,1,-11,1
924,-5,1,-10,1,-5,1,7,1,0,1,-8,1,-18,1,-22,1,-29,1,-29,1,-18,1,-11,1
925,-5,1,-10,1,-5,1,7,1,0,1,-8,1,-18,1,-22,1,-29,1,-29,1,-18,1,-11,1
926,-5,1,-11,1,-6,1,8,1,0,1,-9,1,-18,1,-22,1,-29,1,-28,1,-18,1,-11,1
927,-6,1,-11,1,-5,1,8,1,-1,1,-8,1,-18,1,-22,1,-29,1,-28,1,-18,1,-11,1
928,-6,1,-11,1,-5,1,8,1,-1,1,-8,1,-18,1,-21,1,-28,1,-28,1,-18,1,-12,1
929,-6,1,-11,1,-5,1,8,1,-1,1,-8,1,-18,1,-21,1,-29,1,-29,1,-18,1,-13,1
930,-7,1,-11,1,-4,1,9,1,-2,1,-8,1,-18,1,-21,1,-30,1,-29,1,-18,1,-13,1
931,-7,1,-11,1,-4,1,9,1,-2,1,-8,1,-18,1,-20,1,-30,1,-29,1,-18,1,-13,1
932,-7,1,-11,1,-4,1,9,1,-2,1,-8,1,-18,1,-20,1,-29,1,-29,1,-18,1,-12,1
933,-6,1,-11,1,-5,1,8,1,-1,1,-8,1,-17,1,-20,1,-29,1,-28,1,-18,1,-12,1
934,-7,1,-10,1,-3,1,8,1,-2,1,-7,1,-16,1,-20,1,-29,1,-28,1,-17,1,-11,1
935,-7,1,-10,1,-3,1,8,1,-2,1,-7,1,-16,1,-20,1,-29,1,-28,1,-18,1,-11,1
936,-6,1,-10,1,-4,1,8,1,-1,1,-7,1,-16,1,-20,1,-29,1,-29,1,-19,1,-12,1
937,-6,1,-10,1,-4,1,8,1,-1,1,-7,1,-14,1,-17,1,-27,1,-29,1,-20,1,-13,1
938,-6,1,-11,1,-5,1,8,1,-1,1,-8,1,-11,1,-11,1,-24,1,-29,1,-20,1,-13,1
939,-5,1,-12,1,-7,1,8,1,1,1,-10,1,-6,1,-3,1,-20,1,-28,1,-20,1,-14,1
940,-5,1,-12,1,-7,1,8,1,1,1,-10,1,0,1,4,1,-15,1,-26,1,-20,1,-13,1
941,-5,1,-11,1,-6,1,8,1,0,1,-9,1,6,1,12,1,-10,1,-24,1,-19,1,-13,1
942,-4,1,-10,1,-6,1,7,1,1,1,-8,1,13,1,20,1,-3,1,-18,1,-16,1,-11,1
943,-1,1,-9,1,-8,1,5,1,3,1,-9,1,19,1,29,1,5,1,-10,1,-10,1,-9,1
944,5,1,-5,1,-10,1,0,1,7,1,-7,1,24,1,37,1,17,1,3,1,1,1,-1,1
945,12,1,1,1,-11,1,-6,1,12,1,-5,1,31,1,51,1,37,1,26,1,21,1,12,1
946,24,1,9,1,-15,1,-16,1,20,1,-3,1,40,1,69,1,64,1,56,1,49,1,30,1
947,38,1,20,1,-18,1,-29,1,28,1,1,1,46,1,85,1,93,1,91,1,81,1,52,1
948,52,1,33,1,-19,1,-42,1,36,1,7,1,47,1,95,1,117,1,125,1,114,1,75,1
949,68,1,48,1,-20,1,-58,1,44,1,14,1,40,1,93,1,134,1,156,1,147,1,99,1
950,84,1,65,1,-19,1,-74,1,52,1,23,1,23,1,79,1,143,1,183,1,177,1,125,1
951,99,1,80,1,-19,1,-89,1,59,1,31,1,1,1,57,1,145,1,205,1,204,1,148,1
952,106,1,92,1,-14,1,-99,1,60,1,39,1,-23,1,31,1,143,1,221,1,223,1,164,1
953,106,1,96,1,-10,1,-101,1,58,1,43,1,-43,1,5,1,138,1,228,1,233,1,172,1
954,98,1,97,1,-1,1,-97,1,50,1,48,1,-61,1,-20,1,131,1,226,1,230,1,171,1
955,88,1,93,1,5,1,-90,1,42,1,49,1,-75,1,-42,1,120,1,213,1,216,1,161,1
956,78,1,85,1,7,1,-81,1,36,1,46,1,-91,1,-61,1,104,1,192,1,193,1,144,1
957,64,1,77,1,13,1,-70,1,26,1,45,1,-108,1,-79,1,83,1,164,1,164,1,124,1
958,50,1,70,1,20,1,-60,1,15,1,45,1,-119,1,-93,1,55,1,129,1,129,1,101,1
959,34,1,63,1,29,1,-48,1,3,1,46,1,-127,1,-109,1,18,1,85,1,91,1,79,1
960,17,1,54,1,37,1,-35,1,-10,1,46,1,-131,1,-125,1,-25,1,36,1,53,1,55,1
961,4,1,44,1,40,1,-24,1,-18,1,42,1,-127,1,-130,1,-55,1,-2,1,20,1,34,1
962,-3,1,36,1,39,1,-16,1,-21,1,37,1,-119,1,-125,1,-67,1,-25,1,-1,1,19,1
963,-8,1,28,1,36,1,-10,1,-22,1,32,1,-107,1,-113,1,-68,1,-36,1,-13,1,10,1
964,-10,1,23,1,33,1,-6,1,-21,1,28,1,-94,1,-99,1,-65,1,-41,1,-19,1,3,1
965,-10,1,20,1,30,1,-5,1,-20,1,25,1,-81,1,-86,1,-58,1,-41,1,-21,1,0,1
966,-10,1,17,1,27,1,-3,1,-18,1,22,1,-67,1,-72,1,-51,1,-37,1,-19,1,-1,1
967,-9,1,13,1,22,1,-2,1,-15,1,17,1,-55,1,-60,1,-44,1,-32,1,-16,1,-1,1
968,-7,1,9,1,16,1,-1,1,-11,1,12,1,-44,1,-48,1,-39,1,-27,1,-14,1,-2,1
969,-6,1,4,1,10,1,1,1,-8,1,7,1,-35,1,-36,1,-33,1,-23,1,-11,1,-2,1
970,-6,1,0,1,6,1,3,1,-6,1,3,1,-27,1,-27,1,-29,1,-20,1,-11,1,-2,1
971,-7,1,-3,1,4,1,5,1,-6,1,0,1,-22,1,-20,1,-25,1,-19,1,-11,1,-2,1
972,-7,1,-5,1,2,1,6,1,-5,1,-2,1,-18,1,-16,1,-21,1,-19,1,-12,1,-3,1
973,-7,1,-6,1,1,1,6,1,-4,1,-3,1,-16,1,-14,1,-20,1,-20,1,-13,1,-3,1
974,-8,1,-7,1,1,1,7,1,-5,1,-3,1,-15,1,-13,1,-19,1,-21,1,-14,1,-4,1
975,-8,1,-8,1,0,1,8,1,-4,1,-4,1,-15,1,-14,1,-20,1,-22,1,-15,1,-5,1
976,-9,1,-10,1,-1,1,9,1,-4,1,-6,1,-14,1,-14,1,-21,1,-23,1,-16,1,-6,1
977,-9,1,-11,1,-2,1,10,1,-4,1,-7,1,-14,1,-15,1,-23,1,-24,1,-17,1,-6,1
978,-8,1,-11,1,-3,1,9,1,-3,1,-7,1,-13,1,-14,1,-24,1,-25,1,-18,1,-7,1
979,-8,1,-12,1,-4,1,10,1,-2,1,-8,1,-12,1,-13,1,-24,1,-26,1,-19,1,-7,1
980,-8,1,-13,1,-5,1,10,1,-2,1,-9,1,-12,1,-11,1,-24,1,-26,1,-20,1,-7,1
981,-8,1,-12,1,-4,1,10,1,-2,1,-8,1,-11,1,-10,1,-23,1,-26,1,-20,1,-7,1
982,-7,1,-12,1,-5,1,9,1,-1,1,-9,1,-10,1,-10,1,-22,1,-26,1,-20,1,-8,1
983,-7,1,-12,1,-5,1,9,1,-1,1,-9,1,-10,1,-10,1,-22,1,-27,1,-20,1,-8,1
984,-8,1,-12,1,-4,1,10,1,-2,1,-8,1,-10,1,-10,1,-21,1,-27,1,-20,1,-8,1
985,-7,1,-12,1,-5,1,9,1,-1,1,-9,1,-10,1,-11,1,-21,1,-28,1,-20,1,-8,1
986,-7,1,-12,1,-5,1,9,1,-1,1,-9,1,-10,1,-12,1,-21,1,-28,1,-21,1,-8,1
987,-7,1,-12,1,-5,1,9,1,-1,1,-9,1,-10,1,-12,1,-22,1,-28,1,-21,1,-8,1
988,-8,1,-12,1,-4,1,10,1,-2,1,-8,1,-9,1,-11,1,-22,1,-27,1,-20,1,-7,1
989,-9,1,-12,1,-3,1,10,1,-3,1,-8,1,-9,1,-11,1,-21,1,-27,1,-20,1,-7,1
990,-10,1,-13,1,-3,1,11,1,-4,1,-8,1,-8,1,-11,1,-22,1,-27,1,-20,1,-7,1
991,-11,1,-13,1,-2,1,12,1,-5,1,-8,1,-8,1,-11,1,-21,1,-26,1,-19,1,-6,1
992,-9,1,-13,1,-4,1,11,1,-3,1,-9,1,-8,1,-11,1,-21,1,-26,1,-19,1,-6,1
993,-8,1,-13,1,-5,1,10,1,-2,1,-9,1,-8,1,-12,1,-21,1,-26,1,-19,1,-5,1
994,-7,1,-14,1,-7,1,10,1,0,1,-11,1,-8,1,-12,1,-20,1,-26,1,-19,1,-5,1
995,-7,1,-13,1,-6,1,10,1,-1,1,-10,1,-8,1,-11,1,-20,1,-25,1,-19,1,-5,1
996,-7,1,-13,1,-6,1,10,1,-1,1,-10,1,-7,1,-11,1,-20,1,-25,1,-19,1,-5,1
997,-6,1,-13,1,-7,1,9,1,0,1,-10,1,-7,1,-11,1,-20,1,-25,1,-19,1,-5,1
998,-6,1,-13,1,-7,1,9,1,0,1,-10,1,-6,1,-11,1,-20,1,-24,1,-19,1,-5,1
999,-5,1,-13,1,-8,1,9,1,1,1,-11,1,-6,1,-11,1,-20,1,-24,1,-19,1,-5,1
1000,-5,1,-13,1,-8,1,9,1,1,1,-11,1,-6,1,-11,1,-20,1,-25,1,-18,1,-6,1
1001,-5,1,-13,1,-8,1,9,1,1,1,-11,1,-6,1,-11,1,-20,1,-25,1,-18,1,-6,1
1002,-5,1,-13,1,-8,1,9,1,1,1,-11,1,-6,1,-10,1,-19,1,-25,1,-18,1,-6,1
1003,-5,1,-12,1,-7,1,8,1,1,1,-10,1,-7,1,-10,1,-19,1,-24,1,-17,1,-5,1
1004,-6,1,-12,1,-6,1,9,1,0,1,-9,1,-7,1,-9,1,-19,1,-24,1,-17,1,-5,1
1005,-7,1,-12,1,-5,1,9,1,-1,1,-9,1,-7,1,-8,1,-19,1,-24,1,-16,1,-4,1
1006,-7,1,-11,1,-4,1,9,1,-2,1,-8,1,-6,1,-8,1,-18,1,-23,1,-16,1,-4,1
1007,-7,1,-11,1,-4,1,9,1,-2,1,-8,1,-6,1,-8,1,-18,1,-23,1,-16,1,-4,1
1008,-7,1,-11,1,-4,1,9,1,-2,1,-8,1,-5,1,-8,1,-17,1,-23,1,-16,1,-3,1
1009,-6,1,-10,1,-4,1,8,1,-1,1,-7,1,-5,1,-8,1,-17,1,-22,1,-16,1,-3,1
1010,-5,1,-10,1,-5,1,7,1,0,1,-8,1,-5,1,-8,1,-17,1,-22,1,-16,1,-4,1
1011,-6,1,-11,1,-5,1,8,1,-1,1,-8,1,-4,1,-8,1,-17,1,-22,1,-16,1,-4,1
1012,-6,1,-11,1,-5,1,8,1,-1,1,-8,1,-4,1,-7,1,-16,1,-22,1,-15,1,-4,1
1013,-5,1,-10,1,-5,1,7,1,0,1,-8,1,-4,1,-7,1,-16,1,-22,1,-15,1,-3,1
1014,-4,1,-10,1,-6,1,7,1,1,1,-8,1,-5,1,-8,1,-17,1,-23,1,-16,1,-3,1
1015,-4,1,-10,1,-6,1,7,1,1,1,-8,1,-5,1,-7,1,-17,1,-22,1,-15,1,-2,1
1016,-4,1,-10,1,-6,1,7,1,1,1,-8,1,-5,1,-7,1,-17,1,-22,1,-15,1,-2,1
1017,-4,1,-10,1,-6,1,7,1,1,1,-8,1,-5,1,-6,1,-17,1,-21,1,-14,1,-2,1
1018,-5,1,-10,1,-5,1,7,1,0,1,-8,1,-4,1,-6,1,-16,1,-21,1,-14,1,-2,1
1019,-5,1,-10,1,-5,1,7,1,0,1,-8,1,-3,1,-5,1,-15,1,-20,1,-13,1,-2,1
1020,-5,1,-10,1,-5,1,7,1,0,1,-8,1,-3,1,-5,1,-15,1,-19,1,-13,1,-1,1
1021,-7,1,-10,1,-3,1,8,1,-2,1,-7,1,-2,1,-4,1,-14,1,-18,1,-13,1,-1,1
1022,-7,1,-9,1,-2,1,8,1,-3,1,-6,1,-2,1,-3,1,-13,1,-18,1,-12,1,-1,1
1023,-7,1,-8,1,-1,1,7,1,-3,1,-5,1,-2,1,-3,1,-13,1,-18,1,-12,1,-1,1
1024,-7,1,-8,1,-1,1,7,1,-3,1,-5,1,-2,1,-3,1,-13,1,-18,1,-12,1,-1,1
1025,-7,1,-8,1,-1,1,7,1,-3,1,-5,1,-2,1,-2,1,-12,1,-18,1,-12,1,-1,1
1026,-6,1,-7,1,-1,1,6,1,-3,1,-4,1,-1,1,-1,1,-12,1,-18,1,-13,1,-1,1
1027,-5,1,-7,1,-2,1,6,1,-2,1,-5,1,-2,1,-1,1,-12,1,-17,1,-13,1,-2,1
1028,-3,1,-6,1,-3,1,4,1,0,1,-5,1,-2,1,0,1,-11,1,-17,1,-12,1,-2,1
1029,-2,1,-6,1,-4,1,4,1,1,1,-5,1,-2,1,0,1,-10,1,-17,1,-12,1,-2,1
1030,-1,1,-6,1,-5,1,3,1,2,1,-6,1,-2,1,0,1,-9,1,-16,1,-11,1,-2,1
1031,0,1,-6,1,-6,1,3,1,3,1,-6,1,-2,1,1,1,-9,1,-16,1,-11,1,-2,1
1032,0,1,-6,1,-6,1,3,1,3,1,-6,1,-1,1,1,1,-9,1,-15,1,-11,1,-2,1
1033,1,1,-6,1,-7,1,2,1,4,1,-6,1,-1,1,1,1,-9,1,-15,1,-11,1,-2,1
1034,1,1,-7,1,-8,1,3,1,4,1,-7,1,-1,1,1,1,-10,1,-15,1,-12,1,-2,1
1035,0,1,-7,1,-7,1,3,1,3,1,-7,1,0,1,1,1,-9,1,-14,1,-11,1,-1,1
1036,-1,1,-7,1,-6,1,4,1,2,1,-7,1,1,1,3,1,-8,1,-13,1,-10,1,0,1
1037,-1,1,-7,1,-6,1,4,1,2,1,-7,1,0,1,3,1,-8,1,-13,1,-10,1,0,1
1038,0,1,-6,1,-6,1,3,1,3,1,-6,1,0,1,3,1,-7,1,-12,1,-10,1,0,1
1039,1,1,-6,1,-7,1,2,1,4,1,-6,1,0,1,4,1,-5,1,-12,1,-10,1,0,1
1040,1,1,-5,1,-6,1,2,1,3,1,-5,1,-1,1,5,1,-4,1,-11,1,-9,1,1,1
1041,0,1,-5,1,-5,1,2,1,2,1,-5,1,-1,1,5,1,-3,1,-10,1,-9,1,1,1
1042,0,1,-5,1,-5,1,2,1,2,1,-5,1,0,1,6,1,-2,1,-9,1,-8,1,2,1
1043,0,1,-4,1,-4,1,2,1,2,1,-4,1,0,1,6,1,-2,1,-8,1,-7,1,3,1
1044,0,1,-4,1,-4,1,2,1,2,1,-4,1,1,1,7,1,-2,1,-8,1,-7,1,3,1
1045,1,1,-4,1,-5,1,1,1,3,1,-4,1,1,1,7,1,-1,1,-7,1,-7,1,4,1
1046,2,1,-4,1,-6,1,1,1,4,1,-5,1,1,1,8,1,-1,1,-6,1,-7,1,4,1
1047,3,1,-3,1,-6,1,0,1,4,1,-4,1,1,1,8,1,0,1,-5,1,-6,1,5,1
1048,4,1,-2,1,-6,1,-1,1,5,1,-4,1,2,1,9,1,1,1,-5,1,-5,1,5,1
1049,5,1,-1,1,-6,1,-2,1,5,1,-3,1,2,1,9,1,2,1,-5,1,-5,1,5,1
1050,5,1,-1,1,-6,1,-2,1,5,1,-3,1,2,1,10,1,3,1,-4,1,-5,1,5,1
1051,5,1,-1,1,-6,1,-2,1,5,1,-3,1,3,1,10,1,4,1,-3,1,-4,1,5,1
1052,5,1,-1,1,-6,1,-2,1,5,1,-3,1,3,1,10,1,6,1,-2,1,-3,1,6,1
1053,4,1,0,1,-4,1,-2,1,4,1,-2,1,3,1,11,1,7,1,-1,1,-2,1,7,1
1054,4,1,0,1,-4,1,-2,1,4,1,-2,1,2,1,12,1,7,1,-1,1,-1,1,8,1
1055,5,1,0,1,-5,1,-2,1,5,1,-2,1,2,1,13,1,8,1,0,1,0,1,8,1
1056,5,1,1,1,-4,1,-3,1,5,1,-1,1,3,1,15,1,11,1,2,1,1,1,10,1
1057,6,1,1,1,-5,1,-3,1,6,1,-2,1,3,1,15,1,12,1,3,1,1,1,10,1
1058,7,1,1,1,-6,1,-4,1,7,1,-2,1,4,1,16,1,13,1,4,1,2,1,11,1
1059,7,1,2,1,-5,1,-4,1,6,1,-1,1,5,1,18,1,15,1,6,1,3,1,12,1
1060,8,1,2,1,-6,1,-5,1,7,1,-2,1,5,1,19,1,16,1,8,1,4,1,12,1
1061,8,1,3,1,-5,1,-5,1,7,1,-1,1,6,1,20,1,17,1,9,1,5,1,13,1
1062,8,1,4,1,-4,1,-6,1,6,1,0,1,6,1,21,1,18,1,10,1,6,1,14,1
1063,8,1,4,1,-4,1,-6,1,6,1,0,1,7,1,23,1,20,1,11,1,7,1,16,1
1064,7,1,5,1,-2,1,-6,1,5,1,2,1,8,1,24,1,21,1,13,1,9,1,17,1
1065,8,1,6,1,-2,1,-7,1,5,1,2,1,8,1,26,1,23,1,15,1,10,1,18,1
1066,10,1,7,1,-3,1,-8,1,7,1,2,1,8,1,27,1,25,1,16,1,12,1,19,1
1067,11,1,7,1,-4,1,-9,1,8,1,2,1,8,1,28,1,26,1,18,1,13,1,20,1
1068,13,1,8,1,-5,1,-10,1,9,1,2,1,8,1,29,1,27,1,19,1,15,1,21,1
1069,13,1,10,1,-3,1,-11,1,8,1,4,1,8,1,29,1,29,1,21,1,15,1,22,1
1070,15,1,11,1,-4,1,-13,1,10,1,4,1,8,1,30,1,30,1,22,1,16,1,23,1
1071,17,1,12,1,-5,1,-14,1,11,1,4,1,8,1,30,1,31,1,23,1,17,1,24,1
1072,17,1,13,1,-4,1,-15,1,11,1,5,1,8,1,31,1,33,1,25,1,18,1,24,1
1073,17,1,13,1,-4,1,-15,1,11,1,5,1,9,1,31,1,34,1,26,1,20,1,25,1
1074,16,1,14,1,-2,1,-15,1,9,1,6,1,9,1,33,1,35,1,28,1,23,1,27,1
1075,15,1,15,1,0,1,-15,1,8,1,8,1,9,1,33,1,37,1,31,1,25,1,28,1
1076,16,1,15,1,-1,1,-15,1,9,1,7,1,9,1,34,1,38,1,33,1,27,1,29,1
1077,18,1,17,1,-1,1,-17,1,10,1,8,1,8,1,34,1,38,1,35,1,28,1,31,1
1078,19,1,17,1,-2,1,-18,1,11,1,8,1,8,1,34,1,39,1,36,1,29,1,32,1
1079,21,1,18,1,-3,1,-19,1,12,1,8,1,7,1,34,1,40,1,36,1,30,1,32,1
1080,22,1,18,1,-4,1,-20,1,13,1,7,1,7,1,34,1,41,1,37,1,31,1,32,1
1081,22,1,19,1,-3,1,-20,1,13,1,8,1,7,1,34,1,41,1,38,1,32,1,33,1
1082,22,1,19,1,-3,1,-20,1,13,1,8,1,7,1,33,1,42,1,38,1,33,1,34,1
1083,23,1,20,1,-3,1,-21,1,13,1,9,1,6,1,33,1,42,1,38,1,33,1,34,1
1084,23,1,21,1,-2,1,-22,1,13,1,10,1,5,1,33,1,42,1,39,1,34,1,36,1
1085,25,1,22,1,-3,1,-23,1,14,1,10,1,4,1,33,1,42,1,40,1,35,1,36,1
1086,25,1,22,1,-3,1,-23,1,14,1,10,1,4,1,33,1,43,1,41,1,36,1,37,1
1087,25,1,23,1,-2,1,-24,1,14,1,11,1,4,1,33,1,43,1,41,1,37,1,38,1
1088,28,1,23,1,-5,1,-25,1,17,1,9,1,4,1,32,1,43,1,42,1,37,1,38,1
1089,29,1,24,1,-5,1,-26,1,17,1,10,1,3,1,32,1,43,1,42,1,38,1,39,1
1090,29,1,24,1,-5,1,-26,1,17,1,10,1,2,1,31,1,43,1,42,1,38,1,40,1
1091,29,1,24,1,-5,1,-26,1,17,1,10,1,1,1,30,1,43,1,42,1,38,1,40,1
1092,29,1,24,1,-5,1,-26,1,17,1,10,1,0,1,29,1,42,1,42,1,38,1,40,1
1093,30,1,24,1,-6,1,-27,1,18,1,9,1,0,1,27,1,41,1,41,1,37,1,40,1
1094,29,1,24,1,-5,1,-26,1,17,1,10,1,-1,1,26,1,41,1,41,1,37,1,40,1
1095,29,1,24,1,-5,1,-26,1,17,1,10,1,-1,1,26,1,40,1,42,1,38,1,41,1
1096,29,1,24,1,-5,1,-26,1,17,1,10,1,-1,1,25,1,40,1,42,1,38,1,41,1
1097,28,1,24,1,-4,1,-26,1,16,1,10,1,-1,1,25,1,39,1,42,1,39,1,41,1
1098,27,1,24,1,-3,1,-25,1,15,1,11,1,-1,1,24,1,39,1,41,1,38,1,41,1
1099,26,1,25,1,-1,1,-25,1,14,1,12,1,-1,1,23,1,38,1,40,1,37,1,40,1
1100,25,1,24,1,-1,1,-24,1,13,1,12,1,-1,1,22,1,37,1,39,1,36,1,40,1
1101,23,1,23,1,0,1,-23,1,12,1,12,1,-2,1,21,1,36,1,37,1,35,1,39,1
1102,22,1,22,1,0,1,-22,1,11,1,11,1,-2,1,20,1,35,1,36,1,34,1,39,1
1103,21,1,21,1,0,1,-21,1,11,1,11,1,-2,1,18,1,33,1,35,1,33,1,38,1
1104,20,1,20,1,0,1,-20,1,10,1,10,1,-3,1,16,1,31,1,33,1,31,1,37,1
1105,19,1,19,1,0,1,-19,1,10,1,10,1,-4,1,15,1,28,1,31,1,29,1,35,1
1106,18,1,17,1,-1,1,-17,1,10,1,8,1,-5,1,12,1,26,1,29,1,27,1,33,1
1107,18,1,16,1,-2,1,-17,1,10,1,7,1,-5,1,10,1,23,1,26,1,24,1,31,1
1108,17,1,15,1,-2,1,-16,1,10,1,7,1,-6,1,8,1,21,1,24,1,22,1,29,1
1109,18,1,14,1,-4,1,-16,1,11,1,5,1,-6,1,7,1,19,1,21,1,20,1,28,1
1110,17,1,13,1,-4,1,-15,1,11,1,5,1,-6,1,6,1,17,1,19,1,19,1,27,1
1111,16,1,11,1,-5,1,-13,1,11,1,3,1,-6,1,5,1,15,1,18,1,17,1,25,1
1112,15,1,11,1,-4,1,-13,1,10,1,4,1,-6,1,3,1,13,1,16,1,15,1,24,1
1113,13,1,9,1,-4,1,-11,1,9,1,3,1,-7,1,1,1,11,1,14,1,13,1,22,1
1114,11,1,8,1,-3,1,-9,1,7,1,3,1,-8,1,0,1,8,1,11,1,11,1,20,1
1115,10,1,6,1,-4,1,-8,1,7,1,1,1,-8,1,-2,1,7,1,9,1,9,1,18,1
1116,9,1,5,1,-4,1,-7,1,7,1,1,1,-8,1,-3,1,5,1,7,1,7,1,17,1
1117,6,1,4,1,-2,1,-5,1,4,1,1,1,-8,1,-5,1,3,1,5,1,6,1,16,1
1118,5,1,3,1,-2,1,-4,1,4,1,1,1,-8,1,-5,1,1,1,3,1,4,1,15,1
1119,5,1,3,1,-2,1,-4,1,4,1,1,1,-7,1,-6,1,0,1,1,1,3,1,14,1
1120,4,1,1,1,-3,1,-2,1,4,1,-1,1,-8,1,-8,1,-2,1,0,1,1,1,13,1
1121,3,1,0,1,-3,1,-1,1,3,1,-1,1,-8,1,-8,1,-3,1,-1,1,0,1,12,1
1122,3,1,0,1,-3,1,-1,1,3,1,-1,1,-8,1,-9,1,-4,1,-2,1,-2,1,11,1
1123,2,1,-1,1,-3,1,0,1,2,1,-2,1,-9,1,-10,1,-5,1,-4,1,-3,1,11,1
1124,2,1,-1,1,-3,1,0,1,2,1,-2,1,-9,1,-11,1,-6,1,-5,1,-3,1,10,1
1125,2,1,-2,1,-4,1,0,1,3,1,-3,1,-8,1,-12,1,-8,1,-7,1,-4,1,9,1
1126,2,1,-1,1,-3,1,0,1,2,1,-2,1,-8,1,-12,1,-9,1,-7,1,-5,1,7,1
1127,2,1,-2,1,-4,1,0,1,3,1,-3,1,-8,1,-13,1,-11,1,-9,1,-6,1,7,1
1128,2,1,-2,1,-4,1,0,1,3,1,-3,1,-8,1,-13,1,-12,1,-10,1,-7,1,6,1
1129,1,1,-3,1,-4,1,1,1,2,1,-3,1,-9,1,-14,1,-13,1,-11,1,-8,1,6,1
1130,1,1,-3,1,-4,1,1,1,2,1,-3,1,-9,1,-14,1,-13,1,-11,1,-9,1,5,1
1131,2,1,-4,1,-6,1,1,1,4,1,-5,1,-9,1,-15,1,-14,1,-12,1,-10,1,4,1
1132,3,1,-5,1,-8,1,1,1,5,1,-6,1,-10,1,-15,1,-14,1,-13,1,-11,1,4,1
1133,3,1,-6,1,-9,1,1,1,6,1,-7,1,-10,1,-15,1,-15,1,-13,1,-11,1,4,1
1134,2,1,-6,1,-8,1,2,1,5,1,-7,1,-10,1,-15,1,-15,1,-13,1,-11,1,4,1
1135,2,1,-7,1,-9,1,2,1,5,1,-8,1,-10,1,-15,1,-14,1,-14,1,-11,1,3,1
1136,2,1,-7,1,-9,1,2,1,5,1,-8,1,-10,1,-15,1,-14,1,-14,1,-11,1,3,1
1137,3,1,-7,1,-10,1,2,1,6,1,-8,1,-10,1,-16,1,-15,1,-15,1,-12,1,3,1
1138,2,1,-8,1,-10,1,3,1,6,1,-9,1,-10,1,-16,1,-16,1,-15,1,-12,1,3,1
1139,2,1,-8,1,-10,1,3,1,6,1,-9,1,-10,1,-16,1,-16,1,-16,1,-13,1,3,1
1140,1,1,-8,1,-9,1,3,1,5,1,-8,1,-9,1,-15,1,-16,1,-16,1,-12,1,3,1
1141,0,1,-8,1,-8,1,4,1,4,1,-8,1,-9,1,-15,1,-15,1,-16,1,-12,1,4,1
1142,-1,1,-8,1,-7,1,4,1,3,1,-8,1,-9,1,-15,1,-15,1,-16,1,-12,1,3,1
1143,-2,1,-8,1,-6,1,5,1,2,1,-7,1,-9,1,-15,1,-16,1,-16,1,-12,1,3,1
1144,-1,1,-8,1,-7,1,4,1,3,1,-8,1,-9,1,-16,1,-15,1,-17,1,-13,1,2,1
1145,-1,1,-8,1,-7,1,4,1,3,1,-8,1,-9,1,-16,1,-14,1,-17,1,-13,1,2,1
1146,-1,1,-7,1,-6,1,4,1,2,1,-7,1,-8,1,-15,1,-14,1,-17,1,-13,1,2,1
1147,-1,1,-8,1,-7,1,4,1,3,1,-8,1,-8,1,-15,1,-15,1,-17,1,-13,1,2,1
1148,-1,1,-8,1,-7,1,4,1,3,1,-8,1,-8,1,-15,1,-14,1,-17,1,-13,1,2,1
1149,-1,1,-8,1,-7,1,4,1,3,1,-8,1,-8,1,-14,1,-15,1,-17,1,-13,1,2,1
1150,-1,1,-9,1,-8,1,5,1,3,1,-9,1,-7,1,-14,1,-14,1,-17,1,-13,1,2,1
1151,-2,1,-9,1,-7,1,5,1,2,1,-8,1,-7,1,-15,1,-14,1,-18,1,-14,1,1,1
1152,-1,1,-9,1,-8,1,5,1,3,1,-9,1,-7,1,-15,1,-14,1,-18,1,-15,1,1,1
1153,-1,1,-8,1,-7,1,4,1,3,1,-8,1,-8,1,-15,1,-14,1,-18,1,-15,1,1,1
1154,-1,1,-9,1,-8,1,5,1,3,1,-9,1,-8,1,-15,1,-14,1,-18,1,-16,1,1,1
1155,-2,1,-8,1,-6,1,5,1,2,1,-7,1,-8,1,-15,1,-14,1,-17,1,-14,1,2,1
1156,-4,1,-8,1,-4,1,6,1,0,1,-6,1,-8,1,-15,1,-14,1,-17,1,-14,1,2,1
1157,-5,1,-9,1,-4,1,7,1,-1,1,-7,1,-8,1,-15,1,-15,1,-18,1,-13,1,2,1
1158,-3,1,-9,1,-6,1,6,1,1,1,-8,1,-8,1,-15,1,-15,1,-18,1,-13,1,1,1
1159,-2,1,-8,1,-6,1,5,1,2,1,-7,1,-7,1,-15,1,-16,1,-17,1,-13,1,1,1
1160,-1,1,-8,1,-7,1,4,1,3,1,-8,1,-7,1,-15,1,-16,1,-17,1,-13,1,1,1
1161,-1,1,-8,1,-7,1,4,1,3,1,-8,1,-7,1,-15,1,-16,1,-17,1,-14,1,1,1
1162,-1,1,-8,1,-7,1,4,1,3,1,-8,1,-7,1,-15,1,-15,1,-17,1,-14,1,1,1
1163,-1,1,-8,1,-7,1,4,1,3,1,-8,1,-7,1,-15,1,-15,1,-18,1,-15,1,1,1
1164,-2,1,-8,1,-6,1,5,1,2,1,-7,1,-7,1,-16,1,-15,1,-18,1,-15,1,1,1
1165,-1,1,-8,1,-7,1,4,1,3,1,-8,1,-7,1,-16,1,-15,1,-18,1,-15,1,2,1
1166,-1,1,-7,1,-6,1,4,1,2,1,-7,1,-8,1,-17,1,-15,1,-19,1,-15,1,2,1
1167,-1,1,-8,1,-7,1,4,1,3,1,-8,1,-8,1,-17,1,-16,1,-19,1,-15,1,1,1
1168,-1,1,-7,1,-6,1,4,1,2,1,-7,1,-9,1,-17,1,-16,1,-19,1,-15,1,1,1
1169,-2,1,-7,1,-5,1,4,1,1,1,-6,1,-8,1,-17,1,-16,1,-19,1,-15,1,1,1
1170,-1,1,-7,1,-6,1,4,1,2,1,-7,1,-8,1,-17,1,-16,1,-19,1,-15,1,1,1
1171,-1,1,-8,1,-7,1,4,1,3,1,-8,1,-8,1,-17,1,-16,1,-19,1,-16,1,0,1
1172,-1,1,-8,1,-7,1,4,1,3,1,-8,1,-8,1,-17,1,-16,1,-18,1,-15,1,1,1
1173,0,1,-8,1,-8,1,4,1,4,1,-8,1,-8,1,-17,1,-16,1,-18,1,-15,1,1,1
1174,0,1,-8,1,-8,1,4,1,4,1,-8,1,-9,1,-17,1,-15,1,-19,1,-15,1,1,1
1175,0,1,-8,1,-8,1,4,1,4,1,-8,1,-9,1,-17,1,-15,1,-19,1,-16,1,2,1
1176,0,1,-8,1,-8,1,4,1,4,1,-8,1,-9,1,-16,1,-15,1,-19,1,-15,1,2,1
1177,0,1,-8,1,-8,1,4,1,4,1,-8,1,-9,1,-16,1,-16,1,-19,1,-14,1,2,1
1178,1,1,-8,1,-9,1,3,1,5,1,-8,1,-9,1,-16,1,-16,1,-19,1,-14,1,1,1
1179,2,1,-8,1,-10,1,3,1,6,1,-9,1,-9,1,-16,1,-16,1,-19,1,-14,1,0,1
1180,1,1,-8,1,-9,1,3,1,5,1,-8,1,-9,1,-16,1,-16,1,-18,1,-14,1,0,1
1181,0,1,-8,1,-8,1,4,1,4,1,-8,1,-9,1,-17,1,-15,1,-18,1,-14,1,0,1
1182,1,1,-7,1,-8,1,3,1,4,1,-7,1,-8,1,-17,1,-15,1,-17,1,-14,1,0,1
1183,1,1,-6,1,-7,1,2,1,4,1,-6,1,-9,1,-17,1,-15,1,-18,1,-15,1,1,1
1184,1,1,-6,1,-7,1,2,1,4,1,-6,1,-9,1,-17,1,-16,1,-18,1,-15,1,1,1
1185,1,1,-6,1,-7,1,2,1,4,1,-6,1,-9,1,-17,1,-16,1,-19,1,-14,1,1,1
1186,1,1,-6,1,-7,1,2,1,4,1,-6,1,-9,1,-17,1,-16,1,-18,1,-13,1,1,1
1187,1,1,-6,1,-7,1,2,1,4,1,-6,1,-10,1,-17,1,-16,1,-18,1,-13,1,1,1
1188,1,1,-7,1,-8,1,3,1,4,1,-7,1,-9,1,-17,1,-16,1,-18,1,-13,1,1,1
1189,0,1,-7,1,-7,1,3,1,3,1,-7,1,-9,1,-16,1,-17,1,-18,1,-13,1,0,1
1190,1,1,-7,1,-8,1,3,1,4,1,-7,1,-9,1,-16,1,-17,1,-17,1,-13,1,0,1
1191,2,1,-6,1,-8,1,2,1,5,1,-7,1,-10,1,-16,1,-17,1,-17,1,-13,1,0,1
1192,3,1,-6,1,-9,1,1,1,6,1,-7,1,-10,1,-16,1,-17,1,-17,1,-13,1,0,1
1193,3,1,-6,1,-9,1,1,1,6,1,-7,1,-11,1,-16,1,-17,1,-17,1,-13,1,0,1
1194,1,1,-6,1,-7,1,2,1,4,1,-6,1,-10,1,-16,1,-17,1,-17,1,-13,1,1,1
1195,0,1,-6,1,-6,1,3,1,3,1,-6,1,-10,1,-16,1,-17,1,-17,1,-13,1,1,1
1196,0,1,-7,1,-7,1,3,1,3,1,-7,1,-10,1,-16,1,-17,1,-18,1,-13,1,0,1
1197,0,1,-7,1,-7,1,3,1,3,1,-7,1,-10,1,-17,1,-17,1,-18,1,-13,1,0,1
1198,-1,1,-8,1,-7,1,4,1,3,1,-8,1,-9,1,-17,1,-17,1,-17,1,-13,1,0,1
1199,-1,1,-7,1,-6,1,4,1,2,1,-7,1,-9,1,-17,1,-17,1,-16,1,-13,1,0,1
1200,-1,1,-7,1,-6,1,4,1,2,1,-7,1,-9,1,-17,1,-17,1,-16,1,-13,1,0,1
1201,-2,1,-6,1,-4,1,4,1,1,1,-5,1,-8,1,-17,1,-18,1,-16,1,-13,1,0,1
1202,-2,1,-6,1,-4,1,4,1,1,1,-5,1,-8,1,-17,1,-18,1,-16,1,-12,1,0,1
1203,-1,1,-6,1,-5,1,3,1,2,1,-6,1,-8,1,-18,1,-18,1,-17,1,-13,1,0,1
1204,0,1,-6,1,-6,1,3,1,3,1,-6,1,-10,1,-19,1,-18,1,-18,1,-13,1,0,1
1205,1,1,-6,1,-7,1,2,1,4,1,-6,1,-11,1,-20,1,-18,1,-18,1,-12,1,0,1
1206,1,1,-6,1,-7,1,2,1,4,1,-6,1,-11,1,-20,1,-18,1,-18,1,-13,1,-1,1
1207,1,1,-7,1,-8,1,3,1,4,1,-7,1,-11,1,-20,1,-18,1,-19,1,-13,1,-1,1
1208,0,1,-7,1,-7,1,3,1,3,1,-7,1,-11,1,-20,1,-19,1,-19,1,-14,1,-1,1
1209,-1,1,-6,1,-5,1,3,1,2,1,-6,1,-11,1,-20,1,-19,1,-19,1,-14,1,-1,1
1210,-1,1,-7,1,-6,1,4,1,2,1,-7,1,-11,1,-20,1,-19,1,-19,1,-14,1,-1,1
1211,0,1,-6,1,-6,1,3,1,3,1,-6,1,-11,1,-21,1,-19,1,-19,1,-14,1,-1,1
1212,1,1,-6,1,-7,1,2,1,4,1,-6,1,-12,1,-21,1,-19,1,-20,1,-14,1,-1,1
1213,1,1,-7,1,-8,1,3,1,4,1,-7,1,-12,1,-22,1,-19,1,-20,1,-14,1,-2,1
1214,2,1,-7,1,-9,1,2,1,5,1,-8,1,-13,1,-23,1,-19,1,-20,1,-14,1,-2,1
1215,2,1,-7,1,-9,1,2,1,5,1,-8,1,-13,1,-23,1,-20,1,-20,1,-15,1,-2,1
1216,1,1,-7,1,-8,1,3,1,4,1,-7,1,-12,1,-23,1,-20,1,-20,1,-15,1,-2,1
1217,0,1,-8,1,-8,1,4,1,4,1,-8,1,-12,1,-23,1,-21,1,-21,1,-15,1,-3,1
1218,-1,1,-8,1,-7,1,4,1,3,1,-8,1,-12,1,-22,1,-21,1,-20,1,-15,1,-3,1
1219,-2,1,-9,1,-7,1,5,1,2,1,-8,1,-12,1,-22,1,-21,1,-21,1,-15,1,-3,1
1220,-2,1,-9,1,-7,1,5,1,2,1,-8,1,-12,1,-22,1,-21,1,-21,1,-14,1,-4,1
1221,-1,1,-9,1,-8,1,5,1,3,1,-9,1,-13,1,-22,1,-21,1,-21,1,-14,1,-5,1
1222,0,1,-10,1,-10,1,5,1,5,1,-10,1,-13,1,-23,1,-21,1,-21,1,-15,1,-6,1
1223,1,1,-9,1,-10,1,4,1,5,1,-9,1,-14,1,-24,1,-22,1,-22,1,-15,1,-6,1
1224,3,1,-8,1,-11,1,2,1,7,1,-9,1,-14,1,-25,1,-22,1,-22,1,-16,1,-6,1
1225,3,1,-8,1,-11,1,2,1,7,1,-9,1,-14,1,-25,1,-22,1,-22,1,-16,1,-5,1
1226,3,1,-8,1,-11,1,2,1,7,1,-9,1,-14,1,-25,1,-22,1,-22,1,-16,1,-5,1
1227,3,1,-8,1,-11,1,2,1,7,1,-9,1,-14,1,-26,1,-24,1,-23,1,-17,1,-5,1
1228,4,1,-8,1,-12,1,2,1,8,1,-10,1,-14,1,-25,1,-25,1,-23,1,-17,1,-6,1
1229,3,1,-8,1,-11,1,2,1,7,1,-9,1,-14,1,-24,1,-26,1,-23,1,-18,1,-7,1
1230,2,1,-9,1,-11,1,3,1,6,1,-10,1,-14,1,-23,1,-25,1,-22,1,-17,1,-6,1
1231,0,1,-9,1,-9,1,4,1,4,1,-9,1,-14,1,-22,1,-24,1,-22,1,-17,1,-6,1
1232,0,1,-10,1,-10,1,5,1,5,1,-10,1,-13,1,-22,1,-23,1,-22,1,-17,1,-6,1
1233,0,1,-10,1,-10,1,5,1,5,1,-10,1,-14,1,-22,1,-23,1,-22,1,-17,1,-6,1
1234,-1,1,-10,1,-9,1,5,1,4,1,-10,1,-13,1,-22,1,-23,1,-22,1,-17,1,-5,1
1235,-2,1,-10,1,-8,1,6,1,3,1,-9,1,-14,1,-23,1,-23,1,-23,1,-17,1,-6,1
1236,-2,1,-10,1,-8,1,6,1,3,1,-9,1,-14,1,-23,1,-23,1,-22,1,-16,1,-5,1
1237,-3,1,-10,1,-7,1,6,1,2,1,-9,1,-14,1,-23,1,-23,1,-23,1,-16,1,-5,1
1238,-2,1,-10,1,-8,1,6,1,3,1,-9,1,-15,1,-23,1,-23,1,-23,1,-16,1,-5,1
1239,-2,1,-9,1,-7,1,5,1,2,1,-8,1,-15,1,-23,1,-23,1,-23,1,-17,1,-5,1
1240,-2,1,-9,1,-7,1,5,1,2,1,-8,1,-14,1,-23,1,-23,1,-23,1,-17,1,-5,1
1241,-1,1,-8,1,-7,1,4,1,3,1,-8,1,-14,1,-23,1,-24,1,-23,1,-17,1,-5,1
1242,-1,1,-8,1,-7,1,4,1,3,1,-8,1,-13,1,-23,1,-24,1,-23,1,-17,1,-6,1
1243,-1,1,-8,1,-7,1,4,1,3,1,-8,1,-14,1,-24,1,-25,1,-23,1,-18,1,-7,1
1244,-2,1,-8,1,-6,1,5,1,2,1,-7,1,-14,1,-24,1,-25,1,-23,1,-18,1,-7,1
1245,-1,1,-8,1,-7,1,4,1,3,1,-8,1,-14,1,-23,1,-24,1,-23,1,-18,1,-7,1
1246,-1,1,-8,1,-7,1,4,1,3,1,-8,1,-14,1,-23,1,-24,1,-24,1,-18,1,-7,1
1247,-2,1,-9,1,-7,1,5,1,2,1,-8,1,-14,1,-24,1,-24,1,-23,1,-18,1,-7,1
1248,-4,1,-9,1,-5,1,6,1,0,1,-7,1,-14,1,-24,1,-24,1,-23,1,-18,1,-7,1
1249,-4,1,-10,1,-6,1,7,1,1,1,-8,1,-14,1,-25,1,-24,1,-23,1,-18,1,-7,1
1250,-3,1,-10,1,-7,1,6,1,2,1,-9,1,-14,1,-26,1,-24,1,-23,1,-18,1,-7,1
1251,-3,1,-11,1,-8,1,7,1,2,1,-10,1,-15,1,-26,1,-25,1,-23,1,-19,1,-7,1
1252,-2,1,-11,1,-9,1,6,1,3,1,-10,1,-14,1,-25,1,-25,1,-23,1,-19,1,-7,1
1253,-2,1,-10,1,-8,1,6,1,3,1,-9,1,-14,1,-24,1,-25,1,-23,1,-19,1,-6,1
1254,-3,1,-9,1,-6,1,6,1,1,1,-8,1,-14,1,-23,1,-25,1,-23,1,-19,1,-6,1
1255,-3,1,-9,1,-6,1,6,1,1,1,-8,1,-14,1,-22,1,-25,1,-23,1,-19,1,-5,1
1256,-4,1,-9,1,-5,1,6,1,0,1,-7,1,-14,1,-22,1,-24,1,-23,1,-19,1,-5,1
1257,-4,1,-9,1,-5,1,6,1,0,1,-7,1,-14,1,-23,1,-25,1,-24,1,-19,1,-5,1
1258,-3,1,-9,1,-6,1,6,1,1,1,-8,1,-14,1,-23,1,-24,1,-24,1,-19,1,-5,1
1259,-1,1,-9,1,-8,1,5,1,3,1,-9,1,-14,1,-25,1,-25,1,-23,1,-19,1,-6,1
1260,0,1,-9,1,-9,1,4,1,4,1,-9,1,-15,1,-25,1,-25,1,-23,1,-20,1,-7,1
1261,0,1,-9,1,-9,1,4,1,4,1,-9,1,-15,1,-25,1,-25,1,-23,1,-20,1,-7,1
1262,0,1,-9,1,-9,1,4,1,4,1,-9,1,-15,1,-24,1,-25,1,-24,1,-20,1,-7,1
1263,-2,1,-10,1,-8,1,6,1,3,1,-9,1,-15,1,-24,1,-25,1,-24,1,-20,1,-7,1
1264,-2,1,-11,1,-9,1,6,1,3,1,-10,1,-15,1,-24,1,-26,1,-25,1,-20,1,-7,1
1265,-1,1,-11,1,-10,1,6,1,4,1,-11,1,-16,1,-24,1,-26,1,-25,1,-20,1,-8,1
1266,-2,1,-11,1,-9,1,6,1,3,1,-10,1,-16,1,-24,1,-26,1,-24,1,-19,1,-7,1
1267,-3,1,-11,1,-8,1,7,1,2,1,-10,1,-15,1,-24,1,-26,1,-24,1,-19,1,-6,1
1268,-4,1,-11,1,-7,1,7,1,1,1,-9,1,-15,1,-24,1,-26,1,-24,1,-19,1,-5,1
1269,-3,1,-11,1,-8,1,7,1,2,1,-10,1,-14,1,-24,1,-26,1,-24,1,-19,1,-6,1
1270,-3,1,-9,1,-6,1,6,1,1,1,-8,1,-14,1,-24,1,-25,1,-23,1,-18,1,-6,1
1271,-2,1,-9,1,-7,1,5,1,2,1,-8,1,-14,1,-24,1,-25,1,-23,1,-19,1,-6,1
1272,-2,1,-10,1,-8,1,6,1,3,1,-9,1,-14,1,-25,1,-25,1,-23,1,-19,1,-6,1
1273,-2,1,-10,1,-8,1,6,1,3,1,-9,1,-15,1,-25,1,-26,1,-23,1,-19,1,-6,1
1274,-2,1,-11,1,-9,1,6,1,3,1,-10,1,-15,1,-25,1,-26,1,-24,1,-19,1,-6,1
1275,-3,1,-10,1,-7,1,6,1,2,1,-9,1,-14,1,-25,1,-26,1,-24,1,-19,1,-6,1
1276,-2,1,-10,1,-8,1,6,1,3,1,-9,1,-14,1,-25,1,-25,1,-24,1,-19,1,-6,1
1277,-2,1,-10,1,-8,1,6,1,3,1,-9,1,-14,1,-25,1,-25,1,-24,1,-20,1,-6,1
1278,-2,1,-11,1,-9,1,6,1,3,1,-10,1,-14,1,-25,1,-25,1,-23,1,-20,1,-7,1
1279,-1,1,-11,1,-10,1,6,1,4,1,-11,1,-15,1,-25,1,-25,1,-23,1,-19,1,-7,1
1280,-2,1,-10,1,-8,1,6,1,3,1,-9,1,-15,1,-25,1,-25,1,-23,1,-19,1,-7,1
1281,-3,1,-11,1,-8,1,7,1,2,1,-10,1,-15,1,-25,1,-25,1,-23,1,-19,1,-7,1
1282,-2,1,-11,1,-9,1,6,1,3,1,-10,1,-15,1,-25,1,-25,1,-24,1,-20,1,-7,1
1283,-1,1,-11,1,-10,1,6,1,4,1,-11,1,-15,1,-25,1,-25,1,-25,1,-20,1,-8,1
1284,0,1,-12,1,-12,1,6,1,6,1,-12,1,-16,1,-25,1,-26,1,-25,1,-20,1,-8,1
1285,-1,1,-13,1,-12,1,7,1,5,1,-13,1,-15,1,-25,1,-26,1,-25,1,-20,1,-8,1
1286,-2,1,-11,1,-9,1,6,1,3,1,-10,1,-14,1,-24,1,-25,1,-24,1,-20,1,-7,1
1287,-2,1,-10,1,-8,1,6,1,3,1,-9,1,-14,1,-24,1,-25,1,-24,1,-19,1,-7,1
1288,-2,1,-9,1,-7,1,5,1,2,1,-8,1,-13,1,-23,1,-24,1,-23,1,-18,1,-7,1
1289,-2,1,-9,1,-7,1,5,1,2,1,-8,1,-13,1,-23,1,-24,1,-23,1,-18,1,-7,1
1290,-2,1,-8,1,-6,1,5,1,2,1,-7,1,-12,1,-22,1,-23,1,-23,1,-17,1,-7,1
1291,-2,1,-8,1,-6,1,5,1,2,1,-7,1,-11,1,-22,1,-23,1,-22,1,-17,1,-7,1
1292,-2,1,-8,1,-6,1,5,1,2,1,-7,1,-10,1,-21,1,-22,1,-21,1,-17,1,-6,1
1293,-2,1,-7,1,-5,1,4,1,1,1,-6,1,-9,1,-21,1,-21,1,-21,1,-16,1,-6,1
1294,-2,1,-6,1,-4,1,4,1,1,1,-5,1,-8,1,-20,1,-20,1,-20,1,-16,1,-6,1
1295,-1,1,-5,1,-4,1,3,1,1,1,-5,1,-8,1,-19,1,-19,1,-19,1,-15,1,-5,1
1296,0,1,-4,1,-4,1,2,1,2,1,-4,1,-8,1,-19,1,-19,1,-19,1,-15,1,-5,1
1297,1,1,-2,1,-3,1,0,1,2,1,-2,1,-8,1,-19,1,-19,1,-18,1,-14,1,-4,1
1298,2,1,0,1,-2,1,-1,1,2,1,-1,1,-8,1,-19,1,-19,1,-18,1,-14,1,-4,1
1299,3,1,0,1,-3,1,-1,1,3,1,-1,1,-7,1,-19,1,-18,1,-18,1,-13,1,-4,1
1300,3,1,1,1,-2,1,-2,1,3,1,0,1,-7,1,-19,1,-18,1,-17,1,-13,1,-3,1
1301,4,1,2,1,-2,1,-3,1,3,1,0,1,-7,1,-19,1,-18,1,-17,1,-13,1,-3,1
1302,5,1,2,1,-3,1,-3,1,4,1,0,1,-7,1,-18,1,-17,1,-17,1,-12,1,-3,1
1303,4,1,3,1,-1,1,-3,1,3,1,1,1,-7,1,-16,1,-16,1,-16,1,-12,1,-3,1
1304,3,1,4,1,1,1,-3,1,1,1,3,1,-6,1,-15,1,-14,1,-15,1,-12,1,-2,1
1305,3,1,5,1,2,1,-4,1,1,1,4,1,-6,1,-15,1,-13,1,-15,1,-12,1,-2,1
1306,3,1,6,1,3,1,-4,1,0,1,5,1,-6,1,-15,1,-13,1,-14,1,-12,1,-2,1
1307,3,1,6,1,3,1,-4,1,0,1,5,1,-7,1,-16,1,-14,1,-13,1,-11,1,-1,1
1308,3,1,8,1,5,1,-5,1,-1,1,7,1,-7,1,-15,1,-13,1,-12,1,-10,1,0,1
1309,3,1,10,1,7,1,-6,1,-2,1,9,1,-8,1,-16,1,-14,1,-11,1,-10,1,1,1
1310,4,1,11,1,7,1,-7,1,-1,1,9,1,-9,1,-17,1,-14,1,-11,1,-9,1,1,1
1311,4,1,12,1,8,1,-8,1,-2,1,10,1,-10,1,-18,1,-14,1,-11,1,-9,1,1,1
1312,5,1,12,1,7,1,-8,1,-1,1,10,1,-12,1,-19,1,-14,1,-11,1,-9,1,1,1
1313,6,1,12,1,6,1,-9,1,0,1,9,1,-14,1,-20,1,-15,1,-11,1,-9,1,1,1
1314,7,1,11,1,4,1,-9,1,2,1,8,1,-17,1,-21,1,-16,1,-12,1,-9,1,0,1
1315,9,1,11,1,2,1,-10,1,4,1,7,1,-19,1,-23,1,-18,1,-14,1,-10,1,0,1
1316,10,1,11,1,1,1,-10,1,5,1,6,1,-21,1,-25,1,-19,1,-15,1,-11,1,0,1
1317,10,1,11,1,1,1,-10,1,5,1,6,1,-22,1,-26,1,-20,1,-15,1,-11,1,-1,1
1318,12,1,11,1,-1,1,-11,1,7,1,5,1,-21,1,-26,1,-19,1,-16,1,-11,1,-1,1
1319,13,1,11,1,-2,1,-12,1,8,1,5,1,-21,1,-26,1,-19,1,-16,1,-11,1,-1,1
1320,13,1,11,1,-2,1,-12,1,8,1,5,1,-22,1,-25,1,-19,1,-16,1,-11,1,-1,1
1321,12,1,10,1,-2,1,-11,1,7,1,4,1,-22,1,-24,1,-19,1,-16,1,-11,1,0,1
1322,11,1,9,1,-2,1,-10,1,7,1,4,1,-22,1,-23,1,-19,1,-15,1,-11,1,0,1
1323,11,1,9,1,-2,1,-10,1,7,1,4,1,-22,1,-24,1,-19,1,-15,1,-11,1,0,1
1324,10,1,8,1,-2,1,-9,1,6,1,3,1,-23,1,-23,1,-20,1,-16,1,-11,1,0,1
1325,10,1,7,1,-3,1,-8,1,7,1,2,1,-22,1,-23,1,-20,1,-16,1,-11,1,1,1
1326,9,1,5,1,-4,1,-7,1,7,1,1,1,-22,1,-21,1,-19,1,-16,1,-11,1,1,1
1327,7,1,2,1,-5,1,-4,1,6,1,-1,1,-21,1,-20,1,-19,1,-16,1,-11,1,1,1
1328,5,1,0,1,-5,1,-2,1,5,1,-2,1,-19,1,-19,1,-19,1,-16,1,-12,1,0,1
1329,3,1,-2,1,-5,1,0,1,4,1,-3,1,-19,1,-20,1,-20,1,-17,1,-13,1,-1,1
1330,3,1,-3,1,-6,1,0,1,4,1,-4,1,-19,1,-20,1,-21,1,-18,1,-14,1,-2,1
1331,4,1,-4,1,-8,1,0,1,6,1,-6,1,-19,1,-21,1,-22,1,-19,1,-15,1,-3,1
1332,3,1,-5,1,-8,1,1,1,5,1,-6,1,-18,1,-21,1,-22,1,-19,1,-15,1,-4,1
1333,1,1,-6,1,-7,1,2,1,4,1,-6,1,-18,1,-21,1,-22,1,-20,1,-16,1,-5,1
1334,0,1,-7,1,-7,1,3,1,3,1,-7,1,-17,1,-20,1,-23,1,-20,1,-16,1,-6,1
1335,0,1,-7,1,-7,1,3,1,3,1,-7,1,-16,1,-20,1,-23,1,-21,1,-17,1,-6,1
1336,-1,1,-7,1,-6,1,4,1,2,1,-7,1,-16,1,-20,1,-23,1,-21,1,-17,1,-6,1
1337,-3,1,-7,1,-4,1,5,1,0,1,-6,1,-16,1,-21,1,-24,1,-22,1,-18,1,-7,1
1338,-2,1,-8,1,-6,1,5,1,2,1,-7,1,-16,1,-22,1,-25,1,-24,1,-19,1,-8,1
1339,-2,1,-9,1,-7,1,5,1,2,1,-8,1,-17,1,-22,1,-26,1,-25,1,-19,1,-8,1
1340,-2,1,-10,1,-8,1,6,1,3,1,-9,1,-17,1,-23,1,-27,1,-26,1,-20,1,-9,1
1341,-2,1,-12,1,-10,1,7,1,4,1,-11,1,-17,1,-24,1,-28,1,-26,1,-21,1,-10,1
1342,-3,1,-12,1,-9,1,7,1,3,1,-11,1,-17,1,-23,1,-28,1,-26,1,-22,1,-11,1
1343,-4,1,-13,1,-9,1,8,1,2,1,-11,1,-17,1,-23,1,-28,1,-26,1,-23,1,-11,1
1344,-6,1,-14,1,-8,1,10,1,1,1,-11,1,-17,1,-23,1,-28,1,-26,1,-23,1,-11,1
1345,-8,1,-14,1,-6,1,11,1,-1,1,-10,1,-17,1,-22,1,-27,1,-26,1,-24,1,-11,1
1346,-7,1,-14,1,-7,1,10,1,0,1,-11,1,-17,1,-22,1,-27,1,-26,1,-24,1,-11,1
1347,-6,1,-14,1,-8,1,10,1,1,1,-11,1,-18,1,-23,1,-28,1,-27,1,-25,1,-12,1
1348,-5,1,-14,1,-9,1,9,1,2,1,-12,1,-17,1,-23,1,-28,1,-27,1,-25,1,-12,1
1349,-5,1,-14,1,-9,1,9,1,2,1,-12,1,-17,1,-23,1,-28,1,-28,1,-25,1,-12,1
1350,-6,1,-15,1,-9,1,10,1,1,1,-12,1,-16,1,-23,1,-29,1,-28,1,-26,1,-12,1
1351,-6,1,-15,1,-9,1,10,1,1,1,-12,1,-16,1,-23,1,-30,1,-28,1,-26,1,-12,1
1352,-6,1,-15,1,-9,1,10,1,1,1,-12,1,-16,1,-22,1,-29,1,-28,1,-26,1,-13,1
1353,-7,1,-15,1,-8,1,11,1,0,1,-12,1,-16,1,-22,1,-29,1,-28,1,-26,1,-13,1
1354,-8,1,-15,1,-7,1,11,1,-1,1,-11,1,-16,1,-22,1,-29,1,-28,1,-26,1,-13,1
1355,-6,1,-15,1,-9,1,10,1,1,1,-12,1,-17,1,-22,1,-30,1,-29,1,-26,1,-13,1
1356,-6,1,-15,1,-9,1,10,1,1,1,-12,1,-17,1,-22,1,-29,1,-28,1,-27,1,-13,1
1357,-7,1,-15,1,-8,1,11,1,0,1,-12,1,-17,1,-22,1,-29,1,-29,1,-27,1,-14,1
1358,-8,1,-14,1,-6,1,11,1,-1,1,-10,1,-16,1,-21,1,-29,1,-28,1,-27,1,-13,1
1359,-7,1,-14,1,-7,1,10,1,0,1,-11,1,-15,1,-19,1,-28,1,-28,1,-27,1,-13,1
1360,-5,1,-14,1,-9,1,9,1,2,1,-12,1,-12,1,-15,1,-26,1,-28,1,-27,1,-14,1
1361,-4,1,-16,1,-12,1,10,1,4,1,-14,1,-7,1,-8,1,-23,1,-28,1,-27,1,-15,1
1362,-4,1,-16,1,-12,1,10,1,4,1,-14,1,0,1,-1,1,-18,1,-27,1,-26,1,-15,1
1363,-3,1,-15,1,-12,1,9,1,4,1,-14,1,6,1,6,1,-13,1,-25,1,-25,1,-14,1
1364,-2,1,-15,1,-13,1,8,1,5,1,-14,1,12,1,15,1,-7,1,-21,1,-23,1,-13,1
1365,0,1,-14,1,-14,1,7,1,7,1,-14,1,19,1,23,1,0,1,-16,1,-19,1,-10,1
1366,4,1,-12,1,-16,1,4,1,10,1,-14,1,25,1,32,1,10,1,-4,1,-10,1,-4,1
1367,11,1,-6,1,-17,1,-2,1,14,1,-11,1,32,1,46,1,27,1,15,1,5,1,5,1
1368,22,1,0,1,-22,1,-11,1,22,1,-11,1,41,1,64,1,54,1,44,1,28,1,20,1
1369,36,1,10,1,-26,1,-23,1,31,1,-8,1,48,1,83,1,83,1,78,1,57,1,39,1
1370,52,1,23,1,-29,1,-37,1,41,1,-3,1,51,1,96,1,110,1,112,1,88,1,61,1
1371,68,1,38,1,-30,1,-53,1,49,1,4,1,46,1,99,1,131,1,142,1,119,1,85,1
1372,85,1,54,1,-31,1,-69,1,58,1,12,1,31,1,89,1,143,1,168,1,150,1,109,1
1373,102,1,70,1,-32,1,-86,1,67,1,19,1,9,1,69,1,147,1,190,1,179,1,132,1
1374,112,1,83,1,-29,1,-97,1,71,1,27,1,-16,1,45,1,147,1,206,1,201,1,150,1
1375,115,1,90,1,-25,1,-102,1,70,1,33,1,-39,1,17,1,144,1,215,1,212,1,160,1
1376,110,1,92,1,-18,1,-101,1,64,1,37,1,-58,1,-7,1,139,1,217,1,214,1,161,1
1377,100,1,89,1,-11,1,-94,1,56,1,39,1,-76,1,-31,1,129,1,209,1,204,1,155,1
1378,89,1,80,1,-9,1,-84,1,49,1,36,1,-93,1,-50,1,115,1,192,1,184,1,142,1
1379,76,1,73,1,-3,1,-74,1,40,1,35,1,-111,1,-67,1,97,1,169,1,157,1,124,1
1380,60,1,66,1,6,1,-63,1,27,1,36,1,-124,1,-82,1,72,1,136,1,126,1,104,1
1381,42,1,60,1,18,1,-51,1,12,1,39,1,-131,1,-98,1,37,1,95,1,93,1,83,1
1382,25,1,53,1,28,1,-39,1,-1,1,41,1,-135,1,-117,1,-6,1,49,1,58,1,61,1
1383,11,1,44,1,33,1,-27,1,-11,1,39,1,-132,1,-127,1,-42,1,6,1,26,1,40,1
1384,2,1,35,1,33,1,-18,1,-15,1,34,1,-123,1,-126,1,-61,1,-20,1,3,1,23,1
1385,-3,1,27,1,30,1,-12,1,-16,1,28,1,-110,1,-115,1,-66,1,-34,1,-10,1,12,1
1386,-6,1,20,1,26,1,-7,1,-16,1,23,1,-95,1,-101,1,-63,1,-39,1,-19,1,5,1
1387,-7,1,16,1,23,1,-4,1,-15,1,19,1,-82,1,-86,1,-56,1,-39,1,-23,1,1,1
1388,-7,1,12,1,19,1,-2,1,-13,1,15,1,-68,1,-71,1,-50,1,-35,1,-24,1,-1,1
1389,-7,1,8,1,15,1,0,1,-11,1,11,1,-55,1,-56,1,-42,1,-29,1,-23,1,-3,1
1390,-7,1,5,1,12,1,1,1,-9,1,8,1,-44,1,-44,1,-36,1,-24,1,-20,1,-4,1
1391,-7,1,1,1,8,1,3,1,-7,1,4,1,-34,1,-33,1,-31,1,-20,1,-18,1,-4,1
1392,-8,1,-2,1,6,1,5,1,-7,1,2,1,-26,1,-25,1,-27,1,-20,1,-16,1,-4,1
1393,-6,1,-5,1,1,1,5,1,-4,1,-2,1,-20,1,-20,1,-23,1,-20,1,-16,1,-5,1
1394,-5,1,-7,1,-2,1,6,1,-2,1,-5,1,-17,1,-16,1,-21,1,-21,1,-17,1,-7,1
1395,-5,1,-10,1,-5,1,7,1,0,1,-8,1,-14,1,-14,1,-18,1,-22,1,-19,1,-8,1
1396,-5,1,-12,1,-7,1,8,1,1,1,-10,1,-12,1,-12,1,-17,1,-23,1,-20,1,-9,1
1397,-6,1,-13,1,-7,1,9,1,0,1,-10,1,-11,1,-13,1,-18,1,-23,1,-22,1,-10,1
1398,-7,1,-14,1,-7,1,10,1,0,1,-11,1,-11,1,-13,1,-19,1,-23,1,-23,1,-11,1
1399,-7,1,-15,1,-8,1,11,1,0,1,-12,1,-11,1,-13,1,-21,1,-24,1,-24,1,-12,1
1400,-8,1,-16,1,-8,1,12,1,0,1,-12,1,-11,1,-14,1,-22,1,-24,1,-24,1,-13,1
1401,-9,1,-17,1,-8,1,13,1,-1,1,-13,1,-10,1,-13,1,-23,1,-24,1,-23,1,-13,1
1402,-10,1,-16,1,-6,1,13,1,-2,1,-11,1,-9,1,-12,1,-22,1,-25,1,-23,1,-13,1
1403,-8,1,-16,1,-8,1,12,1,0,1,-12,1,-9,1,-11,1,-22,1,-26,1,-23,1,-12,1
1404,-7,1,-16,1,-9,1,11,1,1,1,-13,1,-8,1,-11,1,-21,1,-27,1,-24,1,-12,1
1405,-6,1,-16,1,-10,1,11,1,2,1,-13,1,-8,1,-10,1,-21,1,-27,1,-25,1,-13,1
1406,-7,1,-17,1,-10,1,12,1,1,1,-14,1,-8,1,-10,1,-21,1,-27,1,-25,1,-13,1
1407,-7,1,-16,1,-9,1,11,1,1,1,-13,1,-8,1,-10,1,-21,1,-27,1,-26,1,-14,1
1408,-6,1,-17,1,-11,1,11,1,2,1,-14,1,-8,1,-10,1,-22,1,-26,1,-27,1,-15,1
1409,-6,1,-17,1,-11,1,11,1,2,1,-14,1,-8,1,-10,1,-23,1,-26,1,-27,1,-15,1
1410,-7,1,-17,1,-10,1,12,1,1,1,-14,1,-8,1,-10,1,-23,1,-26,1,-26,1,-16,1
1411,-7,1,-17,1,-10,1,12,1,1,1,-14,1,-8,1,-10,1,-23,1,-26,1,-26,1,-16,1
1412,-8,1,-17,1,-9,1,12,1,0,1,-13,1,-7,1,-9,1,-22,1,-25,1,-26,1,-16,1
1413,-9,1,-18,1,-9,1,13,1,0,1,-14,1,-6,1,-9,1,-22,1,-25,1,-25,1,-15,1
1414,-10,1,-18,1,-8,1,14,1,-1,1,-13,1,-6,1,-8,1,-22,1,-25,1,-25,1,-15,1
1415,-11,1,-18,1,-7,1,14,1,-2,1,-13,1,-6,1,-8,1,-21,1,-25,1,-25,1,-15,1
1416,-10,1,-18,1,-8,1,14,1,-1,1,-13,1,-6,1,-9,1,-21,1,-25,1,-25,1,-15,1
1417,-10,1,-18,1,-8,1,14,1,-1,1,-13,1,-5,1,-8,1,-21,1,-25,1,-25,1,-15,1
1418,-11,1,-17,1,-6,1,14,1,-3,1,-12,1,-5,1,-7,1,-20,1,-24,1,-24,1,-14,1
1419,-11,1,-17,1,-6,1,14,1,-3,1,-12,1,-5,1,-7,1,-20,1,-23,1,-24,1,-14,1
1420,-10,1,-17,1,-7,1,13,1,-2,1,-12,1,-5,1,-7,1,-20,1,-23,1,-24,1,-14,1
1421,-10,1,-18,1,-8,1,14,1,-1,1,-13,1,-6,1,-7,1,-20,1,-23,1,-24,1,-15,1
1422,-9,1,-18,1,-9,1,13,1,0,1,-14,1,-6,1,-7,1,-19,1,-23,1,-24,1,-15,1
1423,-8,1,-18,1,-10,1,13,1,1,1,-14,1,-6,1,-7,1,-19,1,-24,1,-25,1,-15,1
1424,-7,1,-17,1,-10,1,12,1,1,1,-14,1,-7,1,-7,1,-19,1,-24,1,-25,1,-15,1
1425,-6,1,-17,1,-11,1,11,1,2,1,-14,1,-6,1,-7,1,-20,1,-24,1,-25,1,-15,1
1426,-6,1,-17,1,-11,1,11,1,2,1,-14,1,-6,1,-6,1,-19,1,-23,1,-25,1,-15,1
1427,-6,1,-17,1,-11,1,11,1,2,1,-14,1,-6,1,-6,1,-19,1,-23,1,-25,1,-14,1
1428,-7,1,-17,1,-10,1,12,1,1,1,-14,1,-5,1,-6,1,-18,1,-22,1,-23,1,-14,1
1429,-7,1,-17,1,-10,1,12,1,1,1,-14,1,-5,1,-6,1,-17,1,-22,1,-22,1,-15,1
1430,-7,1,-17,1,-10,1,12,1,1,1,-14,1,-5,1,-6,1,-17,1,-22,1,-22,1,-15,1
1431,-7,1,-17,1,-10,1,12,1,1,1,-14,1,-5,1,-6,1,-17,1,-22,1,-22,1,-16,1
1432,-7,1,-17,1,-10,1,12,1,1,1,-14,1,-5,1,-6,1,-16,1,-22,1,-22,1,-15,1
1433,-8,1,-17,1,-9,1,12,1,0,1,-13,1,-5,1,-5,1,-16,1,-22,1,-22,1,-15,1
1434,-9,1,-16,1,-7,1,12,1,-1,1,-12,1,-4,1,-5,1,-16,1,-22,1,-22,1,-15,1
1435,-10,1,-15,1,-5,1,12,1,-3,1,-10,1,-4,1,-4,1,-16,1,-21,1,-22,1,-14,1
1436,-10,1,-14,1,-4,1,12,1,-3,1,-9,1,-3,1,-3,1,-15,1,-21,1,-22,1,-14,1
1437,-8,1,-14,1,-6,1,11,1,-1,1,-10,1,-4,1,-4,1,-15,1,-21,1,-22,1,-13,1
1438,-6,1,-14,1,-8,1,10,1,1,1,-11,1,-4,1,-3,1,-15,1,-20,1,-22,1,-14,1
1439,-5,1,-14,1,-9,1,9,1,2,1,-12,1,-4,1,-3,1,-15,1,-20,1,-22,1,-15,1
1440,-5,1,-14,1,-9,1,9,1,2,1,-12,1,-4,1,-2,1,-14,1,-19,1,-22,1,-15,1
1441,-5,1,-15,1,-10,1,10,1,2,1,-13,1,-3,1,-2,1,-13,1,-19,1,-21,1,-15,1
1442,-5,1,-15,1,-10,1,10,1,2,1,-13,1,-3,1,-2,1,-13,1,-19,1,-21,1,-15,1
1443,-5,1,-15,1,-10,1,10,1,2,1,-13,1,-3,1,-2,1,-13,1,-18,1,-21,1,-14,1
1444,-5,1,-15,1,-10,1,10,1,2,1,-13,1,-3,1,-2,1,-13,1,-18,1,-21,1,-14,1
1445,-5,1,-15,1,-10,1,10,1,2,1,-13,1,-2,1,-1,1,-13,1,-18,1,-21,1,-14,1
1446,-4,1,-14,1,-10,1,9,1,3,1,-12,1,-2,1,-1,1,-12,1,-18,1,-21,1,-13,1
1447,-2,1,-14,1,-12,1,8,1,5,1,-13,1,-2,1,-1,1,-12,1,-18,1,-21,1,-14,1
1448,-2,1,-14,1,-12,1,8,1,5,1,-13,1,-2,1,0,1,-12,1,-18,1,-21,1,-14,1
1449,-2,1,-14,1,-12,1,8,1,5,1,-13,1,-2,1,0,1,-12,1,-18,1,-21,1,-14,1
1450,-2,1,-13,1,-11,1,7,1,4,1,-12,1,-2,1,1,1,-12,1,-18,1,-20,1,-14,1
1451,-1,1,-13,1,-12,1,7,1,5,1,-13,1,-2,1,1,1,-12,1,-17,1,-20,1,-15,1
1452,-1,1,-13,1,-12,1,7,1,5,1,-13,1,-1,1,1,1,-10,1,-16,1,-19,1,-14,1
1453,-2,1,-13,1,-11,1,7,1,4,1,-12,1,0,1,1,1,-9,1,-16,1,-18,1,-13,1
1454,-3,1,-13,1,-10,1,8,1,3,1,-12,1,0,1,1,1,-8,1,-15,1,-18,1,-13,1
1455,-4,1,-12,1,-8,1,8,1,2,1,-10,1,1,1,2,1,-7,1,-15,1,-17,1,-11,1
1456,-4,1,-12,1,-8,1,8,1,2,1,-10,1,1,1,3,1,-6,1,-14,1,-17,1,-11,1
1457,-3,1,-11,1,-8,1,7,1,2,1,-10,1,1,1,3,1,-6,1,-14,1,-16,1,-11,1
1458,-3,1,-11,1,-8,1,7,1,2,1,-10,1,2,1,4,1,-5,1,-14,1,-16,1,-11,1
1459,-2,1,-11,1,-9,1,6,1,3,1,-10,1,2,1,5,1,-4,1,-13,1,-16,1,-11,1
1460,-2,1,-11,1,-9,1,6,1,3,1,-10,1,1,1,6,1,-4,1,-13,1,-15,1,-11,1
1461,-1,1,-11,1,-10,1,6,1,4,1,-11,1,1,1,6,1,-4,1,-13,1,-15,1,-11,1
1462,0,1,-11,1,-11,1,5,1,5,1,-11,1,1,1,7,1,-3,1,-12,1,-15,1,-11,1
1463,1,1,-10,1,-11,1,4,1,6,1,-10,1,2,1,7,1,-2,1,-11,1,-14,1,-11,1
1464,1,1,-9,1,-10,1,4,1,5,1,-9,1,2,1,8,1,-1,1,-10,1,-14,1,-10,1
1465,0,1,-10,1,-10,1,5,1,5,1,-10,1,3,1,9,1,-1,1,-9,1,-13,1,-9,1
1466,0,1,-10,1,-10,1,5,1,5,1,-10,1,4,1,10,1,0,1,-7,1,-12,1,-9,1
1467,-1,1,-9,1,-8,1,5,1,3,1,-9,1,3,1,11,1,0,1,-6,1,-11,1,-9,1
1468,0,1,-9,1,-9,1,4,1,4,1,-9,1,4,1,12,1,1,1,-5,1,-11,1,-9,1
1469,-1,1,-9,1,-8,1,5,1,3,1,-9,1,5,1,13,1,2,1,-4,1,-10,1,-9,1
1470,-2,1,-9,1,-7,1,5,1,2,1,-8,1,5,1,14,1,4,1,-4,1,-9,1,-8,1
1471,-2,1,-8,1,-6,1,5,1,2,1,-7,1,5,1,15,1,5,1,-3,1,-9,1,-8,1
1472,-2,1,-7,1,-5,1,4,1,1,1,-6,1,6,1,16,1,6,1,-2,1,-7,1,-6,1
1473,-1,1,-7,1,-6,1,4,1,2,1,-7,1,7,1,17,1,7,1,-1,1,-7,1,-5,1
1474,-1,1,-6,1,-5,1,3,1,2,1,-6,1,7,1,18,1,8,1,0,1,-6,1,-5,1
1475,0,1,-5,1,-5,1,2,1,2,1,-5,1,7,1,19,1,9,1,1,1,-5,1,-4,1
1476,2,1,-5,1,-7,1,1,1,4,1,-6,1,8,1,19,1,10,1,2,1,-5,1,-4,1
1477,2,1,-4,1,-6,1,1,1,4,1,-5,1,8,1,20,1,12,1,4,1,-4,1,-3,1
1478,3,1,-4,1,-7,1,0,1,5,1,-5,1,8,1,21,1,13,1,5,1,-3,1,-2,1
1479,3,1,-4,1,-7,1,0,1,5,1,-5,1,8,1,23,1,14,1,6,1,-2,1,-2,1
1480,4,1,-3,1,-7,1,0,1,5,1,-5,1,8,1,24,1,15,1,6,1,-2,1,-2,1
1481,6,1,-2,1,-8,1,-2,1,7,1,-5,1,8,1,25,1,15,1,7,1,-1,1,-2,1
1482,7,1,-1,1,-8,1,-3,1,7,1,-4,1,9,1,26,1,16,1,8,1,0,1,-2,1
1483,9,1,0,1,-9,1,-4,1,9,1,-4,1,9,1,28,1,17,1,9,1,0,1,-1,1
1484,9,1,-1,1,-10,1,-4,1,9,1,-5,1,9,1,29,1,19,1,11,1,1,1,-1,1
1485,9,1,0,1,-9,1,-4,1,9,1,-4,1,10,1,31,1,21,1,12,1,3,1,0,1
1486,10,1,1,1,-9,1,-5,1,10,1,-4,1,10,1,33,1,22,1,14,1,5,1,1,1
1487,10,1,1,1,-9,1,-5,1,10,1,-4,1,11,1,34,1,24,1,16,1,6,1,2,1
1488,11,1,2,1,-9,1,-6,1,10,1,-3,1,11,1,35,1,25,1,16,1,7,1,3,1
1489,11,1,3,1,-8,1,-7,1,10,1,-2,1,12,1,36,1,27,1,18,1,9,1,3,1
1490,11,1,4,1,-7,1,-7,1,9,1,-1,1,12,1,38,1,28,1,19,1,10,1,3,1
1491,11,1,5,1,-6,1,-8,1,9,1,0,1,12,1,39,1,30,1,21,1,11,1,4,1
1492,13,1,5,1,-8,1,-9,1,11,1,-1,1,12,1,40,1,31,1,22,1,12,1,5,1
1493,15,1,6,1,-9,1,-10,1,12,1,-1,1,11,1,41,1,31,1,23,1,13,1,6,1
1494,15,1,6,1,-9,1,-10,1,12,1,-1,1,11,1,41,1,32,1,25,1,15,1,7,1
1495,16,1,7,1,-9,1,-11,1,13,1,-1,1,11,1,41,1,33,1,27,1,17,1,9,1
1496,18,1,8,1,-10,1,-13,1,14,1,-1,1,11,1,42,1,35,1,28,1,18,1,10,1
1497,20,1,9,1,-11,1,-14,1,16,1,-1,1,10,1,43,1,36,1,28,1,19,1,10,1
1498,20,1,10,1,-10,1,-15,1,15,1,0,1,10,1,43,1,38,1,30,1,20,1,11,1
1499,20,1,11,1,-9,1,-15,1,15,1,1,1,10,1,44,1,40,1,32,1,22,1,12,1
1500,20,1,12,1,-8,1,-16,1,14,1,2,1,10,1,45,1,41,1,34,1,23,1,13,1
1501,21,1,13,1,-8,1,-17,1,15,1,3,1,9,1,45,1,42,1,35,1,24,1,14,1
1502,22,1,14,1,-8,1,-18,1,15,1,3,1,9,1,46,1,43,1,37,1,25,1,16,1
1503,22,1,15,1,-7,1,-18,1,15,1,4,1,9,1,46,1,44,1,39,1,27,1,17,1
1504,20,1,15,1,-5,1,-17,1,13,1,5,1,10,1,46,1,45,1,40,1,29,1,18,1
1505,20,1,16,1,-4,1,-18,1,12,1,6,1,9,1,47,1,46,1,41,1,30,1,20,1
1506,21,1,17,1,-4,1,-19,1,13,1,7,1,8,1,47,1,46,1,41,1,32,1,20,1
1507,23,1,18,1,-5,1,-20,1,14,1,7,1,7,1,46,1,46,1,41,1,32,1,20,1
1508,24,1,19,1,-5,1,-21,1,15,1,7,1,7,1,46,1,46,1,42,1,32,1,21,1
1509,24,1,19,1,-5,1,-21,1,15,1,7,1,7,1,46,1,47,1,44,1,33,1,22,1
1510,24,1,19,1,-5,1,-21,1,15,1,7,1,6,1,45,1,47,1,45,1,34,1,23,1
1511,24,1,20,1,-4,1,-22,1,14,1,8,1,6,1,44,1,47,1,44,1,34,1,23,1
1512,25,1,20,1,-5,1,-22,1,15,1,8,1,5,1,44,1,47,1,44,1,35,1,24,1
1513,25,1,20,1,-5,1,-22,1,15,1,8,1,4,1,43,1,47,1,45,1,35,1,24,1
1514,25,1,20,1,-5,1,-22,1,15,1,8,1,3,1,41,1,47,1,44,1,35,1,24,1
1515,25,1,20,1,-5,1,-22,1,15,1,8,1,2,1,40,1,46,1,44,1,35,1,24,1
1516,25,1,19,1,-6,1,-22,1,16,1,7,1,2,1,39,1,46,1,43,1,36,1,24,1
1517,24,1,19,1,-5,1,-21,1,15,1,7,1,1,1,39,1,45,1,43,1,36,1,24,1
1518,24,1,20,1,-4,1,-22,1,14,1,8,1,1,1,39,1,45,1,43,1,36,1,25,1
1519,24,1,20,1,-4,1,-22,1,14,1,8,1,0,1,37,1,44,1,43,1,36,1,25,1
1520,24,1,20,1,-4,1,-22,1,14,1,8,1,0,1,36,1,42,1,43,1,36,1,24,1
1521,23,1,20,1,-3,1,-21,1,13,1,9,1,-1,1,35,1,41,1,43,1,35,1,24,1
1522,22,1,19,1,-3,1,-20,1,13,1,8,1,-2,1,33,1,40,1,41,1,35,1,23,1
1523,22,1,19,1,-3,1,-20,1,13,1,8,1,-2,1,31,1,38,1,40,1,33,1,23,1
1524,23,1,18,1,-5,1,-20,1,14,1,7,1,-3,1,29,1,36,1,38,1,31,1,22,1
1525,22,1,17,1,-5,1,-19,1,14,1,6,1,-3,1,28,1,35,1,36,1,30,1,22,1
1526,19,1,16,1,-3,1,-17,1,11,1,7,1,-2,1,28,1,33,1,35,1,29,1,22,1
1527,19,1,15,1,-4,1,-17,1,12,1,6,1,-2,1,25,1,31,1,33,1,28,1,22,1
1528,18,1,13,1,-5,1,-15,1,12,1,4,1,-2,1,23,1,29,1,32,1,26,1,20,1
1529,18,1,12,1,-6,1,-15,1,12,1,3,1,-3,1,21,1,27,1,30,1,24,1,19,1
1530,18,1,11,1,-7,1,-14,1,13,1,2,1,-3,1,19,1,25,1,28,1,22,1,17,1
1531,17,1,10,1,-7,1,-13,1,12,1,2,1,-4,1,17,1,23,1,25,1,19,1,15,1
1532,17,1,9,1,-8,1,-13,1,13,1,1,1,-4,1,15,1,21,1,23,1,17,1,14,1
1533,16,1,7,1,-9,1,-11,1,13,1,-1,1,-4,1,14,1,19,1,21,1,15,1,13,1
1534,15,1,6,1,-9,1,-10,1,12,1,-1,1,-5,1,13,1,16,1,18,1,14,1,12,1
1535,14,1,5,1,-9,1,-9,1,12,1,-2,1,-5,1,12,1,15,1,16,1,14,1,11,1
1536,13,1,4,1,-9,1,-8,1,11,1,-2,1,-5,1,11,1,14,1,14,1,13,1,10,1
1537,12,1,3,1,-9,1,-7,1,11,1,-3,1,-5,1,9,1,11,1,13,1,11,1,8,1
1538,11,1,3,1,-8,1,-7,1,10,1,-2,1,-6,1,7,1,9,1,11,1,9,1,6,1
1539,10,1,2,1,-8,1,-6,1,9,1,-3,1,-6,1,5,1,6,1,9,1,6,1,4,1
1540,7,1,1,1,-6,1,-4,1,7,1,-2,1,-6,1,4,1,4,1,7,1,4,1,2,1
1541,5,1,0,1,-5,1,-2,1,5,1,-2,1,-6,1,4,1,3,1,5,1,3,1,1,1
1542,3,1,0,1,-3,1,-1,1,3,1,-1,1,-6,1,4,1,2,1,3,1,2,1,0,1
1543,2,1,-1,1,-3,1,0,1,2,1,-2,1,-6,1,3,1,1,1,1,1,0,1,0,1
1544,3,1,-2,1,-5,1,0,1,4,1,-3,1,-6,1,1,1,0,1,0,1,0,1,-1,1
1545,3,1,-3,1,-6,1,0,1,4,1,-4,1,-7,1,0,1,-1,1,-2,1,-1,1,-2,1
1546,3,1,-4,1,-7,1,0,1,5,1,-5,1,-7,1,0,1,-3,1,-3,1,-3,1,-2,1
1547,2,1,-5,1,-7,1,1,1,4,1,-6,1,-8,1,-1,1,-4,1,-5,1,-4,1,-3,1
1548,1,1,-6,1,-7,1,2,1,4,1,-6,1,-8,1,-2,1,-5,1,-6,1,-5,1,-4,1
1549,1,1,-7,1,-8,1,3,1,4,1,-7,1,-8,1,-2,1,-6,1,-7,1,-6,1,-4,1
1550,0,1,-7,1,-7,1,3,1,3,1,-7,1,-8,1,-3,1,-7,1,-8,1,-7,1,-5,1
1551,0,1,-8,1,-8,1,4,1,4,1,-8,1,-8,1,-3,1,-7,1,-8,1,-8,1,-5,1
1552,0,1,-8,1,-8,1,4,1,4,1,-8,1,-8,1,-4,1,-8,1,-9,1,-9,1,-5,1
1553,1,1,-8,1,-9,1,3,1,5,1,-8,1,-9,1,-5,1,-9,1,-10,1,-9,1,-6,1
1554,1,1,-9,1,-10,1,4,1,5,1,-9,1,-9,1,-6,1,-10,1,-11,1,-10,1,-7,1
1555,0,1,-9,1,-9,1,4,1,4,1,-9,1,-9,1,-7,1,-11,1,-12,1,-10,1,-6,1
1556,0,1,-9,1,-9,1,4,1,4,1,-9,1,-9,1,-7,1,-11,1,-13,1,-10,1,-6,1
1557,0,1,-10,1,-10,1,5,1,5,1,-10,1,-10,1,-8,1,-11,1,-14,1,-10,1,-7,1
1558,0,1,-9,1,-9,1,4,1,4,1,-9,1,-10,1,-9,1,-12,1,-14,1,-10,1,-7,1
1559,0,1,-9,1,-9,1,4,1,4,1,-9,1,-9,1,-8,1,-12,1,-14,1,-10,1,-7,1
1560,-1,1,-9,1,-8,1,5,1,3,1,-9,1,-9,1,-8,1,-11,1,-13,1,-10,1,-7,1
1561,-3,1,-10,1,-7,1,6,1,2,1,-9,1,-9,1,-8,1,-11,1,-13,1,-10,1,-7,1
1562,-4,1,-10,1,-6,1,7,1,1,1,-8,1,-9,1,-8,1,-11,1,-13,1,-10,1,-7,1
1563,-3,1,-10,1,-7,1,6,1,2,1,-9,1,-9,1,-7,1,-11,1,-13,1,-11,1,-7,1
1564,-3,1,-10,1,-7,1,6,1,2,1,-9,1,-9,1,-7,1,-11,1,-13,1,-11,1,-8,1
1565,-3,1,-10,1,-7,1,6,1,2,1,-9,1,-9,1,-7,1,-11,1,-13,1,-12,1,-8,1
1566,-2,1,-10,1,-8,1,6,1,3,1,-9,1,-9,1,-7,1,-11,1,-13,1,-12,1,-8,1
1567,-1,1,-10,1,-9,1,5,1,4,1,-10,1,-9,1,-8,1,-12,1,-13,1,-13,1,-9,1
1568,-1,1,-10,1,-9,1,5,1,4,1,-10,1,-9,1,-8,1,-12,1,-13,1,-13,1,-9,1
1569,0,1,-11,1,-11,1,5,1,5,1,-11,1,-9,1,-8,1,-12,1,-13,1,-12,1,-9,1
1570,1,1,-11,1,-12,1,5,1,6,1,-11,1,-9,1,-8,1,-12,1,-14,1,-12,1,-9,1
1571,0,1,-12,1,-12,1,6,1,6,1,-12,1,-9,1,-8,1,-13,1,-14,1,-11,1,-9,1
1572,-1,1,-12,1,-11,1,6,1,5,1,-12,1,-9,1,-9,1,-13,1,-14,1,-12,1,-9,1
1573,-2,1,-12,1,-10,1,7,1,4,1,-11,1,-10,1,-9,1,-13,1,-14,1,-12,1,-10,1
1574,-2,1,-12,1,-10,1,7,1,4,1,-11,1,-9,1,-8,1,-13,1,-14,1,-12,1,-9,1
1575,-3,1,-12,1,-9,1,7,1,3,1,-11,1,-9,1,-8,1,-13,1,-14,1,-12,1,-9,1
1576,-4,1,-12,1,-8,1,8,1,2,1,-10,1,-8,1,-8,1,-12,1,-14,1,-12,1,-8,1
1577,-3,1,-12,1,-9,1,7,1,3,1,-11,1,-9,1,-8,1,-12,1,-14,1,-12,1,-9,1
1578,-2,1,-11,1,-9,1,6,1,3,1,-10,1,-9,1,-9,1,-12,1,-15,1,-13,1,-10,1
1579,-2,1,-12,1,-10,1,7,1,4,1,-11,1,-9,1,-8,1,-12,1,-14,1,-13,1,-9,1
1580,-2,1,-12,1,-10,1,7,1,4,1,-11,1,-10,1,-8,1,-11,1,-14,1,-13,1,-9,1
1581,-2,1,-11,1,-9,1,6,1,3,1,-10,1,-10,1,-8,1,-12,1,-14,1,-13,1,-9,1
1582,-4,1,-11,1,-7,1,7,1,1,1,-9,1,-9,1,-9,1,-12,1,-14,1,-13,1,-9,1
1583,-5,1,-11,1,-6,1,8,1,0,1,-9,1,-8,1,-9,1,-12,1,-14,1,-13,1,-10,1
1584,-5,1,-11,1,-6,1,8,1,0,1,-9,1,-8,1,-8,1,-13,1,-15,1,-14,1,-10,1
1585,-5,1,-11,1,-6,1,8,1,0,1,-9,1,-8,1,-8,1,-13,1,-15,1,-14,1,-10,1
1586,-4,1,-11,1,-7,1,7,1,1,1,-9,1,-8,1,-8,1,-12,1,-16,1,-14,1,-10,1
1587,-4,1,-11,1,-7,1,7,1,1,1,-9,1,-8,1,-8,1,-13,1,-15,1,-14,1,-10,1
1588,-2,1,-11,1,-9,1,6,1,3,1,-10,1,-7,1,-8,1,-12,1,-15,1,-14,1,-9,1
1589,-1,1,-11,1,-10,1,6,1,4,1,-11,1,-8,1,-8,1,-12,1,-15,1,-14,1,-9,1
1590,0,1,-11,1,-11,1,5,1,5,1,-11,1,-9,1,-9,1,-13,1,-16,1,-15,1,-10,1
1591,0,1,-11,1,-11,1,5,1,5,1,-11,1,-10,1,-9,1,-13,1,-16,1,-16,1,-9,1
1592,-1,1,-11,1,-10,1,6,1,4,1,-11,1,-10,1,-9,1,-13,1,-15,1,-16,1,-9,1
1593,-1,1,-11,1,-10,1,6,1,4,1,-11,1,-10,1,-9,1,-13,1,-15,1,-16,1,-9,1
1594,-1,1,-11,1,-10,1,6,1,4,1,-11,1,-9,1,-9,1,-14,1,-16,1,-17,1,-10,1
1595,-1,1,-11,1,-10,1,6,1,4,1,-11,1,-8,1,-9,1,-14,1,-16,1,-17,1,-10,1
1596,-1,1,-11,1,-10,1,6,1,4,1,-11,1,-8,1,-9,1,-13,1,-15,1,-16,1,-11,1
1597,-1,1,-11,1,-10,1,6,1,4,1,-11,1,-8,1,-9,1,-14,1,-15,1,-16,1,-10,1
1598,-1,1,-11,1,-10,1,6,1,4,1,-11,1,-9,1,-9,1,-14,1,-15,1,-16,1,-11,1
1599,-2,1,-10,1,-8,1,6,1,3,1,-9,1,-10,1,-9,1,-14,1,-15,1,-16,1,-10,1
1600,-2,1,-9,1,-7,1,5,1,2,1,-8,1,-11,1,-10,1,-14,1,-16,1,-16,1,-11,1
1601,-2,1,-9,1,-7,1,5,1,2,1,-8,1,-10,1,-11,1,-14,1,-16,1,-15,1,-11,1
1602,-2,1,-9,1,-7,1,5,1,2,1,-8,1,-10,1,-10,1,-14,1,-15,1,-15,1,-11,1
1603,-2,1,-9,1,-7,1,5,1,2,1,-8,1,-9,1,-10,1,-14,1,-15,1,-15,1,-11,1
1604,-3,1,-9,1,-6,1,6,1,1,1,-8,1,-9,1,-10,1,-14,1,-15,1,-14,1,-11,1
1605,-1,1,-8,1,-7,1,4,1,3,1,-8,1,-9,1,-10,1,-14,1,-15,1,-14,1,-10,1
1606,0,1,-8,1,-8,1,4,1,4,1,-8,1,-9,1,-9,1,-14,1,-15,1,-14,1,-11,1
1607,-1,1,-9,1,-8,1,5,1,3,1,-9,1,-10,1,-10,1,-15,1,-16,1,-14,1,-11,1
1608,-1,1,-9,1,-8,1,5,1,3,1,-9,1,-10,1,-11,1,-15,1,-15,1,-15,1,-11,1
1609,-2,1,-8,1,-6,1,5,1,2,1,-7,1,-9,1,-11,1,-14,1,-14,1,-14,1,-11,1
1610,-2,1,-8,1,-6,1,5,1,2,1,-7,1,-9,1,-11,1,-14,1,-14,1,-14,1,-11,1
1611,-1,1,-8,1,-7,1,4,1,3,1,-8,1,-10,1,-12,1,-15,1,-14,1,-14,1,-11,1
1612,0,1,-8,1,-8,1,4,1,4,1,-8,1,-10,1,-12,1,-15,1,-15,1,-14,1,-11,1
1613,0,1,-8,1,-8,1,4,1,4,1,-8,1,-10,1,-12,1,-15,1,-15,1,-15,1,-12,1
1614,1,1,-8,1,-9,1,3,1,5,1,-8,1,-11,1,-12,1,-15,1,-15,1,-15,1,-12,1
1615,1,1,-8,1,-9,1,3,1,5,1,-8,1,-11,1,-13,1,-15,1,-15,1,-15,1,-11,1
1616,1,1,-8,1,-9,1,3,1,5,1,-8,1,-11,1,-12,1,-16,1,-15,1,-15,1,-11,1
1617,0,1,-8,1,-8,1,4,1,4,1,-8,1,-11,1,-12,1,-15,1,-15,1,-14,1,-11,1
1618,0,1,-8,1,-8,1,4,1,4,1,-8,1,-12,1,-12,1,-15,1,-15,1,-14,1,-11,1
1619,0,1,-8,1,-8,1,4,1,4,1,-8,1,-12,1,-12,1,-15,1,-15,1,-14,1,-11,1
1620,-2,1,-9,1,-7,1,5,1,2,1,-8,1,-11,1,-12,1,-14,1,-14,1,-13,1,-10,1
1621,-3,1,-9,1,-6,1,6,1,1,1,-8,1,-11,1,-11,1,-14,1,-14,1,-13,1,-10,1
1622,-4,1,-8,1,-4,1,6,1,0,1,-6,1,-11,1,-11,1,-13,1,-14,1,-13,1,-9,1
1623,-4,1,-9,1,-5,1,6,1,0,1,-7,1,-11,1,-12,1,-13,1,-14,1,-13,1,-9,1
1624,-4,1,-9,1,-5,1,6,1,0,1,-7,1,-11,1,-12,1,-14,1,-14,1,-13,1,-9,1
1625,-4,1,-9,1,-5,1,6,1,0,1,-7,1,-11,1,-12,1,-14,1,-14,1,-13,1,-10,1
1626,-3,1,-10,1,-7,1,6,1,2,1,-9,1,-11,1,-12,1,-15,1,-14,1,-13,1,-11,1
1627,-2,1,-10,1,-8,1,6,1,3,1,-9,1,-12,1,-13,1,-16,1,-15,1,-14,1,-12,1
1628,0,1,-9,1,-9,1,4,1,4,1,-9,1,-11,1,-12,1,-16,1,-15,1,-14,1,-12,1
1629,0,1,-9,1,-9,1,4,1,4,1,-9,1,-11,1,-13,1,-16,1,-14,1,-14,1,-12,1
1630,0,1,-9,1,-9,1,4,1,4,1,-9,1,-11,1,-13,1,-16,1,-14,1,-14,1,-12,1
1631,0,1,-9,1,-9,1,4,1,4,1,-9,1,-11,1,-13,1,-16,1,-15,1,-15,1,-10,1
1632,0,1,-9,1,-9,1,4,1,4,1,-9,1,-11,1,-13,1,-15,1,-15,1,-15,1,-11,1
1633,0,1,-9,1,-9,1,4,1,4,1,-9,1,-11,1,-13,1,-16,1,-16,1,-16,1,-11,1
1634,0,1,-10,1,-10,1,5,1,5,1,-10,1,-11,1,-14,1,-16,1,-16,1,-15,1,-12,1
1635,0,1,-9,1,-9,1,4,1,4,1,-9,1,-11,1,-14,1,-17,1,-17,1,-15,1,-12,1
1636,0,1,-9,1,-9,1,4,1,4,1,-9,1,-12,1,-15,1,-18,1,-18,1,-16,1,-12,1
1637,0,1,-9,1,-9,1,4,1,4,1,-9,1,-11,1,-16,1,-18,1,-18,1,-16,1,-13,1
1638,0,1,-9,1,-9,1,4,1,4,1,-9,1,-12,1,-17,1,-19,1,-17,1,-16,1,-13,1
1639,0,1,-8,1,-8,1,4,1,4,1,-8,1,-12,1,-17,1,-19,1,-17,1,-16,1,-14,1
1640,0,1,-8,1,-8,1,4,1,4,1,-8,1,-11,1,-17,1,-19,1,-17,1,-16,1,-14,1
1641,0,1,-7,1,-7,1,3,1,3,1,-7,1,-11,1,-17,1,-19,1,-18,1,-16,1,-14,1
1642,-1,1,-7,1,-6,1,4,1,2,1,-7,1,-11,1,-18,1,-19,1,-18,1,-17,1,-14,1
1643,-1,1,-8,1,-7,1,4,1,3,1,-8,1,-12,1,-18,1,-19,1,-19,1,-18,1,-15,1
1644,-1,1,-9,1,-8,1,5,1,3,1,-9,1,-13,1,-20,1,-20,1,-20,1,-18,1,-14,1
1645,0,1,-9,1,-9,1,4,1,4,1,-9,1,-13,1,-20,1,-21,1,-21,1,-19,1,-14,1
1646,0,1,-10,1,-10,1,5,1,5,1,-10,1,-13,1,-20,1,-21,1,-22,1,-19,1,-15,1
1647,-1,1,-9,1,-8,1,5,1,3,1,-9,1,-13,1,-20,1,-21,1,-21,1,-19,1,-14,1
1648,-2,1,-8,1,-6,1,5,1,2,1,-7,1,-13,1,-20,1,-20,1,-21,1,-18,1,-14,1
1649,-2,1,-8,1,-6,1,5,1,2,1,-7,1,-13,1,-21,1,-20,1,-20,1,-18,1,-14,1
1650,-3,1,-8,1,-5,1,5,1,1,1,-7,1,-13,1,-20,1,-20,1,-19,1,-18,1,-15,1
1651,-2,1,-8,1,-6,1,5,1,2,1,-7,1,-13,1,-20,1,-20,1,-19,1,-17,1,-15,1
1652,-2,1,-8,1,-6,1,5,1,2,1,-7,1,-14,1,-21,1,-20,1,-20,1,-18,1,-15,1
1653,-2,1,-9,1,-7,1,5,1,2,1,-8,1,-14,1,-21,1,-21,1,-20,1,-18,1,-15,1
1654,-2,1,-9,1,-7,1,5,1,2,1,-8,1,-15,1,-20,1,-21,1,-20,1,-18,1,-14,1
1655,-2,1,-9,1,-7,1,5,1,2,1,-8,1,-15,1,-20,1,-21,1,-20,1,-18,1,-14,1
1656,-2,1,-8,1,-6,1,5,1,2,1,-7,1,-15,1,-20,1,-22,1,-20,1,-18,1,-14,1
1657,-3,1,-8,1,-5,1,5,1,1,1,-7,1,-14,1,-21,1,-22,1,-20,1,-19,1,-14,1
1658,-3,1,-8,1,-5,1,5,1,1,1,-7,1,-14,1,-21,1,-22,1,-20,1,-19,1,-15,1
1659,-4,1,-9,1,-5,1,6,1,0,1,-7,1,-14,1,-21,1,-22,1,-20,1,-18,1,-15,1
1660,-4,1,-9,1,-5,1,6,1,0,1,-7,1,-14,1,-21,1,-22,1,-21,1,-18,1,-15,1
1661,-3,1,-9,1,-6,1,6,1,1,1,-8,1,-14,1,-22,1,-22,1,-21,1,-18,1,-16,1
1662,-3,1,-9,1,-6,1,6,1,1,1,-8,1,-13,1,-21,1,-22,1,-21,1,-18,1,-15,1
1663,-4,1,-9,1,-5,1,6,1,0,1,-7,1,-13,1,-22,1,-21,1,-22,1,-18,1,-15,1
1664,-4,1,-9,1,-5,1,6,1,0,1,-7,1,-13,1,-21,1,-21,1,-22,1,-19,1,-13,1
1665,-4,1,-9,1,-5,1,6,1,0,1,-7,1,-13,1,-21,1,-21,1,-22,1,-18,1,-12,1
1666,-3,1,-9,1,-6,1,6,1,1,1,-8,1,-13,1,-21,1,-21,1,-22,1,-18,1,-12,1
1667,-3,1,-9,1,-6,1,6,1,1,1,-8,1,-13,1,-21,1,-22,1,-22,1,-18,1,-12,1
1668,-3,1,-10,1,-7,1,6,1,2,1,-9,1,-13,1,-21,1,-23,1,-22,1,-18,1,-13,1
1669,-3,1,-10,1,-7,1,6,1,2,1,-9,1,-13,1,-21,1,-23,1,-22,1,-17,1,-13,1
1670,-4,1,-10,1,-6,1,7,1,1,1,-8,1,-14,1,-21,1,-23,1,-21,1,-17,1,-13,1
1671,-4,1,-10,1,-6,1,7,1,1,1,-8,1,-12,1,-20,1,-24,1,-22,1,-18,1,-14,1
1672,-4,1,-10,1,-6,1,7,1,1,1,-8,1,-12,1,-20,1,-23,1,-22,1,-18,1,-14,1
1673,-4,1,-10,1,-6,1,7,1,1,1,-8,1,-12,1,-20,1,-23,1,-22,1,-18,1,-15,1
1674,-3,1,-10,1,-7,1,6,1,2,1,-9,1,-12,1,-21,1,-24,1,-22,1,-19,1,-15,1
1675,-4,1,-9,1,-5,1,6,1,0,1,-7,1,-12,1,-21,1,-24,1,-22,1,-19,1,-15,1
1676,-4,1,-10,1,-6,1,7,1,1,1,-8,1,-12,1,-21,1,-24,1,-22,1,-19,1,-15,1
1677,-3,1,-9,1,-6,1,6,1,1,1,-8,1,-13,1,-22,1,-24,1,-22,1,-19,1,-15,1
1678,-2,1,-9,1,-7,1,5,1,2,1,-8,1,-13,1,-22,1,-24,1,-22,1,-19,1,-15,1
1679,-1,1,-9,1,-8,1,5,1,3,1,-9,1,-14,1,-21,1,-24,1,-23,1,-20,1,-16,1
1680,-1,1,-9,1,-8,1,5,1,3,1,-9,1,-14,1,-21,1,-24,1,-23,1,-20,1,-17,1
1681,-1,1,-9,1,-8,1,5,1,3,1,-9,1,-15,1,-21,1,-24,1,-24,1,-21,1,-17,1
1682,0,1,-10,1,-10,1,5,1,5,1,-10,1,-15,1,-21,1,-25,1,-25,1,-20,1,-17,1
1683,0,1,-10,1,-10,1,5,1,5,1,-10,1,-15,1,-21,1,-25,1,-24,1,-20,1,-17,1
1684,-2,1,-9,1,-7,1,5,1,2,1,-8,1,-14,1,-21,1,-25,1,-24,1,-20,1,-17,1
1685,-2,1,-9,1,-7,1,5,1,2,1,-8,1,-14,1,-21,1,-25,1,-24,1,-20,1,-18,1
1686,-2,1,-9,1,-7,1,5,1,2,1,-8,1,-15,1,-21,1,-25,1,-24,1,-20,1,-18,1
1687,-3,1,-8,1,-5,1,5,1,1,1,-7,1,-14,1,-21,1,-24,1,-24,1,-19,1,-17,1
1688,-4,1,-8,1,-4,1,6,1,0,1,-6,1,-14,1,-20,1,-24,1,-23,1,-19,1,-17,1
1689,-3,1,-8,1,-5,1,5,1,1,1,-7,1,-15,1,-20,1,-24,1,-24,1,-20,1,-17,1
1690,-3,1,-9,1,-6,1,6,1,1,1,-8,1,-15,1,-20,1,-24,1,-24,1,-20,1,-18,1
1691,-4,1,-9,1,-5,1,6,1,0,1,-7,1,-15,1,-20,1,-23,1,-22,1,-19,1,-17,1
1692,-4,1,-10,1,-6,1,7,1,1,1,-8,1,-15,1,-20,1,-23,1,-22,1,-19,1,-17,1
1693,-3,1,-10,1,-7,1,6,1,2,1,-9,1,-15,1,-20,1,-23,1,-22,1,-19,1,-17,1
1694,-3,1,-10,1,-7,1,6,1,2,1,-9,1,-15,1,-21,1,-24,1,-23,1,-19,1,-17,1
1695,-2,1,-10,1,-8,1,6,1,3,1,-9,1,-16,1,-21,1,-25,1,-23,1,-19,1,-18,1
1696,-2,1,-9,1,-7,1,5,1,2,1,-8,1,-16,1,-21,1,-25,1,-23,1,-19,1,-17,1
1697,-3,1,-9,1,-6,1,6,1,1,1,-8,1,-16,1,-22,1,-25,1,-23,1,-19,1,-18,1
1698,-2,1,-8,1,-6,1,5,1,2,1,-7,1,-17,1,-21,1,-27,1,-23,1,-19,1,-18,1
1699,-2,1,-8,1,-6,1,5,1,2,1,-7,1,-17,1,-21,1,-27,1,-23,1,-19,1,-19,1
1700,-1,1,-8,1,-7,1,4,1,3,1,-8,1,-17,1,-21,1,-26,1,-24,1,-19,1,-19,1
1701,0,1,-7,1,-7,1,3,1,3,1,-7,1,-17,1,-21,1,-26,1,-25,1,-20,1,-19,1
1702,0,1,-7,1,-7,1,3,1,3,1,-7,1,-17,1,-21,1,-25,1,-25,1,-20,1,-19,1
1703,0,1,-6,1,-6,1,3,1,3,1,-6,1,-15,1,-20,1,-24,1,-24,1,-20,1,-19,1
1704,-1,1,-6,1,-5,1,3,1,2,1,-6,1,-13,1,-20,1,-23,1,-24,1,-20,1,-18,1
1705,-3,1,-7,1,-4,1,5,1,0,1,-6,1,-11,1,-19,1,-22,1,-23,1,-20,1,-17,1
1706,-4,1,-6,1,-2,1,5,1,-1,1,-4,1,-10,1,-17,1,-22,1,-22,1,-19,1,-16,1
1707,-2,1,-6,1,-4,1,4,1,1,1,-5,1,-10,1,-17,1,-21,1,-21,1,-19,1,-16,1
1708,-1,1,-5,1,-4,1,3,1,1,1,-5,1,-10,1,-16,1,-21,1,-21,1,-18,1,-16,1
1709,0,1,-4,1,-4,1,2,1,2,1,-4,1,-10,1,-16,1,-20,1,-20,1,-17,1,-15,1
1710,0,1,-3,1,-3,1,1,1,1,1,-3,1,-9,1,-15,1,-20,1,-20,1,-16,1,-15,1
1711,0,1,-1,1,-1,1,0,1,0,1,-1,1,-10,1,-16,1,-20,1,-20,1,-16,1,-15,1
1712,0,1,0,1,0,1,0,1,0,1,0,1,-10,1,-16,1,-20,1,-19,1,-15,1,-15,1
1713,0,1,1,1,1,1,0,1,0,1,1,1,-10,1,-16,1,-20,1,-19,1,-15,1,-14,1
1714,1,1,2,1,1,1,-1,1,0,1,2,1,-9,1,-16,1,-20,1,-18,1,-16,1,-13,1
1715,2,1,3,1,1,1,-2,1,1,1,2,1,-9,1,-16,1,-19,1,-17,1,-16,1,-12,1
1716,3,1,4,1,1,1,-3,1,1,1,3,1,-8,1,-15,1,-19,1,-17,1,-16,1,-11,1
1717,2,1,4,1,2,1,-3,1,0,1,3,1,-7,1,-14,1,-18,1,-16,1,-14,1,-11,1
1718,2,1,4,1,2,1,-3,1,0,1,3,1,-6,1,-14,1,-17,1,-16,1,-14,1,-11,1
1719,2,1,4,1,2,1,-3,1,0,1,3,1,-5,1,-13,1,-16,1,-16,1,-14,1,-11,1
1720,2,1,5,1,3,1,-3,1,0,1,4,1,-5,1,-12,1,-15,1,-16,1,-13,1,-11,1
1721,3,1,7,1,4,1,-5,1,0,1,6,1,-5,1,-12,1,-14,1,-15,1,-13,1,-10,1
1722,3,1,8,1,5,1,-5,1,-1,1,7,1,-5,1,-12,1,-12,1,-14,1,-12,1,-9,1
1723,2,1,10,1,8,1,-6,1,-3,1,9,1,-6,1,-13,1,-11,1,-13,1,-11,1,-8,1
1724,3,1,11,1,8,1,-7,1,-2,1,10,1,-7,1,-14,1,-12,1,-12,1,-11,1,-7,1
1725,4,1,13,1,9,1,-8,1,-2,1,11,1,-9,1,-15,1,-12,1,-12,1,-10,1,-7,1
1726,5,1,14,1,9,1,-9,1,-2,1,12,1,-11,1,-17,1,-13,1,-11,1,-10,1,-6,1
1727,6,1,14,1,8,1,-10,1,-1,1,11,1,-13,1,-18,1,-14,1,-11,1,-9,1,-5,1
1728,7,1,14,1,7,1,-10,1,0,1,11,1,-15,1,-19,1,-15,1,-11,1,-9,1,-5,1
1729,9,1,15,1,6,1,-12,1,2,1,11,1,-18,1,-19,1,-15,1,-11,1,-9,1,-5,1
1730,10,1,15,1,5,1,-12,1,3,1,10,1,-19,1,-20,1,-16,1,-11,1,-8,1,-5,1
1731,11,1,15,1,4,1,-13,1,4,1,10,1,-20,1,-20,1,-16,1,-13,1,-9,1,-5,1
1732,13,1,14,1,1,1,-13,1,6,1,8,1,-21,1,-21,1,-17,1,-14,1,-9,1,-6,1
1733,13,1,13,1,0,1,-13,1,7,1,7,1,-20,1,-21,1,-18,1,-14,1,-9,1,-6,1
1734,14,1,12,1,-2,1,-13,1,8,1,5,1,-20,1,-23,1,-19,1,-15,1,-9,1,-6,1
1735,14,1,11,1,-3,1,-12,1,9,1,4,1,-20,1,-23,1,-20,1,-15,1,-9,1,-6,1
1736,13,1,10,1,-3,1,-11,1,8,1,4,1,-20,1,-24,1,-20,1,-14,1,-9,1,-5,1
1737,12,1,10,1,-2,1,-11,1,7,1,4,1,-20,1,-23,1,-20,1,-14,1,-9,1,-5,1
1738,12,1,9,1,-3,1,-10,1,8,1,3,1,-21,1,-23,1,-20,1,-14,1,-10,1,-5,1
1739,12,1,10,1,-2,1,-11,1,7,1,4,1,-22,1,-22,1,-20,1,-15,1,-11,1,-6,1
1740,12,1,9,1,-3,1,-10,1,8,1,3,1,-22,1,-22,1,-20,1,-15,1,-11,1,-6,1
1741,11,1,7,1,-4,1,-9,1,8,1,2,1,-22,1,-22,1,-19,1,-15,1,-11,1,-6,1
1742,8,1,5,1,-3,1,-6,1,6,1,1,1,-20,1,-21,1,-19,1,-15,1,-11,1,-7,1
1743,4,1,2,1,-2,1,-3,1,3,1,0,1,-19,1,-21,1,-20,1,-16,1,-12,1,-7,1
1744,3,1,1,1,-2,1,-2,1,3,1,0,1,-19,1,-22,1,-20,1,-17,1,-13,1,-8,1
1745,3,1,0,1,-3,1,-1,1,3,1,-1,1,-18,1,-23,1,-21,1,-18,1,-13,1,-9,1
1746,3,1,-1,1,-4,1,-1,1,3,1,-2,1,-18,1,-23,1,-22,1,-19,1,-14,1,-9,1
1747,5,1,-2,1,-7,1,-1,1,6,1,-4,1,-18,1,-24,1,-23,1,-20,1,-16,1,-11,1
1748,5,1,-3,1,-8,1,-1,1,6,1,-5,1,-18,1,-25,1,-23,1,-20,1,-17,1,-11,1
1749,2,1,-3,1,-5,1,0,1,3,1,-4,1,-17,1,-24,1,-23,1,-20,1,-16,1,-11,1
1750,0,1,-4,1,-4,1,2,1,2,1,-4,1,-17,1,-23,1,-22,1,-20,1,-16,1,-11,1
1751,-1,1,-5,1,-4,1,3,1,1,1,-5,1,-18,1,-23,1,-23,1,-21,1,-16,1,-11,1
1752,-2,1,-5,1,-3,1,3,1,0,1,-4,1,-17,1,-23,1,-25,1,-22,1,-16,1,-11,1
1753,-3,1,-6,1,-3,1,4,1,0,1,-5,1,-17,1,-23,1,-25,1,-23,1,-17,1,-11,1
1754,-3,1,-7,1,-4,1,5,1,0,1,-6,1,-16,1,-24,1,-26,1,-23,1,-17,1,-11,1
1755,-4,1,-8,1,-4,1,6,1,0,1,-6,1,-15,1,-24,1,-27,1,-23,1,-18,1,-12,1
1756,-2,1,-9,1,-7,1,5,1,2,1,-8,1,-16,1,-25,1,-27,1,-23,1,-20,1,-13,1
1757,-1,1,-10,1,-9,1,5,1,4,1,-10,1,-16,1,-26,1,-28,1,-25,1,-21,1,-14,1
1758,-2,1,-11,1,-9,1,6,1,3,1,-10,1,-16,1,-26,1,-28,1,-26,1,-22,1,-15,1
1759,-2,1,-11,1,-9,1,6,1,3,1,-10,1,-17,1,-27,1,-29,1,-27,1,-24,1,-16,1
1760,-1,1,-12,1,-11,1,6,1,5,1,-12,1,-18,1,-27,1,-30,1,-29,1,-25,1,-17,1
1761,-2,1,-12,1,-10,1,7,1,4,1,-11,1,-18,1,-28,1,-31,1,-29,1,-25,1,-17,1
1762,-3,1,-12,1,-9,1,7,1,3,1,-11,1,-17,1,-28,1,-31,1,-29,1,-25,1,-18,1
1763,-5,1,-13,1,-8,1,9,1,1,1,-11,1,-17,1,-28,1,-31,1,-29,1,-25,1,-18,1
1764,-5,1,-14,1,-9,1,9,1,2,1,-12,1,-17,1,-28,1,-31,1,-29,1,-25,1,-18,1
1765,-5,1,-14,1,-9,1,9,1,2,1,-12,1,-16,1,-28,1,-31,1,-29,1,-25,1,-18,1
1766,-5,1,-14,1,-9,1,9,1,2,1,-12,1,-15,1,-28,1,-30,1,-28,1,-25,1,-18,1
1767,-5,1,-15,1,-10,1,10,1,2,1,-13,1,-14,1,-27,1,-30,1,-28,1,-25,1,-18,1
1768,-5,1,-15,1,-10,1,10,1,2,1,-13,1,-15,1,-27,1,-31,1,-29,1,-25,1,-18,1
1769,-4,1,-15,1,-11,1,9,1,3,1,-13,1,-15,1,-27,1,-31,1,-29,1,-25,1,-18,1
1770,-4,1,-15,1,-11,1,9,1,3,1,-13,1,-15,1,-26,1,-30,1,-29,1,-25,1,-17,1
1771,-4,1,-14,1,-10,1,9,1,3,1,-12,1,-14,1,-24,1,-30,1,-29,1,-25,1,-17,1
1772,-5,1,-13,1,-8,1,9,1,1,1,-11,1,-14,1,-24,1,-29,1,-28,1,-25,1,-17,1
1773,-5,1,-13,1,-8,1,9,1,1,1,-11,1,-14,1,-25,1,-30,1,-29,1,-26,1,-18,1
1774,-4,1,-13,1,-9,1,8,1,2,1,-11,1,-13,1,-23,1,-29,1,-28,1,-27,1,-18,1
1775,-2,1,-14,1,-12,1,8,1,5,1,-13,1,-10,1,-18,1,-27,1,-28,1,-27,1,-19,1
1776,-2,1,-15,1,-13,1,8,1,5,1,-14,1,-6,1,-11,1,-23,1,-27,1,-27,1,-20,1
1777,-3,1,-15,1,-12,1,9,1,4,1,-14,1,0,1,-4,1,-19,1,-25,1,-27,1,-20,1
1778,-1,1,-14,1,-13,1,7,1,6,1,-14,1,6,1,4,1,-14,1,-22,1,-26,1,-19,1
1779,0,1,-14,1,-14,1,7,1,7,1,-14,1,13,1,12,1,-7,1,-18,1,-23,1,-18,1
1780,2,1,-13,1,-15,1,5,1,8,1,-14,1,19,1,19,1,-1,1,-12,1,-19,1,-16,1
1781,7,1,-10,1,-17,1,1,1,12,1,-13,1,25,1,27,1,9,1,-2,1,-11,1,-9,1
1782,15,1,-5,1,-20,1,-5,1,17,1,-12,1,31,1,39,1,25,1,16,1,4,1,0,1
1783,25,1,1,1,-24,1,-13,1,25,1,-11,1,40,1,57,1,50,1,44,1,27,1,15,1
1784,38,1,10,1,-28,1,-24,1,33,1,-9,1,48,1,78,1,82,1,78,1,58,1,36,1
1785,53,1,24,1,-29,1,-38,1,41,1,-2,1,52,1,93,1,112,1,114,1,92,1,60,1
1786,68,1,39,1,-29,1,-53,1,49,1,5,1,48,1,97,1,133,1,146,1,125,1,85,1
1787,84,1,55,1,-29,1,-69,1,57,1,13,1,33,1,87,1,145,1,174,1,155,1,111,1
1788,100,1,72,1,-28,1,-86,1,64,1,22,1,11,1,66,1,149,1,196,1,183,1,134,1
1789,112,1,84,1,-28,1,-98,1,70,1,28,1,-12,1,42,1,149,1,213,1,205,1,152,1
1790,115,1,90,1,-25,1,-102,1,70,1,33,1,-34,1,16,1,145,1,221,1,216,1,162,1
1791,109,1,93,1,-16,1,-101,1,63,1,39,1,-52,1,-10,1,138,1,223,1,217,1,163,1
1792,99,1,90,1,-9,1,-94,1,54,1,41,1,-68,1,-34,1,128,1,214,1,206,1,156,1
1793,87,1,83,1,-4,1,-85,1,46,1,40,1,-82,1,-55,1,114,1,197,1,186,1,141,1
1794,73,1,77,1,4,1,-75,1,35,1,41,1,-97,1,-73,1,95,1,172,1,160,1,123,1
1795,56,1,71,1,15,1,-63,1,21,1,43,1,-110,1,-89,1,71,1,140,1,129,1,102,1
1796,40,1,65,1,25,1,-52,1,8,1,45,1,-120,1,-106,1,38,1,100,1,95,1,80,1
1797,23,1,59,1,36,1,-41,1,-6,1,48,1,-127,1,-126,1,-5,1,52,1,59,1,58,1
1798,6,1,50,1,44,1,-28,1,-19,1,47,1,-127,1,-137,1,-42,1,10,1,25,1,36,1
