TS,I,If,II,IIf,III,IIIf,aVR,aVRf,aVL,aVLf,aVF,aVFf,V1,V1f,V2,V2f,V3,V3f,V4,V4f,V5,V5f,V6,V6f
1,-2,1,2,1,4,1,0,1,-3,1,3,1,11,1,5,1,2,1,5,1,-4,1,-1,1
2,-4,1,0,1,4,1,2,1,-4,1,2,1,10,1,5,1,2,1,5,1,-5,1,-1,1
3,-8,1,-2,1,6,1,5,1,-7,1,2,1,9,1,4,1,1,1,4,1,-5,1,-1,1
4,-9,1,-3,1,6,1,6,1,-8,1,1,1,9,1,4,1,1,1,4,1,-4,1,-1,1
5,-7,1,-1,1,6,1,4,1,-7,1,2,1,10,1,4,1,2,1,5,1,-4,1,0,1
6,-6,1,0,1,6,1,3,1,-6,1,3,1,11,1,4,1,2,1,5,1,-4,1,0,1
7,-4,1,3,1,7,1,0,1,-5,1,5,1,14,1,6,1,4,1,7,1,-2,1,2,1
8,-1,1,6,1,7,1,-2,1,-4,1,6,1,14,1,6,1,4,1,7,1,-1,1,2,1
9,0,1,8,1,8,1,-4,1,-4,1,8,1,15,1,7,1,5,1,8,1,-1,1,3,1
10,2,1,10,1,8,1,-6,1,-3,1,9,1,15,1,8,1,5,1,10,1,0,1,3,1
11,3,1,11,1,8,1,-7,1,-2,1,10,1,16,1,8,1,6,1,11,1,0,1,5,1
12,3,1,12,1,9,1,-7,1,-3,1,11,1,17,1,9,1,7,1,13,1,1,1,6,1
13,5,1,11,1,6,1,-8,1,0,1,9,1,18,1,10,1,8,1,13,1,3,1,7,1
14,4,1,9,1,5,1,-6,1,0,1,7,1,18,1,11,1,9,1,14,1,4,1,7,1
15,2,1,7,1,5,1,-4,1,-1,1,6,1,17,1,11,1,9,1,14,1,4,1,7,1
16,1,1,4,1,3,1,-2,1,-1,1,4,1,17,1,12,1,9,1,14,1,4,1,7,1
17,1,1,3,1,2,1,-2,1,0,1,3,1,17,1,12,1,10,1,13,1,4,1,6,1
18,1,1,0,1,-1,1,0,1,1,1,0,1,17,1,12,1,10,1,15,1,4,1,6,1
19,0,1,-1,1,-1,1,0,1,0,1,-1,1,15,1,12,1,11,1,15,1,3,1,6,1
20,0,1,-1,1,-1,1,0,1,0,1,-1,1,15,1,12,1,10,1,13,1,3,1,5,1
21,0,1,-2,1,-2,1,1,1,1,1,-2,1,13,1,11,1,10,1,13,1,3,1,4,1
22,0,1,-2,1,-2,1,1,1,1,1,-2,1,12,1,11,1,10,1,13,1,3,1,4,1
23,0,1,-2,1,-2,1,1,1,1,1,-2,1,11,1,12,1,11,1,14,1,4,1,4,1
24,1,1,-1,1,-2,1,0,1,1,1,-1,1,11,1,12,1,12,1,14,1,4,1,5,1
25,1,1,0,1,-1,1,0,1,1,1,0,1,11,1,14,1,12,1,14,1,5,1,5,1
26,3,1,3,1,0,1,-3,1,2,1,2,1,11,1,15,1,13,1,15,1,5,1,5,1
27,4,1,4,1,0,1,-4,1,2,1,2,1,10,1,16,1,13,1,15,1,5,1,6,1
28,5,1,5,1,0,1,-5,1,3,1,3,1,9,1,16,1,13,1,14,1,5,1,8,1
29,7,1,6,1,-1,1,-6,1,4,1,3,1,9,1,16,1,13,1,14,1,5,1,9,1
30,10,1,8,1,-2,1,-9,1,6,1,3,1,8,1,16,1,14,1,15,1,6,1,9,1
31,13,1,11,1,-2,1,-12,1,8,1,5,1,8,1,16,1,14,1,17,1,8,1,11,1
32,18,1,14,1,-4,1,-16,1,11,1,5,1,7,1,17,1,14,1,17,1,9,1,12,1
33,21,1,15,1,-6,1,-18,1,14,1,5,1,7,1,17,1,14,1,17,1,9,1,13,1
34,21,1,15,1,-6,1,-18,1,14,1,5,1,7,1,16,1,13,1,17,1,10,1,13,1
35,22,1,15,1,-7,1,-18,1,15,1,4,1,6,1,14,1,12,1,15,1,9,1,11,1
36,20,1,13,1,-7,1,-16,1,14,1,3,1,6,1,11,1,11,1,14,1,6,1,9,1
37,18,1,8,1,-10,1,-13,1,14,1,-1,1,6,1,10,1,9,1,13,1,5,1,8,1
38,13,1,3,1,-10,1,-8,1,12,1,-3,1,6,1,8,1,9,1,11,1,3,1,6,1
39,8,1,-1,1,-9,1,-3,1,8,1,-5,1,6,1,8,1,7,1,10,1,2,1,6,1
40,5,1,-3,1,-8,1,-1,1,6,1,-5,1,5,1,8,1,5,1,7,1,0,1,5,1
41,5,1,-4,1,-9,1,0,1,7,1,-6,1,5,1,7,1,3,1,5,1,-1,1,2,1
42,5,1,-6,1,-11,1,0,1,8,1,-8,1,5,1,6,1,2,1,3,1,-3,1,0,1
43,5,1,-8,1,-13,1,1,1,9,1,-10,1,5,1,4,1,1,1,0,1,-5,1,-1,1
44,5,1,-8,1,-13,1,1,1,9,1,-10,1,4,1,3,1,0,1,0,1,-6,1,-2,1
45,4,1,-9,1,-13,1,2,1,8,1,-11,1,4,1,2,1,-1,1,-1,1,-8,1,-5,1
46,3,1,-9,1,-12,1,3,1,7,1,-10,1,4,1,1,1,-2,1,-2,1,-9,1,-5,1
47,3,1,-8,1,-11,1,2,1,7,1,-9,1,4,1,1,1,-2,1,-1,1,-9,1,-6,1
48,3,1,-8,1,-11,1,2,1,7,1,-9,1,5,1,1,1,-2,1,-1,1,-7,1,-6,1
49,0,1,-9,1,-9,1,4,1,4,1,-9,1,5,1,0,1,-2,1,-1,1,-7,1,-4,1
50,-2,1,-12,1,-10,1,7,1,4,1,-11,1,5,1,0,1,-3,1,-2,1,-7,1,-4,1
51,-5,1,-14,1,-9,1,9,1,2,1,-12,1,6,1,-1,1,-3,1,-1,1,-7,1,-3,1
52,-6,1,-14,1,-8,1,10,1,1,1,-11,1,6,1,-1,1,-4,1,-1,1,-7,1,-3,1
53,-5,1,-13,1,-8,1,9,1,1,1,-11,1,7,1,-2,1,-5,1,-2,1,-8,1,-4,1
54,-4,1,-13,1,-9,1,8,1,2,1,-11,1,7,1,-2,1,-5,1,-2,1,-8,1,-4,1
55,-7,1,-12,1,-5,1,9,1,-1,1,-9,1,6,1,-2,1,-6,1,-2,1,-8,1,-5,1
56,-8,1,-13,1,-5,1,10,1,-2,1,-9,1,6,1,-2,1,-6,1,-3,1,-9,1,-7,1
57,-8,1,-14,1,-6,1,11,1,-1,1,-10,1,6,1,-3,1,-7,1,-3,1,-10,1,-8,1
58,-8,1,-14,1,-6,1,11,1,-1,1,-10,1,6,1,-3,1,-7,1,-5,1,-11,1,-9,1
59,-8,1,-15,1,-7,1,11,1,-1,1,-11,1,5,1,-4,1,-8,1,-6,1,-13,1,-10,1
60,-8,1,-16,1,-8,1,12,1,0,1,-12,1,5,1,-4,1,-8,1,-6,1,-13,1,-10,1
61,-8,1,-15,1,-7,1,11,1,-1,1,-11,1,5,1,-5,1,-8,1,-7,1,-13,1,-10,1
62,-8,1,-15,1,-7,1,11,1,-1,1,-11,1,5,1,-6,1,-8,1,-8,1,-14,1,-10,1
63,-11,1,-17,1,-6,1,14,1,-3,1,-12,1,5,1,-6,1,-8,1,-8,1,-14,1,-10,1
64,-12,1,-16,1,-4,1,14,1,-4,1,-10,1,5,1,-6,1,-8,1,-8,1,-14,1,-10,1
65,-11,1,-16,1,-5,1,13,1,-3,1,-11,1,5,1,-6,1,-8,1,-8,1,-14,1,-9,1
66,-11,1,-15,1,-4,1,13,1,-4,1,-10,1,5,1,-6,1,-8,1,-7,1,-14,1,-9,1
67,-10,1,-15,1,-5,1,12,1,-3,1,-10,1,6,1,-5,1,-7,1,-7,1,-13,1,-9,1
68,-10,1,-15,1,-5,1,12,1,-3,1,-10,1,7,1,-5,1,-7,1,-7,1,-13,1,-9,1
69,-9,1,-15,1,-6,1,12,1,-2,1,-11,1,7,1,-5,1,-8,1,-7,1,-14,1,-9,1
70,-9,1,-16,1,-7,1,12,1,-1,1,-12,1,7,1,-5,1,-8,1,-7,1,-14,1,-9,1
71,-9,1,-17,1,-8,1,13,1,-1,1,-13,1,7,1,-5,1,-9,1,-7,1,-14,1,-10,1
72,-10,1,-18,1,-8,1,14,1,-1,1,-13,1,7,1,-5,1,-9,1,-7,1,-14,1,-9,1
73,-10,1,-18,1,-8,1,14,1,-1,1,-13,1,9,1,-5,1,-8,1,-7,1,-14,1,-9,1
74,-10,1,-17,1,-7,1,13,1,-2,1,-12,1,9,1,-4,1,-8,1,-7,1,-14,1,-9,1
75,-10,1,-17,1,-7,1,13,1,-2,1,-12,1,10,1,-4,1,-8,1,-7,1,-13,1,-9,1
76,-10,1,-16,1,-6,1,13,1,-2,1,-11,1,10,1,-4,1,-8,1,-7,1,-13,1,-9,1
77,-12,1,-16,1,-4,1,14,1,-4,1,-10,1,10,1,-5,1,-9,1,-7,1,-14,1,-10,1
78,-12,1,-17,1,-5,1,14,1,-4,1,-11,1,10,1,-5,1,-9,1,-7,1,-14,1,-10,1
79,-12,1,-17,1,-5,1,14,1,-4,1,-11,1,11,1,-5,1,-8,1,-7,1,-14,1,-11,1
80,-13,1,-17,1,-4,1,15,1,-5,1,-11,1,11,1,-4,1,-7,1,-7,1,-15,1,-11,1
81,-14,1,-18,1,-4,1,16,1,-5,1,-11,1,11,1,-3,1,-7,1,-7,1,-15,1,-12,1
82,-17,1,-20,1,-3,1,18,1,-7,1,-12,1,10,1,-2,1,-6,1,-7,1,-15,1,-14,1
83,-21,1,-24,1,-3,1,22,1,-9,1,-14,1,10,1,-1,1,-5,1,-6,1,-15,1,-16,1
84,-23,1,-27,1,-4,1,25,1,-10,1,-16,1,12,1,2,1,-3,1,-5,1,-15,1,-17,1
85,-22,1,-27,1,-5,1,24,1,-9,1,-16,1,14,1,8,1,2,1,0,1,-12,1,-15,1
86,-20,1,-28,1,-8,1,24,1,-6,1,-18,1,15,1,16,1,11,1,7,1,-7,1,-12,1
87,-18,1,-27,1,-9,1,22,1,-5,1,-18,1,17,1,28,1,23,1,16,1,-1,1,-10,1
88,-15,1,-23,1,-8,1,19,1,-4,1,-16,1,20,1,44,1,39,1,27,1,6,1,-6,1
89,-9,1,-21,1,-12,1,15,1,1,1,-17,1,24,1,62,1,57,1,42,1,16,1,0,1
90,-2,1,-19,1,-17,1,10,1,7,1,-18,1,29,1,83,1,81,1,61,1,31,1,7,1
91,11,1,-14,1,-25,1,1,1,18,1,-19,1,33,1,105,1,106,1,84,1,50,1,17,1
92,27,1,-7,1,-34,1,-10,1,30,1,-20,1,32,1,123,1,131,1,108,1,71,1,31,1
93,45,1,0,1,-45,1,-22,1,45,1,-22,1,29,1,137,1,153,1,130,1,94,1,47,1
94,64,1,10,1,-54,1,-37,1,59,1,-22,1,25,1,145,1,170,1,151,1,116,1,63,1
95,80,1,22,1,-58,1,-51,1,69,1,-18,1,19,1,149,1,182,1,169,1,134,1,78,1
96,93,1,32,1,-61,1,-62,1,77,1,-14,1,13,1,147,1,186,1,178,1,146,1,89,1
97,101,1,41,1,-60,1,-71,1,81,1,-9,1,3,1,137,1,182,1,178,1,150,1,94,1
98,105,1,47,1,-58,1,-76,1,82,1,-5,1,-9,1,117,1,165,1,167,1,145,1,94,1
99,104,1,53,1,-51,1,-78,1,78,1,1,1,-25,1,86,1,137,1,148,1,136,1,92,1
100,101,1,58,1,-43,1,-79,1,72,1,8,1,-44,1,45,1,101,1,123,1,122,1,89,1
101,101,1,64,1,-37,1,-82,1,69,1,14,1,-65,1,0,1,60,1,95,1,107,1,86,1
102,103,1,68,1,-35,1,-85,1,69,1,17,1,-87,1,-47,1,14,1,63,1,89,1,81,1
103,103,1,71,1,-32,1,-87,1,68,1,20,1,-108,1,-96,1,-34,1,27,1,66,1,74,1
104,97,1,67,1,-30,1,-82,1,64,1,19,1,-126,1,-142,1,-85,1,-11,1,38,1,62,1
105,83,1,58,1,-25,1,-70,1,54,1,17,1,-139,1,-186,1,-133,1,-53,1,6,1,44,1
106,65,1,46,1,-19,1,-55,1,42,1,14,1,-147,1,-219,1,-175,1,-90,1,-25,1,24,1
107,49,1,35,1,-14,1,-42,1,32,1,11,1,-150,1,-239,1,-203,1,-119,1,-52,1,6,1
108,36,1,27,1,-9,1,-31,1,23,1,9,1,-150,1,-246,1,-217,1,-135,1,-70,1,-9,1
109,28,1,18,1,-10,1,-23,1,19,1,4,1,-148,1,-243,1,-219,1,-143,1,-79,1,-20,1
110,24,1,9,1,-15,1,-16,1,20,1,-3,1,-145,1,-236,1,-216,1,-143,1,-84,1,-27,1
111,19,1,0,1,-19,1,-9,1,19,1,-9,1,-140,1,-229,1,-210,1,-141,1,-84,1,-30,1
112,15,1,-6,1,-21,1,-4,1,18,1,-13,1,-133,1,-220,1,-202,1,-137,1,-82,1,-31,1
113,12,1,-11,1,-23,1,0,1,17,1,-17,1,-123,1,-210,1,-193,1,-133,1,-81,1,-31,1
114,9,1,-14,1,-23,1,2,1,16,1,-18,1,-109,1,-197,1,-183,1,-130,1,-81,1,-32,1
115,4,1,-15,1,-19,1,5,1,11,1,-17,1,-95,1,-179,1,-170,1,-127,1,-83,1,-34,1
116,-1,1,-16,1,-15,1,8,1,7,1,-16,1,-82,1,-161,1,-157,1,-122,1,-83,1,-36,1
117,-7,1,-19,1,-12,1,13,1,2,1,-16,1,-73,1,-142,1,-142,1,-116,1,-82,1,-39,1
118,-13,1,-23,1,-10,1,18,1,-2,1,-17,1,-65,1,-123,1,-128,1,-107,1,-80,1,-42,1
119,-16,1,-28,1,-12,1,22,1,-2,1,-20,1,-62,1,-109,1,-115,1,-96,1,-77,1,-44,1
120,-16,1,-33,1,-17,1,24,1,0,1,-25,1,-59,1,-99,1,-104,1,-84,1,-72,1,-44,1
121,-15,1,-35,1,-20,1,25,1,2,1,-28,1,-56,1,-92,1,-94,1,-76,1,-66,1,-44,1
122,-14,1,-34,1,-20,1,24,1,3,1,-27,1,-50,1,-86,1,-87,1,-68,1,-60,1,-42,1
123,-14,1,-33,1,-19,1,23,1,2,1,-26,1,-42,1,-81,1,-82,1,-65,1,-56,1,-40,1
124,-15,1,-33,1,-18,1,24,1,1,1,-26,1,-33,1,-76,1,-77,1,-64,1,-54,1,-38,1
125,-16,1,-32,1,-16,1,24,1,0,1,-24,1,-23,1,-67,1,-71,1,-62,1,-52,1,-36,1
126,-16,1,-31,1,-15,1,23,1,-1,1,-23,1,-15,1,-57,1,-62,1,-59,1,-50,1,-34,1
127,-13,1,-28,1,-15,1,20,1,1,1,-22,1,-7,1,-45,1,-53,1,-52,1,-47,1,-32,1
128,-11,1,-22,1,-11,1,16,1,0,1,-17,1,-3,1,-33,1,-41,1,-43,1,-41,1,-29,1
129,-9,1,-18,1,-9,1,13,1,0,1,-14,1,-1,1,-23,1,-32,1,-33,1,-36,1,-26,1
130,-9,1,-17,1,-8,1,13,1,-1,1,-13,1,-1,1,-18,1,-25,1,-24,1,-29,1,-22,1
131,-9,1,-15,1,-6,1,12,1,-2,1,-11,1,-1,1,-16,1,-22,1,-17,1,-23,1,-19,1
132,-8,1,-14,1,-6,1,11,1,-1,1,-10,1,-1,1,-16,1,-20,1,-14,1,-19,1,-17,1
133,-8,1,-14,1,-6,1,11,1,-1,1,-10,1,2,1,-15,1,-20,1,-13,1,-16,1,-16,1
134,-9,1,-14,1,-5,1,11,1,-2,1,-10,1,5,1,-13,1,-18,1,-14,1,-15,1,-14,1
135,-9,1,-14,1,-5,1,11,1,-2,1,-10,1,8,1,-11,1,-16,1,-14,1,-15,1,-13,1
136,-8,1,-13,1,-5,1,10,1,-2,1,-9,1,10,1,-7,1,-12,1,-13,1,-15,1,-13,1
137,-8,1,-12,1,-4,1,10,1,-2,1,-8,1,11,1,-2,1,-8,1,-10,1,-14,1,-12,1
138,-9,1,-11,1,-2,1,10,1,-4,1,-7,1,11,1,1,1,-5,1,-8,1,-14,1,-12,1
139,-10,1,-11,1,-1,1,10,1,-5,1,-6,1,11,1,3,1,-4,1,-7,1,-13,1,-11,1
140,-10,1,-10,1,0,1,10,1,-5,1,-5,1,11,1,5,1,-4,1,-5,1,-12,1,-11,1
141,-10,1,-9,1,1,1,9,1,-6,1,-4,1,11,1,5,1,-3,1,-5,1,-11,1,-10,1
142,-10,1,-11,1,-1,1,10,1,-5,1,-6,1,11,1,3,1,-3,1,-5,1,-11,1,-10,1
143,-12,1,-13,1,-1,1,12,1,-6,1,-7,1,12,1,3,1,-3,1,-5,1,-11,1,-10,1
144,-13,1,-15,1,-2,1,14,1,-6,1,-9,1,13,1,4,1,-3,1,-5,1,-11,1,-11,1
145,-11,1,-14,1,-3,1,12,1,-4,1,-9,1,13,1,4,1,-2,1,-5,1,-10,1,-11,1
146,-10,1,-13,1,-3,1,11,1,-4,1,-8,1,13,1,5,1,-1,1,-4,1,-10,1,-10,1
147,-10,1,-13,1,-3,1,11,1,-4,1,-8,1,13,1,6,1,-1,1,-4,1,-10,1,-10,1
148,-9,1,-12,1,-3,1,10,1,-3,1,-8,1,13,1,7,1,0,1,-3,1,-9,1,-10,1
149,-9,1,-12,1,-3,1,10,1,-3,1,-8,1,14,1,8,1,0,1,-2,1,-7,1,-8,1
150,-9,1,-12,1,-3,1,10,1,-3,1,-8,1,14,1,9,1,1,1,-1,1,-7,1,-7,1
151,-8,1,-11,1,-3,1,9,1,-3,1,-7,1,14,1,9,1,2,1,0,1,-5,1,-7,1
152,-6,1,-10,1,-4,1,8,1,-1,1,-7,1,14,1,9,1,2,1,0,1,-4,1,-6,1
153,-5,1,-8,1,-3,1,6,1,-1,1,-6,1,15,1,10,1,2,1,1,1,-3,1,-5,1
154,-2,1,-6,1,-4,1,4,1,1,1,-5,1,16,1,12,1,5,1,2,1,-1,1,-4,1
155,0,1,-3,1,-3,1,1,1,1,1,-3,1,16,1,13,1,5,1,3,1,-1,1,-4,1
156,0,1,-3,1,-3,1,1,1,1,1,-3,1,16,1,13,1,6,1,3,1,-2,1,-5,1
157,-2,1,-4,1,-2,1,3,1,0,1,-3,1,15,1,13,1,6,1,3,1,-2,1,-5,1
158,-3,1,-7,1,-4,1,5,1,0,1,-6,1,15,1,12,1,6,1,3,1,-2,1,-5,1
159,-3,1,-9,1,-6,1,6,1,1,1,-8,1,15,1,11,1,5,1,3,1,-2,1,-5,1
160,-5,1,-10,1,-5,1,7,1,0,1,-8,1,15,1,11,1,5,1,2,1,-3,1,-6,1
161,-7,1,-12,1,-5,1,9,1,-1,1,-9,1,15,1,11,1,5,1,2,1,-3,1,-6,1
162,-8,1,-14,1,-6,1,11,1,-1,1,-10,1,14,1,11,1,5,1,2,1,-3,1,-6,1
163,-8,1,-15,1,-7,1,11,1,-1,1,-11,1,13,1,11,1,5,1,2,1,-2,1,-6,1
164,-9,1,-15,1,-6,1,12,1,-2,1,-11,1,13,1,12,1,6,1,2,1,-1,1,-5,1
165,-9,1,-14,1,-5,1,11,1,-2,1,-10,1,14,1,13,1,8,1,3,1,-1,1,-5,1
166,-8,1,-14,1,-6,1,11,1,-1,1,-10,1,14,1,13,1,8,1,4,1,-1,1,-4,1
167,-7,1,-12,1,-5,1,9,1,-1,1,-9,1,14,1,13,1,9,1,4,1,-1,1,-4,1
168,-6,1,-11,1,-5,1,8,1,-1,1,-8,1,15,1,14,1,9,1,4,1,0,1,-3,1
169,-3,1,-10,1,-7,1,6,1,2,1,-9,1,14,1,14,1,9,1,5,1,1,1,-2,1
170,-3,1,-9,1,-6,1,6,1,1,1,-8,1,15,1,15,1,9,1,5,1,1,1,-1,1
171,-2,1,-8,1,-6,1,5,1,2,1,-7,1,16,1,15,1,10,1,5,1,1,1,-1,1
172,-2,1,-8,1,-6,1,5,1,2,1,-7,1,16,1,16,1,10,1,5,1,1,1,-1,1
173,-3,1,-9,1,-6,1,6,1,1,1,-8,1,15,1,16,1,11,1,5,1,1,1,-2,1
174,-6,1,-11,1,-5,1,8,1,-1,1,-8,1,15,1,16,1,11,1,5,1,1,1,-2,1
175,-8,1,-12,1,-4,1,10,1,-2,1,-8,1,16,1,16,1,11,1,5,1,1,1,-2,1
176,-8,1,-12,1,-4,1,10,1,-2,1,-8,1,16,1,17,1,11,1,6,1,1,1,-3,1
177,-6,1,-12,1,-6,1,9,1,0,1,-9,1,16,1,18,1,11,1,6,1,1,1,-3,1
178,-4,1,-11,1,-7,1,7,1,1,1,-9,1,16,1,18,1,12,1,7,1,1,1,-2,1
179,-2,1,-10,1,-8,1,6,1,3,1,-9,1,17,1,18,1,12,1,7,1,2,1,-2,1
180,-2,1,-10,1,-8,1,6,1,3,1,-9,1,17,1,20,1,12,1,7,1,2,1,-1,1
181,-2,1,-9,1,-7,1,5,1,2,1,-8,1,17,1,20,1,13,1,8,1,3,1,-1,1
182,-4,1,-9,1,-5,1,6,1,0,1,-7,1,16,1,20,1,13,1,8,1,4,1,-1,1
183,-7,1,-11,1,-4,1,9,1,-2,1,-8,1,16,1,19,1,13,1,8,1,4,1,-2,1
184,-8,1,-9,1,-1,1,8,1,-4,1,-5,1,15,1,19,1,13,1,7,1,4,1,-2,1
185,-7,1,-9,1,-2,1,8,1,-3,1,-6,1,15,1,20,1,13,1,9,1,4,1,-2,1
186,-7,1,-11,1,-4,1,9,1,-2,1,-8,1,14,1,21,1,14,1,9,1,3,1,-3,1
187,-5,1,-9,1,-4,1,7,1,-1,1,-7,1,14,1,21,1,14,1,9,1,3,1,-2,1
188,-4,1,-8,1,-4,1,6,1,0,1,-6,1,13,1,24,1,16,1,11,1,5,1,0,1
189,-3,1,-8,1,-5,1,5,1,1,1,-7,1,13,1,24,1,17,1,11,1,6,1,0,1
190,-2,1,-8,1,-6,1,5,1,2,1,-7,1,13,1,24,1,18,1,12,1,6,1,1,1
191,0,1,-6,1,-6,1,3,1,3,1,-6,1,14,1,25,1,19,1,12,1,6,1,1,1
192,4,1,0,1,-4,1,-2,1,4,1,-2,1,15,1,25,1,20,1,13,1,8,1,4,1
193,10,1,5,1,-5,1,-7,1,8,1,0,1,16,1,27,1,22,1,15,1,10,1,5,1
194,15,1,10,1,-5,1,-12,1,10,1,3,1,16,1,27,1,24,1,17,1,12,1,6,1
195,16,1,10,1,-6,1,-13,1,11,1,2,1,17,1,27,1,25,1,17,1,12,1,7,1
196,14,1,7,1,-7,1,-10,1,11,1,0,1,17,1,28,1,25,1,17,1,13,1,7,1
197,11,1,3,1,-8,1,-7,1,10,1,-2,1,16,1,28,1,25,1,17,1,13,1,8,1
198,9,1,1,1,-8,1,-5,1,9,1,-3,1,15,1,29,1,26,1,17,1,13,1,8,1
199,8,1,0,1,-8,1,-4,1,8,1,-4,1,14,1,30,1,26,1,17,1,14,1,8,1
200,9,1,0,1,-9,1,-4,1,9,1,-4,1,13,1,30,1,27,1,18,1,14,1,8,1
201,9,1,0,1,-9,1,-4,1,9,1,-4,1,12,1,32,1,27,1,18,1,14,1,8,1
202,10,1,0,1,-10,1,-5,1,10,1,-5,1,12,1,33,1,27,1,19,1,15,1,9,1
203,13,1,1,1,-12,1,-7,1,13,1,-5,1,12,1,35,1,29,1,19,1,15,1,10,1
204,16,1,5,1,-11,1,-10,1,14,1,-3,1,13,1,35,1,29,1,22,1,16,1,10,1
205,18,1,8,1,-10,1,-13,1,14,1,-1,1,13,1,36,1,31,1,22,1,17,1,12,1
206,17,1,8,1,-9,1,-12,1,13,1,0,1,13,1,37,1,31,1,23,1,17,1,12,1
207,14,1,5,1,-9,1,-9,1,12,1,-2,1,13,1,37,1,31,1,23,1,17,1,12,1
208,12,1,4,1,-8,1,-8,1,10,1,-2,1,12,1,37,1,31,1,23,1,17,1,12,1
209,11,1,4,1,-7,1,-7,1,9,1,-1,1,12,1,37,1,31,1,23,1,18,1,13,1
210,12,1,6,1,-6,1,-9,1,9,1,0,1,11,1,38,1,32,1,23,1,20,1,13,1
211,12,1,3,1,-9,1,-7,1,11,1,-3,1,9,1,38,1,32,1,23,1,18,1,13,1
212,9,1,1,1,-8,1,-5,1,9,1,-3,1,7,1,37,1,33,1,23,1,18,1,12,1
213,7,1,-1,1,-8,1,-3,1,7,1,-4,1,7,1,37,1,33,1,22,1,18,1,12,1
214,8,1,0,1,-8,1,-4,1,8,1,-4,1,6,1,38,1,33,1,22,1,18,1,12,1
215,10,1,1,1,-9,1,-5,1,10,1,-4,1,6,1,38,1,33,1,22,1,19,1,12,1
216,13,1,2,1,-11,1,-7,1,12,1,-4,1,6,1,39,1,34,1,23,1,20,1,14,1
217,14,1,3,1,-11,1,-8,1,13,1,-4,1,7,1,39,1,35,1,23,1,21,1,16,1
218,14,1,4,1,-10,1,-9,1,12,1,-3,1,7,1,39,1,35,1,23,1,21,1,16,1
219,14,1,5,1,-9,1,-9,1,12,1,-2,1,7,1,39,1,35,1,23,1,21,1,17,1
220,15,1,7,1,-8,1,-11,1,12,1,0,1,8,1,39,1,35,1,23,1,21,1,18,1
221,17,1,10,1,-7,1,-13,1,12,1,2,1,9,1,39,1,35,1,23,1,22,1,18,1
222,17,1,10,1,-7,1,-13,1,12,1,2,1,8,1,39,1,35,1,23,1,22,1,19,1
223,17,1,11,1,-6,1,-14,1,12,1,3,1,8,1,39,1,36,1,24,1,22,1,19,1
224,18,1,12,1,-6,1,-15,1,12,1,3,1,8,1,40,1,36,1,25,1,23,1,19,1
225,19,1,15,1,-4,1,-17,1,12,1,6,1,8,1,40,1,36,1,25,1,24,1,20,1
226,22,1,17,1,-5,1,-19,1,14,1,6,1,8,1,40,1,36,1,26,1,25,1,21,1
227,24,1,17,1,-7,1,-20,1,16,1,5,1,8,1,39,1,35,1,25,1,25,1,22,1
228,24,1,17,1,-7,1,-20,1,16,1,5,1,9,1,39,1,34,1,25,1,25,1,22,1
229,25,1,17,1,-8,1,-21,1,17,1,5,1,9,1,39,1,34,1,25,1,25,1,22,1
230,26,1,17,1,-9,1,-21,1,18,1,4,1,8,1,38,1,33,1,25,1,24,1,22,1
231,27,1,17,1,-10,1,-22,1,19,1,4,1,6,1,38,1,33,1,25,1,24,1,22,1
232,27,1,17,1,-10,1,-22,1,19,1,4,1,6,1,38,1,33,1,25,1,24,1,22,1
233,27,1,19,1,-8,1,-23,1,18,1,6,1,4,1,38,1,33,1,24,1,24,1,22,1
234,27,1,18,1,-9,1,-22,1,18,1,5,1,3,1,37,1,31,1,22,1,24,1,21,1
235,25,1,17,1,-8,1,-21,1,17,1,5,1,3,1,37,1,30,1,21,1,24,1,21,1
236,24,1,17,1,-7,1,-20,1,16,1,5,1,3,1,36,1,29,1,21,1,23,1,20,1
237,24,1,17,1,-7,1,-20,1,16,1,5,1,3,1,35,1,28,1,20,1,23,1,20,1
238,24,1,19,1,-5,1,-21,1,15,1,7,1,4,1,35,1,28,1,19,1,22,1,18,1
239,24,1,21,1,-3,1,-22,1,14,1,9,1,4,1,33,1,27,1,18,1,22,1,18,1
240,24,1,21,1,-3,1,-22,1,14,1,9,1,4,1,32,1,26,1,18,1,21,1,18,1
241,24,1,21,1,-3,1,-22,1,14,1,9,1,5,1,32,1,26,1,18,1,21,1,19,1
242,24,1,21,1,-3,1,-22,1,14,1,9,1,7,1,32,1,26,1,18,1,21,1,19,1
243,21,1,18,1,-3,1,-19,1,12,1,8,1,7,1,32,1,24,1,17,1,20,1,19,1
244,18,1,16,1,-2,1,-17,1,10,1,7,1,9,1,31,1,24,1,17,1,19,1,17,1
245,15,1,15,1,0,1,-15,1,8,1,8,1,9,1,30,1,23,1,17,1,19,1,16,1
246,15,1,14,1,-1,1,-14,1,8,1,7,1,10,1,29,1,22,1,16,1,18,1,16,1
247,15,1,13,1,-2,1,-14,1,9,1,6,1,9,1,28,1,21,1,16,1,18,1,16,1
248,13,1,11,1,-2,1,-12,1,8,1,5,1,9,1,26,1,20,1,15,1,18,1,16,1
249,12,1,9,1,-3,1,-10,1,8,1,3,1,8,1,25,1,19,1,15,1,18,1,16,1
250,12,1,8,1,-4,1,-10,1,8,1,2,1,8,1,24,1,19,1,13,1,16,1,16,1
251,12,1,8,1,-4,1,-10,1,8,1,2,1,8,1,24,1,18,1,13,1,16,1,15,1
252,12,1,10,1,-2,1,-11,1,7,1,4,1,7,1,23,1,18,1,13,1,16,1,14,1
253,11,1,10,1,-1,1,-10,1,6,1,5,1,7,1,22,1,19,1,13,1,16,1,14,1
254,10,1,9,1,-1,1,-9,1,6,1,4,1,8,1,20,1,17,1,12,1,15,1,13,1
255,10,1,8,1,-2,1,-9,1,6,1,3,1,9,1,19,1,17,1,11,1,15,1,12,1
256,10,1,8,1,-2,1,-9,1,6,1,3,1,9,1,18,1,16,1,11,1,15,1,12,1
257,9,1,7,1,-2,1,-8,1,6,1,3,1,10,1,17,1,16,1,11,1,13,1,11,1
258,5,1,5,1,0,1,-5,1,3,1,3,1,9,1,16,1,15,1,11,1,12,1,9,1
259,4,1,4,1,0,1,-4,1,2,1,2,1,8,1,16,1,15,1,11,1,12,1,8,1
260,2,1,3,1,1,1,-2,1,1,1,2,1,8,1,16,1,13,1,10,1,10,1,7,1
261,2,1,2,1,0,1,-2,1,1,1,1,1,8,1,14,1,11,1,8,1,8,1,6,1
262,1,1,1,1,0,1,-1,1,1,1,1,1,7,1,12,1,9,1,7,1,8,1,4,1
263,0,1,0,1,0,1,0,1,0,1,0,1,7,1,11,1,8,1,6,1,7,1,4,1
264,-1,1,-2,1,-1,1,1,1,0,1,-2,1,7,1,11,1,8,1,6,1,6,1,3,1
265,-3,1,-3,1,0,1,3,1,-2,1,-2,1,7,1,11,1,8,1,5,1,6,1,4,1
266,-3,1,-3,1,0,1,3,1,-2,1,-2,1,7,1,10,1,8,1,5,1,5,1,4,1
267,-4,1,-4,1,0,1,4,1,-2,1,-2,1,6,1,10,1,6,1,4,1,4,1,4,1
268,-6,1,-6,1,0,1,6,1,-3,1,-3,1,6,1,9,1,6,1,4,1,4,1,2,1
269,-7,1,-7,1,0,1,7,1,-4,1,-4,1,6,1,9,1,4,1,4,1,3,1,1,1
270,-7,1,-8,1,-1,1,7,1,-3,1,-5,1,7,1,8,1,4,1,4,1,3,1,1,1
271,-6,1,-8,1,-2,1,7,1,-2,1,-5,1,8,1,8,1,4,1,4,1,3,1,1,1
272,-6,1,-8,1,-2,1,7,1,-2,1,-5,1,8,1,7,1,5,1,4,1,3,1,2,1
273,-7,1,-9,1,-2,1,8,1,-3,1,-6,1,8,1,6,1,5,1,4,1,4,1,2,1
274,-6,1,-7,1,-1,1,6,1,-3,1,-4,1,8,1,6,1,6,1,4,1,4,1,2,1
275,-4,1,-4,1,0,1,4,1,-2,1,-2,1,8,1,6,1,6,1,4,1,4,1,2,1
276,-3,1,-2,1,1,1,2,1,-2,1,-1,1,9,1,5,1,5,1,3,1,4,1,2,1
277,-2,1,-1,1,1,1,1,1,-2,1,0,1,10,1,4,1,4,1,3,1,2,1,1,1
278,0,1,0,1,0,1,0,1,0,1,0,1,11,1,4,1,3,1,3,1,2,1,1,1
279,2,1,2,1,0,1,-2,1,1,1,1,1,12,1,3,1,2,1,2,1,2,1,0,1
280,2,1,1,1,-1,1,-1,1,2,1,0,1,11,1,1,1,1,1,1,1,0,1,0,1
281,0,1,-1,1,-1,1,0,1,0,1,-1,1,9,1,0,1,-1,1,0,1,-1,1,-2,1
282,-1,1,-1,1,0,1,1,1,-1,1,-1,1,9,1,-1,1,-2,1,-1,1,-2,1,-3,1
283,-1,1,2,1,3,1,0,1,-2,1,2,1,9,1,-1,1,-1,1,-1,1,-1,1,-4,1
284,-1,1,2,1,3,1,0,1,-2,1,2,1,9,1,0,1,-1,1,-1,1,-1,1,-3,1
285,-2,1,0,1,2,1,1,1,-2,1,1,1,8,1,0,1,0,1,0,1,0,1,-3,1
286,-3,1,-2,1,1,1,2,1,-2,1,-1,1,8,1,0,1,0,1,0,1,0,1,-4,1
287,-3,1,-3,1,0,1,3,1,-2,1,-2,1,7,1,0,1,0,1,0,1,0,1,-4,1
288,-4,1,-3,1,1,1,3,1,-3,1,-1,1,7,1,1,1,0,1,0,1,0,1,-2,1
289,-5,1,-3,1,2,1,4,1,-4,1,-1,1,8,1,3,1,1,1,1,1,1,1,-2,1
290,-5,1,-2,1,3,1,3,1,-4,1,0,1,9,1,4,1,2,1,1,1,1,1,-1,1
291,-3,1,-1,1,2,1,2,1,-3,1,0,1,10,1,4,1,2,1,2,1,1,1,-1,1
292,-3,1,0,1,3,1,1,1,-3,1,1,1,10,1,5,1,2,1,2,1,1,1,-1,1
293,-3,1,-1,1,2,1,2,1,-3,1,0,1,10,1,3,1,2,1,1,1,1,1,-1,1
294,-6,1,-2,1,4,1,4,1,-5,1,1,1,10,1,3,1,2,1,0,1,0,1,-1,1
295,-11,1,-4,1,7,1,7,1,-9,1,1,1,10,1,1,1,0,1,-1,1,-2,1,-3,1
296,-13,1,-7,1,6,1,10,1,-10,1,-1,1,9,1,1,1,0,1,-2,1,-3,1,-5,1
297,-13,1,-8,1,5,1,10,1,-9,1,-2,1,9,1,1,1,0,1,-3,1,-4,1,-5,1
298,-12,1,-8,1,4,1,10,1,-8,1,-2,1,8,1,1,1,0,1,-3,1,-4,1,-5,1
299,-9,1,-8,1,1,1,8,1,-5,1,-4,1,8,1,1,1,0,1,-2,1,-3,1,-5,1
300,-8,1,-7,1,1,1,7,1,-5,1,-3,1,7,1,1,1,0,1,-2,1,-3,1,-5,1
301,-7,1,-6,1,1,1,6,1,-4,1,-3,1,7,1,2,1,1,1,-1,1,-2,1,-5,1
302,-6,1,-6,1,0,1,6,1,-3,1,-3,1,6,1,3,1,3,1,0,1,0,1,-4,1
303,-4,1,-4,1,0,1,4,1,-2,1,-2,1,6,1,4,1,4,1,0,1,0,1,-2,1
304,-3,1,-2,1,1,1,2,1,-2,1,-1,1,7,1,5,1,5,1,1,1,2,1,-2,1
305,0,1,2,1,2,1,-1,1,-1,1,2,1,7,1,6,1,6,1,2,1,3,1,-1,1
306,2,1,4,1,2,1,-3,1,0,1,3,1,7,1,7,1,6,1,4,1,3,1,-1,1
307,1,1,4,1,3,1,-2,1,-1,1,4,1,8,1,8,1,7,1,4,1,4,1,-1,1
308,0,1,2,1,2,1,-1,1,-1,1,2,1,8,1,8,1,7,1,4,1,4,1,-1,1
309,-3,1,0,1,3,1,1,1,-3,1,1,1,7,1,6,1,6,1,3,1,3,1,-1,1
310,-7,1,-4,1,3,1,5,1,-5,1,-1,1,5,1,5,1,5,1,1,1,2,1,-2,1
311,-10,1,-5,1,5,1,7,1,-8,1,0,1,5,1,4,1,5,1,1,1,2,1,-3,1
312,-11,1,-5,1,6,1,8,1,-9,1,0,1,5,1,4,1,5,1,1,1,1,1,-3,1
313,-14,1,-5,1,9,1,9,1,-12,1,2,1,5,1,3,1,4,1,1,1,1,1,-4,1
314,-13,1,-7,1,6,1,10,1,-10,1,-1,1,5,1,3,1,3,1,1,1,0,1,-4,1
315,-12,1,-8,1,4,1,10,1,-8,1,-2,1,4,1,3,1,4,1,1,1,0,1,-5,1
316,-11,1,-8,1,3,1,9,1,-7,1,-3,1,4,1,5,1,4,1,1,1,-1,1,-5,1
317,-8,1,-7,1,1,1,7,1,-5,1,-3,1,4,1,6,1,4,1,1,1,-1,1,-5,1
318,-5,1,-5,1,0,1,5,1,-3,1,-3,1,4,1,6,1,4,1,1,1,-1,1,-5,1
319,-4,1,-4,1,0,1,4,1,-2,1,-2,1,4,1,6,1,5,1,1,1,-1,1,-5,1
320,-4,1,-5,1,-1,1,4,1,-2,1,-3,1,4,1,6,1,4,1,1,1,-1,1,-4,1
321,-3,1,-5,1,-2,1,4,1,-1,1,-4,1,5,1,5,1,3,1,1,1,-1,1,-5,1
322,-2,1,-5,1,-3,1,3,1,0,1,-4,1,5,1,5,1,3,1,1,1,-1,1,-5,1
323,-2,1,-6,1,-4,1,4,1,1,1,-5,1,6,1,4,1,3,1,0,1,-1,1,-5,1
324,-5,1,-7,1,-2,1,6,1,-2,1,-5,1,6,1,4,1,3,1,-1,1,-1,1,-5,1
325,-7,1,-8,1,-1,1,7,1,-3,1,-5,1,7,1,4,1,3,1,0,1,-1,1,-4,1
326,-8,1,-7,1,1,1,7,1,-5,1,-3,1,7,1,5,1,3,1,0,1,-1,1,-3,1
327,-6,1,-3,1,3,1,4,1,-5,1,0,1,9,1,5,1,3,1,0,1,0,1,-3,1
328,-4,1,-1,1,3,1,2,1,-4,1,1,1,8,1,4,1,3,1,0,1,0,1,-3,1
329,-2,1,-2,1,0,1,2,1,-1,1,-1,1,8,1,4,1,3,1,1,1,0,1,-3,1
330,-1,1,-2,1,-1,1,1,1,0,1,-2,1,8,1,4,1,3,1,1,1,0,1,-4,1
331,-1,1,-3,1,-2,1,2,1,0,1,-3,1,8,1,5,1,4,1,2,1,1,1,-3,1
332,-1,1,-3,1,-2,1,2,1,0,1,-3,1,9,1,5,1,4,1,2,1,2,1,-3,1
333,0,1,-2,1,-2,1,1,1,1,1,-2,1,9,1,6,1,5,1,3,1,3,1,-2,1
334,0,1,-2,1,-2,1,1,1,1,1,-2,1,8,1,6,1,4,1,2,1,3,1,-2,1
335,-2,1,-4,1,-2,1,3,1,0,1,-3,1,6,1,3,1,2,1,1,1,2,1,-3,1
336,-5,1,-8,1,-3,1,6,1,-1,1,-6,1,5,1,2,1,3,1,0,1,0,1,-4,1
337,-8,1,-11,1,-3,1,9,1,-3,1,-7,1,4,1,1,1,1,1,-2,1,0,1,-5,1
338,-8,1,-12,1,-4,1,10,1,-2,1,-8,1,3,1,0,1,0,1,-3,1,-2,1,-7,1
339,-10,1,-14,1,-4,1,12,1,-3,1,-9,1,1,1,-1,1,-1,1,-4,1,-3,1,-8,1
340,-13,1,-14,1,-1,1,13,1,-6,1,-8,1,1,1,-2,1,-2,1,-4,1,-3,1,-8,1
341,-12,1,-13,1,-1,1,12,1,-6,1,-7,1,1,1,-2,1,-2,1,-5,1,-4,1,-9,1
342,-10,1,-11,1,-1,1,10,1,-5,1,-6,1,2,1,-1,1,-1,1,-4,1,-3,1,-8,1
343,-7,1,-7,1,0,1,7,1,-4,1,-4,1,2,1,0,1,-1,1,-3,1,-2,1,-7,1
344,-4,1,-6,1,-2,1,5,1,-1,1,-4,1,3,1,0,1,-1,1,-3,1,-2,1,-7,1
345,-4,1,-7,1,-3,1,5,1,-1,1,-5,1,2,1,0,1,-1,1,-3,1,-2,1,-7,1
346,-6,1,-7,1,-1,1,6,1,-3,1,-4,1,3,1,0,1,-1,1,-3,1,-2,1,-7,1
347,-6,1,-6,1,0,1,6,1,-3,1,-3,1,3,1,0,1,0,1,-3,1,-2,1,-7,1
348,-2,1,-4,1,-2,1,3,1,0,1,-3,1,5,1,1,1,1,1,-2,1,-1,1,-6,1
349,-1,1,-3,1,-2,1,2,1,0,1,-3,1,6,1,2,1,1,1,-1,1,-1,1,-6,1
350,-1,1,-3,1,-2,1,2,1,0,1,-3,1,5,1,1,1,0,1,-1,1,-3,1,-7,1
351,-4,1,-2,1,2,1,3,1,-3,1,0,1,5,1,0,1,-2,1,-3,1,-3,1,-8,1
352,-6,1,-3,1,3,1,4,1,-5,1,0,1,4,1,-1,1,-2,1,-3,1,-4,1,-8,1
353,-6,1,-5,1,1,1,5,1,-4,1,-2,1,3,1,-1,1,-3,1,-4,1,-4,1,-8,1
354,-6,1,-5,1,1,1,5,1,-4,1,-2,1,3,1,-2,1,-3,1,-4,1,-4,1,-8,1
355,-8,1,-6,1,2,1,7,1,-5,1,-2,1,2,1,-2,1,-4,1,-5,1,-4,1,-9,1
356,-9,1,-8,1,1,1,8,1,-5,1,-4,1,0,1,-3,1,-5,1,-6,1,-5,1,-10,1
357,-10,1,-10,1,0,1,10,1,-5,1,-5,1,0,1,-3,1,-4,1,-6,1,-5,1,-9,1
358,-9,1,-11,1,-2,1,10,1,-4,1,-7,1,0,1,-3,1,-4,1,-6,1,-5,1,-9,1
359,-9,1,-11,1,-2,1,10,1,-4,1,-7,1,1,1,-3,1,-3,1,-6,1,-4,1,-8,1
360,-10,1,-12,1,-2,1,11,1,-4,1,-7,1,1,1,-3,1,-5,1,-6,1,-4,1,-8,1
361,-11,1,-13,1,-2,1,12,1,-5,1,-8,1,1,1,-3,1,-4,1,-6,1,-5,1,-8,1
362,-8,1,-11,1,-3,1,9,1,-3,1,-7,1,1,1,-2,1,-3,1,-5,1,-4,1,-7,1
363,-6,1,-9,1,-3,1,7,1,-2,1,-6,1,2,1,-2,1,-3,1,-5,1,-4,1,-6,1
364,-6,1,-8,1,-2,1,7,1,-2,1,-5,1,4,1,-3,1,-3,1,-5,1,-4,1,-6,1
365,-7,1,-10,1,-3,1,8,1,-2,1,-7,1,4,1,-5,1,-5,1,-5,1,-4,1,-7,1
366,-8,1,-10,1,-2,1,9,1,-3,1,-6,1,4,1,-5,1,-5,1,-6,1,-5,1,-7,1
367,-6,1,-7,1,-1,1,6,1,-3,1,-4,1,5,1,-5,1,-6,1,-5,1,-5,1,-6,1
368,-2,1,-4,1,-2,1,3,1,0,1,-3,1,6,1,-4,1,-5,1,-4,1,-4,1,-6,1
369,-1,1,-4,1,-3,1,2,1,1,1,-4,1,7,1,-4,1,-5,1,-4,1,-4,1,-5,1
370,-4,1,-6,1,-2,1,5,1,-1,1,-4,1,7,1,-4,1,-4,1,-4,1,-3,1,-6,1
371,-8,1,-9,1,-1,1,8,1,-4,1,-5,1,7,1,-4,1,-4,1,-3,1,-3,1,-7,1
372,-13,1,-13,1,0,1,13,1,-7,1,-7,1,7,1,-5,1,-4,1,-4,1,-3,1,-7,1
373,-18,1,-15,1,3,1,16,1,-11,1,-6,1,6,1,-4,1,-4,1,-4,1,-3,1,-6,1
374,-18,1,-15,1,3,1,16,1,-11,1,-6,1,4,1,-4,1,-4,1,-4,1,-3,1,-6,1
375,-16,1,-11,1,5,1,13,1,-11,1,-3,1,4,1,-4,1,-3,1,-3,1,-3,1,-6,1
376,-11,1,-8,1,3,1,9,1,-7,1,-3,1,4,1,-2,1,-2,1,-2,1,-1,1,-4,1
377,-8,1,-4,1,4,1,6,1,-6,1,0,1,5,1,-1,1,-1,1,-1,1,-1,1,-4,1
378,-5,1,-1,1,4,1,3,1,-5,1,1,1,6,1,0,1,1,1,-1,1,0,1,-3,1
379,-1,1,0,1,1,1,0,1,-1,1,0,1,7,1,1,1,2,1,0,1,1,1,-2,1
380,1,1,1,1,0,1,-1,1,1,1,1,1,7,1,2,1,3,1,1,1,1,1,-2,1
381,3,1,4,1,1,1,-3,1,1,1,3,1,9,1,4,1,5,1,3,1,3,1,0,1
382,3,1,5,1,2,1,-4,1,1,1,4,1,9,1,5,1,6,1,3,1,5,1,1,1
383,2,1,3,1,1,1,-2,1,1,1,2,1,10,1,6,1,7,1,3,1,5,1,2,1
384,1,1,2,1,1,1,-1,1,0,1,2,1,10,1,6,1,7,1,3,1,5,1,2,1
385,1,1,1,1,0,1,-1,1,1,1,1,1,10,1,6,1,7,1,4,1,6,1,2,1
386,1,1,0,1,-1,1,0,1,1,1,0,1,10,1,7,1,8,1,5,1,6,1,2,1
387,0,1,0,1,0,1,0,1,0,1,0,1,8,1,8,1,8,1,5,1,6,1,2,1
388,2,1,1,1,-1,1,-1,1,2,1,0,1,8,1,8,1,9,1,5,1,6,1,2,1
389,5,1,2,1,-3,1,-3,1,4,1,0,1,7,1,10,1,10,1,6,1,6,1,2,1
390,7,1,2,1,-5,1,-4,1,6,1,-1,1,5,1,10,1,11,1,6,1,7,1,2,1
391,6,1,0,1,-6,1,-3,1,6,1,-3,1,4,1,10,1,11,1,6,1,7,1,3,1
392,6,1,0,1,-6,1,-3,1,6,1,-3,1,3,1,10,1,10,1,6,1,8,1,3,1
393,7,1,0,1,-7,1,-3,1,7,1,-3,1,2,1,10,1,10,1,6,1,8,1,3,1
394,12,1,3,1,-9,1,-7,1,11,1,-3,1,2,1,10,1,11,1,8,1,8,1,4,1
395,15,1,4,1,-11,1,-9,1,13,1,-3,1,1,1,11,1,12,1,9,1,9,1,5,1
396,16,1,4,1,-12,1,-10,1,14,1,-4,1,1,1,12,1,12,1,10,1,11,1,6,1
397,16,1,2,1,-14,1,-9,1,15,1,-6,1,1,1,12,1,13,1,10,1,11,1,6,1
398,13,1,0,1,-13,1,-6,1,13,1,-6,1,0,1,10,1,12,1,9,1,10,1,6,1
399,8,1,-1,1,-9,1,-3,1,8,1,-5,1,-2,1,8,1,10,1,6,1,8,1,4,1
400,4,1,-3,1,-7,1,0,1,5,1,-5,1,-3,1,6,1,8,1,5,1,6,1,1,1
401,3,1,-5,1,-8,1,1,1,5,1,-6,1,-5,1,4,1,6,1,3,1,6,1,0,1
402,3,1,-5,1,-8,1,1,1,5,1,-6,1,-6,1,3,1,4,1,3,1,6,1,0,1
403,3,1,-4,1,-7,1,0,1,5,1,-5,1,-6,1,3,1,4,1,2,1,5,1,0,1
404,5,1,-3,1,-8,1,-1,1,6,1,-5,1,-5,1,2,1,2,1,2,1,4,1,0,1
405,7,1,-1,1,-8,1,-3,1,7,1,-4,1,-5,1,2,1,1,1,1,1,2,1,-1,1
406,8,1,-2,1,-10,1,-3,1,9,1,-6,1,-6,1,0,1,0,1,0,1,2,1,-3,1
407,6,1,-4,1,-10,1,-1,1,8,1,-7,1,-6,1,-3,1,-2,1,-2,1,0,1,-3,1
408,6,1,-6,1,-12,1,0,1,9,1,-9,1,-5,1,-4,1,-3,1,-4,1,-2,1,-5,1
409,5,1,-8,1,-13,1,1,1,9,1,-10,1,-5,1,-4,1,-3,1,-5,1,-3,1,-6,1
410,3,1,-10,1,-13,1,3,1,8,1,-11,1,-5,1,-6,1,-5,1,-7,1,-4,1,-7,1
411,1,1,-11,1,-12,1,5,1,6,1,-11,1,-5,1,-7,1,-8,1,-9,1,-7,1,-10,1
412,-2,1,-16,1,-14,1,9,1,6,1,-15,1,-5,1,-8,1,-9,1,-11,1,-8,1,-11,1
413,-7,1,-21,1,-14,1,14,1,3,1,-18,1,-7,1,-9,1,-10,1,-12,1,-10,1,-13,1
414,-10,1,-25,1,-15,1,17,1,2,1,-20,1,-8,1,-9,1,-11,1,-13,1,-10,1,-13,1
415,-12,1,-27,1,-15,1,19,1,1,1,-21,1,-8,1,-9,1,-11,1,-13,1,-10,1,-13,1
416,-12,1,-25,1,-13,1,18,1,0,1,-19,1,-7,1,-10,1,-11,1,-13,1,-10,1,-13,1
417,-13,1,-23,1,-10,1,18,1,-2,1,-17,1,-7,1,-11,1,-12,1,-13,1,-11,1,-13,1
418,-13,1,-21,1,-8,1,17,1,-3,1,-15,1,-6,1,-11,1,-11,1,-13,1,-11,1,-13,1
419,-13,1,-20,1,-7,1,16,1,-3,1,-14,1,-5,1,-11,1,-11,1,-12,1,-10,1,-13,1
420,-12,1,-19,1,-7,1,15,1,-3,1,-13,1,-4,1,-11,1,-11,1,-12,1,-10,1,-13,1
421,-12,1,-17,1,-5,1,14,1,-4,1,-11,1,-4,1,-11,1,-10,1,-12,1,-10,1,-13,1
422,-12,1,-17,1,-5,1,14,1,-4,1,-11,1,-3,1,-12,1,-11,1,-13,1,-10,1,-13,1
423,-13,1,-20,1,-7,1,16,1,-3,1,-14,1,-2,1,-12,1,-12,1,-13,1,-11,1,-13,1
424,-13,1,-20,1,-7,1,16,1,-3,1,-14,1,-2,1,-14,1,-13,1,-14,1,-13,1,-15,1
425,-13,1,-21,1,-8,1,17,1,-3,1,-15,1,-2,1,-14,1,-15,1,-15,1,-13,1,-15,1
426,-13,1,-21,1,-8,1,17,1,-3,1,-15,1,-3,1,-13,1,-15,1,-16,1,-14,1,-15,1
427,-13,1,-22,1,-9,1,17,1,-2,1,-16,1,-3,1,-14,1,-16,1,-17,1,-15,1,-16,1
428,-14,1,-23,1,-9,1,18,1,-3,1,-16,1,-4,1,-14,1,-17,1,-17,1,-16,1,-17,1
429,-13,1,-22,1,-9,1,17,1,-2,1,-16,1,-4,1,-14,1,-17,1,-17,1,-15,1,-17,1
430,-12,1,-19,1,-7,1,15,1,-3,1,-13,1,-3,1,-14,1,-16,1,-17,1,-14,1,-18,1
431,-9,1,-15,1,-6,1,12,1,-2,1,-11,1,-3,1,-13,1,-14,1,-16,1,-13,1,-16,1
432,-7,1,-11,1,-4,1,9,1,-2,1,-8,1,-2,1,-13,1,-14,1,-15,1,-12,1,-15,1
433,-7,1,-11,1,-4,1,9,1,-2,1,-8,1,-1,1,-13,1,-14,1,-15,1,-12,1,-15,1
434,-10,1,-15,1,-5,1,12,1,-3,1,-10,1,-1,1,-12,1,-14,1,-15,1,-12,1,-15,1
435,-12,1,-18,1,-6,1,15,1,-3,1,-12,1,0,1,-12,1,-13,1,-15,1,-12,1,-15,1
436,-12,1,-19,1,-7,1,15,1,-3,1,-13,1,0,1,-11,1,-13,1,-15,1,-12,1,-15,1
437,-12,1,-19,1,-7,1,15,1,-3,1,-13,1,0,1,-11,1,-13,1,-15,1,-12,1,-15,1
438,-13,1,-20,1,-7,1,16,1,-3,1,-14,1,-1,1,-12,1,-13,1,-15,1,-13,1,-15,1
439,-14,1,-21,1,-7,1,17,1,-4,1,-14,1,-3,1,-12,1,-15,1,-15,1,-14,1,-16,1
440,-14,1,-21,1,-7,1,17,1,-4,1,-14,1,-4,1,-12,1,-15,1,-15,1,-15,1,-15,1
441,-14,1,-21,1,-7,1,17,1,-4,1,-14,1,-3,1,-12,1,-13,1,-15,1,-15,1,-15,1
442,-13,1,-20,1,-7,1,16,1,-3,1,-14,1,-3,1,-13,1,-14,1,-15,1,-15,1,-15,1
443,-14,1,-21,1,-7,1,17,1,-4,1,-14,1,-3,1,-14,1,-15,1,-15,1,-16,1,-16,1
444,-16,1,-21,1,-5,1,18,1,-6,1,-13,1,-5,1,-15,1,-15,1,-17,1,-16,1,-17,1
445,-18,1,-23,1,-5,1,20,1,-7,1,-14,1,-5,1,-15,1,-16,1,-17,1,-17,1,-18,1
446,-19,1,-24,1,-5,1,21,1,-7,1,-15,1,-6,1,-15,1,-16,1,-18,1,-17,1,-20,1
447,-22,1,-26,1,-4,1,24,1,-9,1,-15,1,-6,1,-16,1,-18,1,-19,1,-18,1,-22,1
448,-24,1,-29,1,-5,1,26,1,-10,1,-17,1,-5,1,-16,1,-17,1,-20,1,-19,1,-23,1
449,-28,1,-32,1,-4,1,30,1,-12,1,-18,1,-3,1,-14,1,-16,1,-18,1,-20,1,-23,1
450,-32,1,-36,1,-4,1,34,1,-14,1,-20,1,-2,1,-12,1,-14,1,-17,1,-19,1,-23,1
451,-34,1,-39,1,-5,1,36,1,-15,1,-22,1,0,1,-7,1,-10,1,-14,1,-18,1,-23,1
452,-32,1,-37,1,-5,1,34,1,-14,1,-21,1,1,1,-1,1,-3,1,-8,1,-14,1,-20,1
453,-26,1,-34,1,-8,1,30,1,-9,1,-21,1,3,1,10,1,6,1,0,1,-8,1,-18,1
454,-19,1,-31,1,-12,1,25,1,-4,1,-22,1,5,1,22,1,18,1,8,1,-1,1,-16,1
455,-13,1,-28,1,-15,1,20,1,1,1,-22,1,8,1,36,1,34,1,19,1,6,1,-12,1
456,-5,1,-24,1,-19,1,14,1,7,1,-22,1,12,1,54,1,52,1,34,1,17,1,-7,1
457,6,1,-18,1,-24,1,6,1,15,1,-21,1,16,1,74,1,74,1,52,1,32,1,1,1
458,19,1,-11,1,-30,1,-4,1,24,1,-20,1,17,1,96,1,100,1,73,1,49,1,12,1
459,35,1,-3,1,-38,1,-16,1,36,1,-20,1,15,1,114,1,124,1,95,1,68,1,26,1
460,48,1,5,1,-43,1,-26,1,46,1,-19,1,11,1,127,1,143,1,115,1,88,1,39,1
461,61,1,13,1,-48,1,-37,1,55,1,-17,1,5,1,135,1,159,1,133,1,106,1,52,1
462,74,1,21,1,-53,1,-47,1,64,1,-16,1,0,1,137,1,170,1,146,1,121,1,64,1
463,89,1,28,1,-61,1,-58,1,75,1,-16,1,-6,1,133,1,173,1,153,1,131,1,72,1
464,102,1,35,1,-67,1,-68,1,85,1,-16,1,-15,1,120,1,164,1,150,1,134,1,76,1
465,110,1,44,1,-66,1,-77,1,88,1,-11,1,-26,1,96,1,143,1,139,1,130,1,77,1
466,115,1,52,1,-63,1,-83,1,89,1,-5,1,-41,1,60,1,113,1,120,1,121,1,76,1
467,113,1,61,1,-52,1,-87,1,83,1,5,1,-57,1,16,1,75,1,97,1,108,1,74,1
468,109,1,66,1,-43,1,-87,1,76,1,12,1,-78,1,-32,1,31,1,68,1,91,1,72,1
469,103,1,67,1,-36,1,-85,1,70,1,16,1,-98,1,-84,1,-17,1,34,1,68,1,66,1
470,94,1,63,1,-31,1,-78,1,63,1,16,1,-118,1,-135,1,-69,1,-4,1,41,1,55,1
471,80,1,53,1,-27,1,-66,1,54,1,13,1,-137,1,-182,1,-122,1,-47,1,10,1,39,1
472,62,1,40,1,-22,1,-51,1,42,1,9,1,-151,1,-221,1,-169,1,-87,1,-21,1,20,1
473,43,1,28,1,-15,1,-35,1,29,1,7,1,-159,1,-248,1,-205,1,-121,1,-49,1,0,1
474,27,1,17,1,-10,1,-22,1,19,1,4,1,-162,1,-263,1,-226,1,-143,1,-69,1,-17,1
475,15,1,8,1,-7,1,-11,1,11,1,1,1,-161,1,-265,1,-233,1,-153,1,-81,1,-29,1
476,7,1,-2,1,-9,1,-2,1,8,1,-5,1,-158,1,-261,1,-232,1,-156,1,-86,1,-38,1
477,4,1,-11,1,-15,1,3,1,9,1,-13,1,-154,1,-255,1,-225,1,-154,1,-89,1,-42,1
478,3,1,-16,1,-19,1,6,1,11,1,-17,1,-147,1,-246,1,-218,1,-150,1,-87,1,-43,1
479,2,1,-19,1,-21,1,8,1,11,1,-20,1,-137,1,-237,1,-210,1,-146,1,-87,1,-42,1
480,-1,1,-21,1,-20,1,11,1,9,1,-21,1,-127,1,-224,1,-202,1,-145,1,-89,1,-43,1
481,-5,1,-23,1,-18,1,14,1,6,1,-21,1,-114,1,-209,1,-193,1,-144,1,-90,1,-46,1
482,-8,1,-25,1,-17,1,16,1,4,1,-21,1,-102,1,-191,1,-182,1,-141,1,-91,1,-49,1
483,-12,1,-28,1,-16,1,20,1,2,1,-22,1,-92,1,-171,1,-168,1,-135,1,-90,1,-53,1
484,-15,1,-32,1,-17,1,23,1,1,1,-25,1,-83,1,-151,1,-153,1,-127,1,-88,1,-56,1
485,-17,1,-36,1,-19,1,26,1,1,1,-28,1,-76,1,-134,1,-136,1,-117,1,-85,1,-56,1
486,-19,1,-42,1,-23,1,30,1,2,1,-33,1,-70,1,-120,1,-120,1,-105,1,-80,1,-55,1
487,-19,1,-45,1,-26,1,32,1,3,1,-36,1,-65,1,-109,1,-108,1,-94,1,-74,1,-53,1
488,-18,1,-44,1,-26,1,31,1,4,1,-35,1,-60,1,-102,1,-97,1,-85,1,-68,1,-51,1
489,-17,1,-40,1,-23,1,28,1,3,1,-32,1,-54,1,-96,1,-90,1,-79,1,-63,1,-48,1
490,-17,1,-37,1,-20,1,27,1,1,1,-29,1,-47,1,-91,1,-86,1,-76,1,-59,1,-46,1
491,-18,1,-34,1,-16,1,26,1,-1,1,-25,1,-38,1,-84,1,-82,1,-73,1,-55,1,-44,1
492,-18,1,-33,1,-15,1,25,1,-2,1,-24,1,-30,1,-73,1,-76,1,-70,1,-52,1,-41,1
493,-18,1,-31,1,-13,1,24,1,-3,1,-22,1,-23,1,-60,1,-68,1,-65,1,-49,1,-38,1
494,-17,1,-29,1,-12,1,23,1,-3,1,-21,1,-19,1,-47,1,-57,1,-57,1,-45,1,-36,1
495,-17,1,-27,1,-10,1,22,1,-4,1,-19,1,-18,1,-36,1,-46,1,-48,1,-40,1,-33,1
496,-16,1,-27,1,-11,1,21,1,-3,1,-19,1,-17,1,-30,1,-36,1,-39,1,-34,1,-30,1
497,-17,1,-25,1,-8,1,21,1,-5,1,-17,1,-17,1,-28,1,-30,1,-32,1,-31,1,-29,1
498,-19,1,-24,1,-5,1,21,1,-7,1,-15,1,-17,1,-29,1,-28,1,-29,1,-27,1,-27,1
499,-19,1,-24,1,-5,1,21,1,-7,1,-15,1,-17,1,-29,1,-28,1,-28,1,-25,1,-25,1
500,-20,1,-22,1,-2,1,21,1,-9,1,-12,1,-14,1,-29,1,-29,1,-28,1,-23,1,-24,1
501,-20,1,-22,1,-2,1,21,1,-9,1,-12,1,-12,1,-27,1,-29,1,-28,1,-23,1,-23,1
502,-20,1,-22,1,-2,1,21,1,-9,1,-12,1,-10,1,-24,1,-29,1,-28,1,-21,1,-23,1
503,-18,1,-19,1,-1,1,18,1,-9,1,-10,1,-9,1,-20,1,-26,1,-26,1,-20,1,-22,1
504,-16,1,-18,1,-2,1,17,1,-7,1,-10,1,-8,1,-14,1,-20,1,-23,1,-17,1,-20,1
505,-17,1,-18,1,-1,1,17,1,-8,1,-10,1,-6,1,-10,1,-16,1,-20,1,-16,1,-19,1
506,-17,1,-18,1,-1,1,17,1,-8,1,-10,1,-5,1,-8,1,-12,1,-17,1,-15,1,-17,1
507,-14,1,-16,1,-2,1,15,1,-6,1,-9,1,-2,1,-8,1,-9,1,-15,1,-12,1,-15,1
508,-11,1,-14,1,-3,1,12,1,-4,1,-9,1,1,1,-8,1,-9,1,-14,1,-12,1,-14,1
509,-11,1,-14,1,-3,1,12,1,-4,1,-9,1,1,1,-8,1,-9,1,-14,1,-11,1,-14,1
510,-12,1,-14,1,-2,1,13,1,-5,1,-8,1,1,1,-8,1,-9,1,-15,1,-11,1,-13,1
511,-11,1,-12,1,-1,1,11,1,-5,1,-7,1,1,1,-5,1,-9,1,-13,1,-10,1,-12,1
512,-11,1,-11,1,0,1,11,1,-6,1,-6,1,2,1,-5,1,-8,1,-12,1,-10,1,-11,1
513,-10,1,-11,1,-1,1,10,1,-5,1,-6,1,2,1,-4,1,-7,1,-12,1,-10,1,-11,1
514,-10,1,-12,1,-2,1,11,1,-4,1,-7,1,2,1,-3,1,-6,1,-11,1,-10,1,-10,1
515,-7,1,-11,1,-4,1,9,1,-2,1,-8,1,3,1,-3,1,-6,1,-11,1,-10,1,-10,1
516,-8,1,-11,1,-3,1,9,1,-3,1,-7,1,3,1,-3,1,-6,1,-11,1,-10,1,-10,1
517,-10,1,-12,1,-2,1,11,1,-4,1,-7,1,2,1,-3,1,-7,1,-11,1,-10,1,-10,1
518,-13,1,-15,1,-2,1,14,1,-6,1,-9,1,1,1,-3,1,-7,1,-12,1,-11,1,-12,1
519,-15,1,-17,1,-2,1,16,1,-7,1,-10,1,1,1,-4,1,-6,1,-11,1,-12,1,-12,1
520,-16,1,-17,1,-1,1,16,1,-8,1,-9,1,0,1,-4,1,-7,1,-11,1,-12,1,-13,1
521,-16,1,-18,1,-2,1,17,1,-7,1,-10,1,0,1,-4,1,-8,1,-11,1,-11,1,-13,1
522,-18,1,-19,1,-1,1,18,1,-9,1,-10,1,0,1,-4,1,-7,1,-12,1,-11,1,-14,1
523,-18,1,-21,1,-3,1,19,1,-8,1,-12,1,-1,1,-3,1,-7,1,-12,1,-11,1,-14,1
524,-19,1,-22,1,-3,1,20,1,-8,1,-13,1,-2,1,-2,1,-6,1,-12,1,-11,1,-14,1
525,-20,1,-23,1,-3,1,21,1,-9,1,-13,1,-2,1,-2,1,-6,1,-12,1,-11,1,-14,1
526,-19,1,-23,1,-4,1,21,1,-8,1,-14,1,-2,1,-2,1,-7,1,-12,1,-12,1,-14,1
527,-18,1,-22,1,-4,1,20,1,-7,1,-13,1,-2,1,-2,1,-7,1,-12,1,-11,1,-14,1
528,-16,1,-22,1,-6,1,19,1,-5,1,-14,1,-2,1,-1,1,-5,1,-11,1,-10,1,-13,1
529,-14,1,-20,1,-6,1,17,1,-4,1,-13,1,-1,1,0,1,-5,1,-11,1,-10,1,-13,1
530,-11,1,-16,1,-5,1,13,1,-3,1,-11,1,0,1,1,1,-5,1,-10,1,-8,1,-12,1
531,-9,1,-11,1,-2,1,10,1,-4,1,-7,1,1,1,2,1,-3,1,-9,1,-7,1,-10,1
532,-9,1,-8,1,1,1,8,1,-5,1,-4,1,2,1,3,1,-1,1,-8,1,-6,1,-10,1
533,-8,1,-7,1,1,1,7,1,-5,1,-3,1,2,1,3,1,-1,1,-7,1,-5,1,-9,1
534,-8,1,-7,1,1,1,7,1,-5,1,-3,1,2,1,3,1,-1,1,-7,1,-5,1,-9,1
535,-8,1,-8,1,0,1,8,1,-4,1,-4,1,1,1,4,1,0,1,-6,1,-4,1,-8,1
536,-8,1,-10,1,-2,1,9,1,-3,1,-6,1,-1,1,4,1,0,1,-7,1,-4,1,-8,1
537,-8,1,-12,1,-4,1,10,1,-2,1,-8,1,-3,1,5,1,0,1,-8,1,-5,1,-9,1
538,-11,1,-14,1,-3,1,12,1,-4,1,-9,1,-3,1,5,1,-1,1,-8,1,-5,1,-9,1
539,-13,1,-15,1,-2,1,14,1,-6,1,-9,1,-3,1,5,1,-1,1,-7,1,-4,1,-9,1
540,-13,1,-15,1,-2,1,14,1,-6,1,-9,1,-3,1,5,1,0,1,-7,1,-5,1,-10,1
541,-12,1,-13,1,-1,1,12,1,-6,1,-7,1,-3,1,6,1,0,1,-5,1,-5,1,-10,1
542,-11,1,-13,1,-2,1,12,1,-5,1,-8,1,-3,1,6,1,0,1,-4,1,-4,1,-10,1
543,-9,1,-13,1,-4,1,11,1,-3,1,-9,1,-2,1,6,1,1,1,-4,1,-4,1,-10,1
544,-7,1,-12,1,-5,1,9,1,-1,1,-9,1,-1,1,7,1,1,1,-4,1,-4,1,-9,1
545,-5,1,-9,1,-4,1,7,1,-1,1,-7,1,0,1,7,1,2,1,-4,1,-4,1,-9,1
546,-4,1,-7,1,-3,1,5,1,-1,1,-5,1,2,1,7,1,3,1,-4,1,-3,1,-8,1
547,-3,1,-5,1,-2,1,4,1,-1,1,-4,1,4,1,7,1,3,1,-3,1,-3,1,-8,1
548,-3,1,-4,1,-1,1,3,1,-1,1,-3,1,4,1,7,1,4,1,-3,1,-3,1,-7,1
549,-4,1,-6,1,-2,1,5,1,-1,1,-4,1,5,1,7,1,4,1,-4,1,-3,1,-7,1
550,-5,1,-7,1,-2,1,6,1,-2,1,-5,1,6,1,7,1,5,1,-4,1,-3,1,-7,1
551,-5,1,-7,1,-2,1,6,1,-2,1,-5,1,6,1,8,1,5,1,-3,1,-3,1,-7,1
552,-5,1,-7,1,-2,1,6,1,-2,1,-5,1,5,1,9,1,5,1,-3,1,-3,1,-7,1
553,-5,1,-8,1,-3,1,6,1,-1,1,-6,1,4,1,9,1,5,1,-3,1,-3,1,-7,1
554,-6,1,-9,1,-3,1,7,1,-2,1,-6,1,3,1,9,1,5,1,-3,1,-2,1,-7,1
555,-5,1,-9,1,-4,1,7,1,-1,1,-7,1,4,1,9,1,5,1,-3,1,-2,1,-7,1
556,-3,1,-8,1,-5,1,5,1,1,1,-7,1,3,1,9,1,5,1,-3,1,-1,1,-6,1
557,-1,1,-7,1,-6,1,4,1,2,1,-7,1,2,1,11,1,7,1,-2,1,0,1,-4,1
558,0,1,-5,1,-5,1,2,1,2,1,-5,1,2,1,12,1,7,1,-1,1,1,1,-4,1
559,1,1,-4,1,-5,1,1,1,3,1,-4,1,2,1,13,1,9,1,0,1,2,1,-3,1
560,3,1,-4,1,-7,1,0,1,5,1,-5,1,1,1,13,1,10,1,1,1,3,1,-2,1
561,1,1,-4,1,-5,1,1,1,3,1,-4,1,0,1,14,1,10,1,1,1,4,1,-2,1
562,-1,1,-6,1,-5,1,3,1,2,1,-6,1,0,1,15,1,11,1,1,1,4,1,-2,1
563,-1,1,-7,1,-6,1,4,1,2,1,-7,1,-1,1,16,1,11,1,3,1,4,1,-2,1
564,1,1,-5,1,-6,1,2,1,3,1,-5,1,0,1,17,1,12,1,4,1,5,1,-1,1
565,3,1,-5,1,-8,1,1,1,5,1,-6,1,0,1,18,1,13,1,5,1,6,1,-1,1
566,1,1,-6,1,-7,1,2,1,4,1,-6,1,0,1,18,1,14,1,5,1,6,1,-1,1
567,0,1,-7,1,-7,1,3,1,3,1,-7,1,-1,1,19,1,14,1,5,1,6,1,-1,1
568,0,1,-6,1,-6,1,3,1,3,1,-6,1,-1,1,19,1,15,1,5,1,6,1,-1,1
569,0,1,-5,1,-5,1,2,1,2,1,-5,1,-2,1,20,1,17,1,6,1,6,1,0,1
570,1,1,-4,1,-5,1,1,1,3,1,-4,1,-3,1,22,1,17,1,6,1,7,1,0,1
571,4,1,-2,1,-6,1,-1,1,5,1,-4,1,-5,1,22,1,18,1,6,1,7,1,1,1
572,4,1,0,1,-4,1,-2,1,4,1,-2,1,-6,1,23,1,18,1,6,1,8,1,1,1
573,6,1,2,1,-4,1,-4,1,5,1,-1,1,-6,1,23,1,18,1,7,1,9,1,3,1
574,8,1,4,1,-4,1,-6,1,6,1,0,1,-5,1,23,1,18,1,7,1,9,1,3,1
575,10,1,5,1,-5,1,-7,1,8,1,0,1,-5,1,24,1,19,1,8,1,9,1,3,1
576,11,1,5,1,-6,1,-8,1,9,1,0,1,-5,1,25,1,19,1,8,1,9,1,3,1
577,12,1,6,1,-6,1,-9,1,9,1,0,1,-6,1,26,1,20,1,8,1,11,1,5,1
578,14,1,8,1,-6,1,-11,1,10,1,1,1,-7,1,26,1,21,1,9,1,12,1,6,1
579,17,1,8,1,-9,1,-12,1,13,1,0,1,-7,1,27,1,21,1,10,1,12,1,6,1
580,19,1,9,1,-10,1,-14,1,15,1,0,1,-6,1,27,1,22,1,10,1,13,1,7,1
581,19,1,8,1,-11,1,-13,1,15,1,-1,1,-5,1,28,1,22,1,10,1,14,1,8,1
582,16,1,7,1,-9,1,-11,1,13,1,-1,1,-5,1,28,1,24,1,11,1,15,1,9,1
583,13,1,5,1,-8,1,-9,1,11,1,-1,1,-5,1,27,1,23,1,10,1,15,1,8,1
584,11,1,4,1,-7,1,-7,1,9,1,-1,1,-5,1,27,1,23,1,9,1,15,1,9,1
585,12,1,4,1,-8,1,-8,1,10,1,-2,1,-5,1,27,1,23,1,10,1,15,1,9,1
586,14,1,6,1,-8,1,-10,1,11,1,-1,1,-5,1,28,1,24,1,11,1,17,1,11,1
587,15,1,6,1,-9,1,-10,1,12,1,-1,1,-5,1,28,1,24,1,12,1,17,1,11,1
588,16,1,6,1,-10,1,-11,1,13,1,-2,1,-5,1,29,1,24,1,13,1,17,1,12,1
589,16,1,5,1,-11,1,-10,1,14,1,-3,1,-6,1,29,1,24,1,13,1,17,1,12,1
590,15,1,4,1,-11,1,-9,1,13,1,-3,1,-6,1,28,1,23,1,12,1,15,1,11,1
591,15,1,4,1,-11,1,-9,1,13,1,-3,1,-7,1,27,1,23,1,12,1,15,1,11,1
592,17,1,7,1,-10,1,-12,1,14,1,-1,1,-7,1,27,1,23,1,12,1,15,1,12,1
593,19,1,10,1,-9,1,-14,1,14,1,1,1,-8,1,27,1,23,1,12,1,16,1,12,1
594,20,1,10,1,-10,1,-15,1,15,1,0,1,-8,1,26,1,21,1,10,1,16,1,12,1
595,19,1,9,1,-10,1,-14,1,15,1,0,1,-8,1,25,1,21,1,10,1,16,1,12,1
596,19,1,9,1,-10,1,-14,1,15,1,0,1,-8,1,25,1,20,1,10,1,16,1,12,1
597,19,1,10,1,-9,1,-14,1,14,1,1,1,-8,1,26,1,19,1,9,1,18,1,13,1
598,22,1,14,1,-8,1,-18,1,15,1,3,1,-7,1,26,1,19,1,9,1,18,1,14,1
599,26,1,17,1,-9,1,-21,1,18,1,4,1,-8,1,26,1,19,1,9,1,19,1,14,1
600,27,1,17,1,-10,1,-22,1,19,1,4,1,-8,1,26,1,18,1,10,1,19,1,15,1
601,25,1,17,1,-8,1,-21,1,17,1,5,1,-7,1,25,1,18,1,9,1,18,1,15,1
602,25,1,16,1,-9,1,-20,1,17,1,4,1,-7,1,24,1,18,1,9,1,18,1,15,1
603,25,1,16,1,-9,1,-20,1,17,1,4,1,-8,1,24,1,18,1,9,1,18,1,16,1
604,25,1,17,1,-8,1,-21,1,17,1,5,1,-8,1,24,1,18,1,9,1,18,1,16,1
605,25,1,17,1,-8,1,-21,1,17,1,5,1,-8,1,24,1,18,1,10,1,18,1,16,1
606,23,1,15,1,-8,1,-19,1,16,1,4,1,-9,1,24,1,18,1,10,1,18,1,16,1
607,23,1,12,1,-11,1,-17,1,17,1,1,1,-10,1,24,1,17,1,10,1,20,1,16,1
608,22,1,12,1,-10,1,-17,1,16,1,1,1,-11,1,22,1,16,1,9,1,19,1,15,1
609,22,1,13,1,-9,1,-17,1,16,1,2,1,-11,1,22,1,15,1,7,1,18,1,15,1
610,20,1,14,1,-6,1,-17,1,13,1,4,1,-11,1,21,1,15,1,6,1,18,1,14,1
611,19,1,14,1,-5,1,-16,1,12,1,5,1,-10,1,19,1,15,1,6,1,18,1,14,1
612,19,1,15,1,-4,1,-17,1,12,1,6,1,-10,1,18,1,14,1,5,1,16,1,13,1
613,20,1,16,1,-4,1,-18,1,12,1,6,1,-8,1,16,1,12,1,5,1,15,1,12,1
614,18,1,15,1,-3,1,-16,1,11,1,6,1,-7,1,14,1,9,1,3,1,13,1,10,1
615,15,1,11,1,-4,1,-13,1,10,1,4,1,-7,1,11,1,7,1,3,1,10,1,9,1
616,10,1,7,1,-3,1,-8,1,7,1,2,1,-6,1,11,1,7,1,3,1,10,1,8,1
617,7,1,6,1,-1,1,-6,1,4,1,3,1,-5,1,10,1,7,1,2,1,10,1,7,1
618,7,1,6,1,-1,1,-6,1,4,1,3,1,-5,1,10,1,6,1,1,1,9,1,6,1
619,6,1,5,1,-1,1,-5,1,4,1,2,1,-5,1,8,1,5,1,0,1,8,1,5,1
620,4,1,3,1,-1,1,-3,1,3,1,1,1,-7,1,6,1,3,1,-1,1,6,1,3,1
621,1,1,-1,1,-2,1,0,1,1,1,-1,1,-8,1,6,1,2,1,-2,1,6,1,2,1
622,-1,1,-3,1,-2,1,2,1,0,1,-3,1,-8,1,5,1,2,1,-3,1,5,1,2,1
623,1,1,-1,1,-2,1,0,1,1,1,-1,1,-7,1,5,1,1,1,-3,1,5,1,1,1
624,3,1,2,1,-1,1,-2,1,2,1,1,1,-6,1,5,1,1,1,-3,1,5,1,1,1
625,3,1,6,1,3,1,-4,1,0,1,5,1,-5,1,4,1,2,1,-3,1,5,1,0,1
626,2,1,7,1,5,1,-4,1,-1,1,6,1,-5,1,3,1,0,1,-3,1,3,1,-1,1
627,1,1,5,1,4,1,-3,1,-1,1,5,1,-7,1,2,1,0,1,-4,1,2,1,-2,1
628,1,1,5,1,4,1,-3,1,-1,1,5,1,-7,1,2,1,-1,1,-4,1,2,1,-3,1
629,2,1,5,1,3,1,-3,1,0,1,4,1,-6,1,2,1,-1,1,-4,1,2,1,-3,1
630,2,1,7,1,5,1,-4,1,-1,1,6,1,-5,1,2,1,0,1,-2,1,2,1,-2,1
631,2,1,7,1,5,1,-4,1,-1,1,6,1,-5,1,2,1,-1,1,-2,1,1,1,-2,1
632,1,1,5,1,4,1,-3,1,-1,1,5,1,-5,1,1,1,-1,1,-3,1,2,1,-3,1
633,1,1,5,1,4,1,-3,1,-1,1,5,1,-5,1,1,1,-1,1,-3,1,2,1,-3,1
634,1,1,7,1,6,1,-4,1,-2,1,7,1,-5,1,0,1,0,1,-3,1,1,1,-3,1
635,0,1,6,1,6,1,-3,1,-3,1,6,1,-5,1,-1,1,0,1,-3,1,0,1,-3,1
636,-1,1,5,1,6,1,-2,1,-3,1,5,1,-5,1,-2,1,-2,1,-3,1,-1,1,-3,1
637,-3,1,4,1,7,1,0,1,-5,1,5,1,-5,1,-3,1,-3,1,-3,1,-1,1,-4,1
638,-4,1,4,1,8,1,0,1,-6,1,6,1,-6,1,-3,1,-3,1,-4,1,-1,1,-3,1
639,-3,1,4,1,7,1,0,1,-5,1,5,1,-6,1,-3,1,-3,1,-4,1,-1,1,-3,1
640,-3,1,4,1,7,1,0,1,-5,1,5,1,-5,1,-4,1,-4,1,-5,1,-2,1,-4,1
641,-2,1,3,1,5,1,0,1,-3,1,4,1,-5,1,-4,1,-5,1,-6,1,-3,1,-5,1
642,-3,1,3,1,6,1,0,1,-4,1,4,1,-5,1,-6,1,-5,1,-7,1,-4,1,-5,1
643,-4,1,3,1,7,1,0,1,-5,1,5,1,-4,1,-7,1,-6,1,-8,1,-4,1,-6,1
644,-5,1,3,1,8,1,1,1,-6,1,5,1,-3,1,-8,1,-6,1,-8,1,-5,1,-6,1
645,-3,1,3,1,6,1,0,1,-4,1,4,1,-3,1,-8,1,-7,1,-9,1,-6,1,-6,1
646,-3,1,1,1,4,1,1,1,-3,1,2,1,-3,1,-8,1,-7,1,-9,1,-6,1,-6,1
647,-5,1,-2,1,3,1,3,1,-4,1,0,1,-3,1,-9,1,-8,1,-11,1,-6,1,-7,1
648,-8,1,-5,1,3,1,6,1,-6,1,-1,1,-3,1,-9,1,-8,1,-12,1,-7,1,-8,1
649,-11,1,-7,1,4,1,9,1,-8,1,-2,1,-3,1,-9,1,-8,1,-12,1,-8,1,-8,1
650,-12,1,-8,1,4,1,10,1,-8,1,-2,1,-4,1,-9,1,-9,1,-13,1,-9,1,-10,1
651,-13,1,-9,1,4,1,11,1,-9,1,-3,1,-4,1,-10,1,-10,1,-13,1,-9,1,-10,1
652,-12,1,-8,1,4,1,10,1,-8,1,-2,1,-5,1,-10,1,-9,1,-12,1,-9,1,-10,1
653,-10,1,-6,1,4,1,8,1,-7,1,-1,1,-6,1,-9,1,-9,1,-11,1,-7,1,-9,1
654,-8,1,-5,1,3,1,6,1,-6,1,-1,1,-5,1,-9,1,-8,1,-10,1,-7,1,-9,1
655,-7,1,-5,1,2,1,6,1,-5,1,-2,1,-5,1,-9,1,-8,1,-10,1,-7,1,-9,1
656,-5,1,-3,1,2,1,4,1,-4,1,-1,1,-4,1,-8,1,-8,1,-10,1,-7,1,-9,1
657,-3,1,0,1,3,1,1,1,-3,1,1,1,-3,1,-7,1,-8,1,-10,1,-7,1,-9,1
658,-1,1,4,1,5,1,-1,1,-3,1,4,1,-3,1,-7,1,-6,1,-9,1,-5,1,-9,1
659,-1,1,7,1,8,1,-3,1,-4,1,7,1,-2,1,-7,1,-6,1,-9,1,-5,1,-8,1
660,-1,1,7,1,8,1,-3,1,-4,1,7,1,-1,1,-6,1,-6,1,-9,1,-5,1,-9,1
661,-4,1,6,1,10,1,-1,1,-7,1,8,1,-2,1,-6,1,-6,1,-9,1,-5,1,-9,1
662,-8,1,1,1,9,1,3,1,-8,1,5,1,-3,1,-7,1,-7,1,-10,1,-6,1,-10,1
663,-13,1,-3,1,10,1,8,1,-12,1,3,1,-3,1,-8,1,-8,1,-11,1,-7,1,-11,1
664,-15,1,-5,1,10,1,10,1,-13,1,2,1,-4,1,-8,1,-8,1,-12,1,-7,1,-11,1
665,-14,1,-6,1,8,1,10,1,-11,1,1,1,-4,1,-7,1,-8,1,-12,1,-8,1,-11,1
666,-15,1,-7,1,8,1,11,1,-12,1,0,1,-5,1,-7,1,-7,1,-12,1,-8,1,-10,1
667,-15,1,-6,1,9,1,10,1,-12,1,1,1,-5,1,-6,1,-6,1,-11,1,-8,1,-11,1
668,-13,1,-5,1,8,1,9,1,-11,1,1,1,-5,1,-5,1,-5,1,-11,1,-7,1,-10,1
669,-10,1,-5,1,5,1,7,1,-8,1,0,1,-5,1,-5,1,-5,1,-10,1,-7,1,-10,1
670,-7,1,-3,1,4,1,5,1,-6,1,0,1,-5,1,-4,1,-4,1,-9,1,-6,1,-9,1
671,-5,1,0,1,5,1,2,1,-5,1,2,1,-4,1,-4,1,-3,1,-9,1,-6,1,-9,1
672,-3,1,2,1,5,1,0,1,-4,1,3,1,-5,1,-3,1,-3,1,-8,1,-5,1,-9,1
673,-2,1,4,1,6,1,-1,1,-4,1,5,1,-5,1,-3,1,-3,1,-8,1,-5,1,-9,1
674,-2,1,5,1,7,1,-1,1,-4,1,6,1,-4,1,-3,1,-3,1,-7,1,-4,1,-9,1
675,-3,1,4,1,7,1,0,1,-5,1,5,1,-5,1,-3,1,-3,1,-7,1,-4,1,-9,1
676,-5,1,3,1,8,1,1,1,-6,1,5,1,-6,1,-4,1,-4,1,-6,1,-5,1,-10,1
677,-5,1,2,1,7,1,1,1,-6,1,4,1,-6,1,-4,1,-4,1,-6,1,-6,1,-10,1
678,-8,1,0,1,8,1,4,1,-8,1,4,1,-7,1,-4,1,-4,1,-7,1,-6,1,-11,1
679,-13,1,-6,1,7,1,9,1,-10,1,0,1,-9,1,-5,1,-5,1,-8,1,-7,1,-12,1
680,-18,1,-9,1,9,1,13,1,-14,1,0,1,-10,1,-5,1,-5,1,-8,1,-9,1,-12,1
681,-18,1,-9,1,9,1,13,1,-14,1,0,1,-9,1,-4,1,-4,1,-9,1,-9,1,-11,1
682,-12,1,-4,1,8,1,8,1,-10,1,2,1,-7,1,-3,1,-3,1,-8,1,-7,1,-9,1
683,-5,1,1,1,6,1,2,1,-5,1,3,1,-7,1,-3,1,-2,1,-7,1,-6,1,-8,1
684,0,1,4,1,4,1,-2,1,-2,1,4,1,-7,1,-2,1,-1,1,-7,1,-6,1,-8,1
685,0,1,5,1,5,1,-2,1,-2,1,5,1,-7,1,-3,1,-1,1,-6,1,-5,1,-8,1
686,0,1,4,1,4,1,-2,1,-2,1,4,1,-6,1,-3,1,-1,1,-7,1,-5,1,-9,1
687,-1,1,5,1,6,1,-2,1,-3,1,5,1,-4,1,-2,1,-1,1,-6,1,-5,1,-9,1
688,0,1,6,1,6,1,-3,1,-3,1,6,1,-4,1,-2,1,0,1,-6,1,-4,1,-8,1
689,1,1,7,1,6,1,-4,1,-2,1,7,1,-4,1,-2,1,0,1,-5,1,-4,1,-8,1
690,0,1,7,1,7,1,-3,1,-3,1,7,1,-5,1,-2,1,-1,1,-5,1,-4,1,-8,1
691,-2,1,5,1,7,1,-1,1,-4,1,6,1,-6,1,-3,1,-2,1,-6,1,-5,1,-8,1
692,-4,1,3,1,7,1,0,1,-5,1,5,1,-7,1,-4,1,-3,1,-8,1,-5,1,-10,1
693,-6,1,2,1,8,1,2,1,-7,1,5,1,-8,1,-6,1,-4,1,-9,1,-6,1,-11,1
694,-8,1,1,1,9,1,3,1,-8,1,5,1,-6,1,-6,1,-4,1,-9,1,-7,1,-11,1
695,-8,1,0,1,8,1,4,1,-8,1,4,1,-6,1,-6,1,-4,1,-9,1,-6,1,-11,1
696,-8,1,-1,1,7,1,4,1,-8,1,3,1,-7,1,-7,1,-5,1,-9,1,-7,1,-11,1
697,-9,1,-2,1,7,1,5,1,-8,1,2,1,-8,1,-8,1,-6,1,-11,1,-8,1,-11,1
698,-9,1,0,1,9,1,4,1,-9,1,4,1,-7,1,-9,1,-7,1,-11,1,-8,1,-11,1
699,-8,1,0,1,8,1,4,1,-8,1,4,1,-7,1,-10,1,-8,1,-12,1,-9,1,-12,1
700,-8,1,-1,1,7,1,4,1,-8,1,3,1,-5,1,-10,1,-8,1,-13,1,-9,1,-12,1
701,-9,1,-1,1,8,1,5,1,-9,1,3,1,-5,1,-10,1,-8,1,-13,1,-9,1,-12,1
702,-11,1,-3,1,8,1,7,1,-10,1,2,1,-5,1,-11,1,-9,1,-13,1,-10,1,-13,1
703,-11,1,-4,1,7,1,7,1,-9,1,1,1,-5,1,-10,1,-9,1,-13,1,-10,1,-13,1
704,-13,1,-4,1,9,1,8,1,-11,1,2,1,-6,1,-11,1,-10,1,-14,1,-11,1,-14,1
705,-14,1,-6,1,8,1,10,1,-11,1,1,1,-8,1,-11,1,-10,1,-15,1,-12,1,-14,1
706,-13,1,-6,1,7,1,9,1,-10,1,0,1,-8,1,-11,1,-10,1,-14,1,-11,1,-13,1
707,-13,1,-5,1,8,1,9,1,-11,1,1,1,-7,1,-10,1,-10,1,-13,1,-11,1,-13,1
708,-12,1,-5,1,7,1,8,1,-10,1,1,1,-7,1,-10,1,-9,1,-13,1,-10,1,-12,1
709,-11,1,-3,1,8,1,7,1,-10,1,2,1,-6,1,-9,1,-8,1,-12,1,-10,1,-12,1
710,-10,1,-1,1,9,1,5,1,-10,1,4,1,-6,1,-9,1,-8,1,-12,1,-10,1,-12,1
711,-9,1,0,1,9,1,4,1,-9,1,4,1,-7,1,-9,1,-9,1,-12,1,-10,1,-13,1
712,-8,1,0,1,8,1,4,1,-8,1,4,1,-7,1,-8,1,-10,1,-12,1,-10,1,-13,1
713,-7,1,1,1,8,1,3,1,-7,1,4,1,-7,1,-8,1,-10,1,-12,1,-9,1,-13,1
714,-6,1,1,1,7,1,2,1,-6,1,4,1,-7,1,-9,1,-9,1,-12,1,-9,1,-13,1
715,-7,1,0,1,7,1,3,1,-7,1,3,1,-7,1,-11,1,-9,1,-13,1,-11,1,-14,1
716,-9,1,-1,1,8,1,5,1,-9,1,3,1,-8,1,-12,1,-12,1,-15,1,-12,1,-15,1
717,-11,1,-3,1,8,1,7,1,-10,1,2,1,-8,1,-13,1,-12,1,-16,1,-12,1,-16,1
718,-12,1,-4,1,8,1,8,1,-10,1,2,1,-8,1,-13,1,-12,1,-16,1,-13,1,-16,1
719,-12,1,-4,1,8,1,8,1,-10,1,2,1,-7,1,-13,1,-12,1,-16,1,-13,1,-16,1
720,-10,1,-3,1,7,1,6,1,-9,1,2,1,-7,1,-13,1,-12,1,-16,1,-13,1,-16,1
721,-10,1,-2,1,8,1,6,1,-9,1,3,1,-8,1,-13,1,-12,1,-16,1,-13,1,-16,1
722,-11,1,-2,1,9,1,6,1,-10,1,3,1,-8,1,-13,1,-12,1,-16,1,-14,1,-16,1
723,-12,1,-3,1,9,1,7,1,-11,1,3,1,-8,1,-13,1,-12,1,-17,1,-14,1,-17,1
724,-12,1,-3,1,9,1,7,1,-11,1,3,1,-8,1,-14,1,-13,1,-17,1,-14,1,-17,1
725,-12,1,-3,1,9,1,7,1,-11,1,3,1,-8,1,-14,1,-13,1,-18,1,-15,1,-17,1
726,-11,1,-2,1,9,1,6,1,-10,1,3,1,-9,1,-14,1,-13,1,-18,1,-15,1,-17,1
727,-11,1,-1,1,10,1,6,1,-11,1,4,1,-9,1,-13,1,-12,1,-17,1,-14,1,-16,1
728,-10,1,-2,1,8,1,6,1,-9,1,3,1,-10,1,-13,1,-12,1,-17,1,-14,1,-16,1
729,-11,1,-2,1,9,1,6,1,-10,1,3,1,-10,1,-13,1,-12,1,-16,1,-14,1,-15,1
730,-11,1,-3,1,8,1,7,1,-10,1,2,1,-10,1,-12,1,-12,1,-16,1,-13,1,-15,1
731,-10,1,-3,1,7,1,6,1,-9,1,2,1,-8,1,-12,1,-11,1,-14,1,-13,1,-14,1
732,-7,1,-1,1,6,1,4,1,-7,1,2,1,-7,1,-12,1,-11,1,-14,1,-12,1,-14,1
733,-6,1,1,1,7,1,2,1,-6,1,4,1,-6,1,-11,1,-11,1,-14,1,-12,1,-13,1
734,-5,1,2,1,7,1,1,1,-6,1,4,1,-6,1,-11,1,-11,1,-14,1,-12,1,-13,1
735,-6,1,3,1,9,1,1,1,-7,1,6,1,-5,1,-11,1,-11,1,-13,1,-12,1,-12,1
736,-9,1,2,1,11,1,3,1,-10,1,6,1,-5,1,-12,1,-13,1,-14,1,-12,1,-13,1
737,-11,1,2,1,13,1,4,1,-12,1,7,1,-4,1,-13,1,-13,1,-15,1,-12,1,-13,1
738,-10,1,2,1,12,1,4,1,-11,1,7,1,-4,1,-12,1,-12,1,-14,1,-11,1,-13,1
739,-10,1,2,1,12,1,4,1,-11,1,7,1,-3,1,-11,1,-11,1,-14,1,-11,1,-12,1
740,-12,1,0,1,12,1,6,1,-12,1,6,1,-3,1,-11,1,-11,1,-13,1,-11,1,-12,1
741,-14,1,-2,1,12,1,8,1,-13,1,5,1,-4,1,-12,1,-12,1,-13,1,-11,1,-13,1
742,-13,1,-1,1,12,1,7,1,-13,1,5,1,-4,1,-12,1,-12,1,-14,1,-10,1,-13,1
743,-11,1,-1,1,10,1,6,1,-11,1,4,1,-3,1,-11,1,-10,1,-12,1,-9,1,-12,1
744,-9,1,2,1,11,1,3,1,-10,1,6,1,-2,1,-9,1,-7,1,-10,1,-7,1,-10,1
745,-7,1,5,1,12,1,1,1,-9,1,8,1,0,1,-7,1,-6,1,-9,1,-5,1,-8,1
746,-3,1,7,1,10,1,-2,1,-6,1,8,1,1,1,-6,1,-5,1,-8,1,-4,1,-8,1
747,2,1,11,1,9,1,-6,1,-3,1,10,1,2,1,-4,1,-3,1,-7,1,-3,1,-7,1
748,5,1,13,1,8,1,-9,1,-1,1,11,1,4,1,-3,1,-1,1,-6,1,-2,1,-7,1
749,6,1,14,1,8,1,-10,1,-1,1,11,1,4,1,-2,1,-1,1,-5,1,-2,1,-6,1
750,5,1,12,1,7,1,-8,1,-1,1,10,1,2,1,-2,1,-1,1,-5,1,-2,1,-7,1
751,3,1,11,1,8,1,-7,1,-2,1,10,1,2,1,0,1,-1,1,-5,1,-2,1,-7,1
752,1,1,11,1,10,1,-6,1,-4,1,11,1,2,1,0,1,-1,1,-5,1,-3,1,-7,1
753,0,1,9,1,9,1,-4,1,-4,1,9,1,0,1,0,1,-1,1,-6,1,-3,1,-6,1
754,-1,1,7,1,8,1,-3,1,-4,1,7,1,0,1,0,1,-1,1,-6,1,-4,1,-7,1
755,-2,1,5,1,7,1,-1,1,-4,1,6,1,-2,1,0,1,-1,1,-6,1,-4,1,-6,1
756,-2,1,5,1,7,1,-1,1,-4,1,6,1,-2,1,-1,1,-1,1,-7,1,-4,1,-7,1
757,-2,1,5,1,7,1,-1,1,-4,1,6,1,-2,1,-1,1,-1,1,-6,1,-4,1,-7,1
758,-1,1,4,1,5,1,-1,1,-3,1,4,1,-4,1,0,1,0,1,-5,1,-4,1,-6,1
759,2,1,7,1,5,1,-4,1,-1,1,6,1,-4,1,0,1,0,1,-4,1,-3,1,-7,1
760,7,1,12,1,5,1,-9,1,1,1,9,1,-5,1,0,1,0,1,-3,1,-2,1,-6,1
761,10,1,14,1,4,1,-12,1,3,1,9,1,-5,1,0,1,0,1,-3,1,-2,1,-5,1
762,11,1,16,1,5,1,-13,1,3,1,11,1,-6,1,0,1,0,1,-3,1,-1,1,-4,1
763,11,1,15,1,4,1,-13,1,4,1,10,1,-6,1,-1,1,-1,1,-4,1,-2,1,-4,1
764,12,1,15,1,3,1,-13,1,5,1,9,1,-7,1,-1,1,-1,1,-5,1,-2,1,-4,1
765,13,1,13,1,0,1,-13,1,7,1,7,1,-8,1,-1,1,-2,1,-6,1,-3,1,-4,1
766,11,1,10,1,-1,1,-10,1,6,1,5,1,-9,1,-1,1,-3,1,-6,1,-4,1,-5,1
767,8,1,8,1,0,1,-8,1,4,1,4,1,-12,1,-3,1,-4,1,-8,1,-4,1,-6,1
768,4,1,4,1,0,1,-4,1,2,1,2,1,-13,1,-5,1,-6,1,-10,1,-6,1,-7,1
769,0,1,0,1,0,1,0,1,0,1,0,1,-15,1,-7,1,-7,1,-11,1,-8,1,-9,1
770,-2,1,-3,1,-1,1,2,1,-1,1,-2,1,-14,1,-9,1,-10,1,-13,1,-9,1,-10,1
771,-2,1,-5,1,-3,1,3,1,0,1,-4,1,-14,1,-10,1,-11,1,-15,1,-10,1,-11,1
772,-2,1,-6,1,-4,1,4,1,1,1,-5,1,-13,1,-10,1,-12,1,-16,1,-10,1,-12,1
773,-2,1,-8,1,-6,1,5,1,2,1,-7,1,-12,1,-11,1,-13,1,-17,1,-11,1,-13,1
774,-4,1,-8,1,-4,1,6,1,0,1,-6,1,-11,1,-12,1,-14,1,-18,1,-13,1,-14,1
775,-6,1,-11,1,-5,1,8,1,-1,1,-8,1,-11,1,-14,1,-15,1,-20,1,-15,1,-16,1
776,-7,1,-12,1,-5,1,9,1,-1,1,-9,1,-9,1,-15,1,-15,1,-21,1,-17,1,-17,1
777,-7,1,-11,1,-4,1,9,1,-2,1,-8,1,-8,1,-16,1,-17,1,-21,1,-17,1,-18,1
778,-7,1,-8,1,-1,1,7,1,-3,1,-5,1,-8,1,-17,1,-17,1,-22,1,-17,1,-18,1
779,-7,1,-7,1,0,1,7,1,-4,1,-4,1,-6,1,-17,1,-17,1,-22,1,-17,1,-18,1
780,-8,1,-7,1,1,1,7,1,-5,1,-3,1,-6,1,-17,1,-18,1,-22,1,-17,1,-18,1
781,-9,1,-7,1,2,1,8,1,-6,1,-3,1,-5,1,-18,1,-19,1,-22,1,-18,1,-19,1
782,-12,1,-10,1,2,1,11,1,-7,1,-4,1,-5,1,-19,1,-19,1,-22,1,-18,1,-19,1
783,-14,1,-13,1,1,1,13,1,-8,1,-6,1,-5,1,-20,1,-21,1,-23,1,-19,1,-22,1
784,-15,1,-13,1,2,1,14,1,-9,1,-6,1,-5,1,-21,1,-22,1,-24,1,-20,1,-23,1
785,-16,1,-14,1,2,1,15,1,-9,1,-6,1,-5,1,-21,1,-23,1,-24,1,-20,1,-23,1
786,-16,1,-14,1,2,1,15,1,-9,1,-6,1,-5,1,-20,1,-23,1,-24,1,-20,1,-24,1
787,-17,1,-15,1,2,1,16,1,-10,1,-7,1,-6,1,-21,1,-23,1,-25,1,-21,1,-24,1
788,-19,1,-16,1,3,1,17,1,-11,1,-7,1,-8,1,-21,1,-23,1,-26,1,-23,1,-24,1
789,-19,1,-17,1,2,1,18,1,-11,1,-8,1,-8,1,-22,1,-23,1,-28,1,-23,1,-26,1
790,-19,1,-16,1,3,1,17,1,-11,1,-7,1,-9,1,-22,1,-24,1,-28,1,-24,1,-26,1
791,-19,1,-16,1,3,1,17,1,-11,1,-7,1,-10,1,-22,1,-24,1,-28,1,-24,1,-25,1
792,-21,1,-18,1,3,1,19,1,-12,1,-8,1,-10,1,-22,1,-24,1,-28,1,-24,1,-25,1
793,-21,1,-19,1,2,1,20,1,-12,1,-9,1,-10,1,-22,1,-24,1,-28,1,-24,1,-25,1
794,-19,1,-16,1,3,1,17,1,-11,1,-7,1,-9,1,-21,1,-24,1,-28,1,-24,1,-25,1
795,-16,1,-13,1,3,1,14,1,-10,1,-5,1,-8,1,-21,1,-24,1,-28,1,-23,1,-24,1
796,-14,1,-11,1,3,1,12,1,-9,1,-4,1,-7,1,-22,1,-24,1,-27,1,-23,1,-23,1
797,-14,1,-11,1,3,1,12,1,-9,1,-4,1,-5,1,-22,1,-24,1,-28,1,-24,1,-23,1
798,-14,1,-13,1,1,1,13,1,-8,1,-6,1,-4,1,-23,1,-25,1,-29,1,-24,1,-24,1
799,-15,1,-15,1,0,1,15,1,-8,1,-8,1,-4,1,-23,1,-25,1,-29,1,-25,1,-25,1
800,-16,1,-14,1,2,1,15,1,-9,1,-6,1,-4,1,-23,1,-25,1,-27,1,-25,1,-25,1
801,-17,1,-14,1,3,1,15,1,-10,1,-6,1,-4,1,-21,1,-25,1,-27,1,-23,1,-24,1
802,-17,1,-14,1,3,1,15,1,-10,1,-6,1,-4,1,-21,1,-25,1,-26,1,-23,1,-23,1
803,-18,1,-15,1,3,1,16,1,-11,1,-6,1,-5,1,-21,1,-26,1,-26,1,-22,1,-23,1
804,-19,1,-17,1,2,1,18,1,-11,1,-8,1,-5,1,-21,1,-26,1,-27,1,-22,1,-23,1
805,-20,1,-17,1,3,1,18,1,-12,1,-7,1,-6,1,-21,1,-26,1,-27,1,-22,1,-23,1
806,-20,1,-17,1,3,1,18,1,-12,1,-7,1,-6,1,-22,1,-25,1,-27,1,-22,1,-23,1
807,-21,1,-19,1,2,1,20,1,-12,1,-9,1,-5,1,-22,1,-23,1,-27,1,-22,1,-23,1
808,-22,1,-21,1,1,1,21,1,-12,1,-10,1,-5,1,-21,1,-23,1,-27,1,-22,1,-23,1
809,-22,1,-21,1,1,1,21,1,-12,1,-10,1,-5,1,-21,1,-23,1,-27,1,-22,1,-23,1
810,-21,1,-20,1,1,1,20,1,-11,1,-10,1,-5,1,-20,1,-23,1,-27,1,-22,1,-23,1
811,-21,1,-18,1,3,1,19,1,-12,1,-8,1,-4,1,-20,1,-23,1,-27,1,-22,1,-23,1
812,-21,1,-18,1,3,1,19,1,-12,1,-8,1,-3,1,-20,1,-23,1,-27,1,-23,1,-23,1
813,-23,1,-18,1,5,1,20,1,-14,1,-7,1,-2,1,-18,1,-21,1,-26,1,-22,1,-24,1
814,-22,1,-17,1,5,1,19,1,-14,1,-6,1,0,1,-15,1,-19,1,-24,1,-22,1,-24,1
815,-20,1,-14,1,6,1,17,1,-13,1,-4,1,2,1,-10,1,-16,1,-22,1,-20,1,-24,1
816,-20,1,-12,1,8,1,16,1,-14,1,-2,1,4,1,-5,1,-10,1,-20,1,-18,1,-23,1
817,-19,1,-14,1,5,1,16,1,-12,1,-5,1,6,1,0,1,-4,1,-15,1,-16,1,-23,1
818,-19,1,-17,1,2,1,18,1,-11,1,-8,1,9,1,7,1,4,1,-8,1,-14,1,-22,1
819,-16,1,-20,1,-4,1,18,1,-6,1,-12,1,12,1,17,1,14,1,0,1,-10,1,-20,1
820,-12,1,-19,1,-7,1,15,1,-3,1,-13,1,13,1,30,1,27,1,12,1,-4,1,-18,1
821,-7,1,-18,1,-11,1,12,1,2,1,-15,1,15,1,47,1,46,1,27,1,7,1,-13,1
822,-1,1,-17,1,-16,1,9,1,7,1,-17,1,16,1,67,1,67,1,44,1,22,1,-5,1
823,10,1,-15,1,-25,1,2,1,17,1,-20,1,14,1,89,1,92,1,64,1,41,1,6,1
824,25,1,-9,1,-34,1,-8,1,29,1,-21,1,12,1,109,1,117,1,84,1,62,1,19,1
825,44,1,-3,1,-47,1,-20,1,45,1,-25,1,6,1,123,1,138,1,103,1,84,1,34,1
826,62,1,4,1,-58,1,-33,1,60,1,-27,1,0,1,131,1,153,1,120,1,102,1,47,1
827,79,1,14,1,-65,1,-46,1,72,1,-25,1,-3,1,131,1,162,1,133,1,117,1,59,1
828,96,1,26,1,-70,1,-61,1,83,1,-22,1,-6,1,126,1,162,1,139,1,124,1,68,1
829,107,1,39,1,-68,1,-73,1,88,1,-14,1,-12,1,111,1,150,1,136,1,122,1,72,1
830,111,1,49,1,-62,1,-80,1,87,1,-6,1,-23,1,84,1,127,1,122,1,113,1,70,1
831,109,1,56,1,-53,1,-82,1,81,1,2,1,-37,1,45,1,93,1,102,1,101,1,67,1
832,104,1,62,1,-42,1,-83,1,73,1,10,1,-54,1,1,1,53,1,76,1,87,1,65,1
833,99,1,64,1,-35,1,-81,1,67,1,15,1,-74,1,-47,1,9,1,45,1,72,1,60,1
834,94,1,63,1,-31,1,-78,1,63,1,16,1,-96,1,-98,1,-40,1,10,1,51,1,53,1
835,85,1,59,1,-26,1,-72,1,56,1,17,1,-116,1,-149,1,-91,1,-28,1,27,1,41,1
836,73,1,53,1,-20,1,-63,1,47,1,17,1,-131,1,-195,1,-141,1,-68,1,-3,1,25,1
837,58,1,46,1,-12,1,-52,1,35,1,17,1,-141,1,-233,1,-183,1,-104,1,-33,1,6,1
838,40,1,39,1,-1,1,-39,1,21,1,19,1,-146,1,-259,1,-215,1,-132,1,-60,1,-10,1
839,24,1,32,1,8,1,-28,1,8,1,20,1,-147,1,-271,1,-234,1,-150,1,-80,1,-24,1
840,11,1,22,1,11,1,-16,1,0,1,17,1,-146,1,-273,1,-242,1,-159,1,-92,1,-33,1
841,4,1,10,1,6,1,-7,1,-1,1,8,1,-145,1,-267,1,-241,1,-163,1,-98,1,-40,1
842,-1,1,-4,1,-3,1,2,1,1,1,-4,1,-143,1,-261,1,-236,1,-164,1,-101,1,-46,1
843,-4,1,-17,1,-13,1,10,1,4,1,-15,1,-141,1,-252,1,-230,1,-163,1,-100,1,-49,1
844,-8,1,-27,1,-19,1,17,1,5,1,-23,1,-135,1,-243,1,-222,1,-162,1,-99,1,-51,1
845,-8,1,-30,1,-22,1,19,1,7,1,-26,1,-125,1,-231,1,-213,1,-159,1,-99,1,-54,1
846,-8,1,-28,1,-20,1,18,1,6,1,-24,1,-111,1,-215,1,-201,1,-156,1,-100,1,-56,1
847,-9,1,-23,1,-14,1,16,1,2,1,-19,1,-97,1,-196,1,-186,1,-150,1,-99,1,-57,1
848,-13,1,-21,1,-8,1,17,1,-3,1,-15,1,-83,1,-175,1,-171,1,-141,1,-98,1,-58,1
849,-18,1,-20,1,-2,1,19,1,-8,1,-11,1,-70,1,-155,1,-154,1,-132,1,-96,1,-58,1
850,-20,1,-21,1,-1,1,20,1,-10,1,-11,1,-62,1,-137,1,-139,1,-121,1,-91,1,-58,1
851,-20,1,-23,1,-3,1,21,1,-9,1,-13,1,-56,1,-124,1,-126,1,-109,1,-86,1,-58,1
852,-20,1,-24,1,-4,1,22,1,-8,1,-14,1,-51,1,-115,1,-116,1,-100,1,-80,1,-56,1
853,-20,1,-26,1,-6,1,23,1,-7,1,-16,1,-47,1,-110,1,-109,1,-92,1,-73,1,-55,1
854,-20,1,-27,1,-7,1,23,1,-7,1,-17,1,-42,1,-104,1,-102,1,-87,1,-67,1,-53,1
855,-19,1,-27,1,-8,1,23,1,-6,1,-18,1,-34,1,-97,1,-96,1,-84,1,-63,1,-50,1
856,-18,1,-25,1,-7,1,21,1,-6,1,-16,1,-25,1,-88,1,-90,1,-82,1,-60,1,-48,1
857,-19,1,-24,1,-5,1,21,1,-7,1,-15,1,-15,1,-76,1,-82,1,-79,1,-57,1,-47,1
858,-22,1,-24,1,-2,1,23,1,-10,1,-13,1,-7,1,-63,1,-72,1,-74,1,-56,1,-45,1
859,-23,1,-23,1,0,1,23,1,-12,1,-12,1,-3,1,-51,1,-62,1,-67,1,-54,1,-43,1
860,-23,1,-21,1,2,1,22,1,-13,1,-10,1,-3,1,-42,1,-53,1,-58,1,-50,1,-41,1
861,-21,1,-17,1,4,1,19,1,-13,1,-7,1,-2,1,-36,1,-44,1,-48,1,-44,1,-38,1
862,-18,1,-13,1,5,1,15,1,-12,1,-4,1,-2,1,-32,1,-37,1,-40,1,-38,1,-34,1
863,-14,1,-10,1,4,1,12,1,-9,1,-3,1,-2,1,-30,1,-34,1,-34,1,-31,1,-31,1
864,-13,1,-10,1,3,1,11,1,-8,1,-4,1,0,1,-30,1,-33,1,-32,1,-26,1,-28,1
865,-13,1,-11,1,2,1,12,1,-8,1,-5,1,2,1,-29,1,-32,1,-32,1,-25,1,-28,1
866,-14,1,-11,1,3,1,12,1,-9,1,-4,1,4,1,-27,1,-32,1,-34,1,-25,1,-27,1
867,-14,1,-13,1,1,1,13,1,-8,1,-6,1,5,1,-24,1,-31,1,-34,1,-25,1,-27,1
868,-17,1,-16,1,1,1,16,1,-9,1,-8,1,6,1,-20,1,-28,1,-34,1,-25,1,-26,1
869,-17,1,-17,1,0,1,17,1,-9,1,-9,1,6,1,-16,1,-25,1,-32,1,-26,1,-26,1
870,-17,1,-16,1,1,1,16,1,-9,1,-8,1,7,1,-13,1,-22,1,-29,1,-24,1,-24,1
871,-19,1,-16,1,3,1,17,1,-11,1,-7,1,8,1,-11,1,-19,1,-25,1,-22,1,-22,1
872,-21,1,-18,1,3,1,19,1,-12,1,-8,1,7,1,-10,1,-19,1,-23,1,-21,1,-22,1
873,-21,1,-19,1,2,1,20,1,-12,1,-9,1,8,1,-10,1,-18,1,-21,1,-20,1,-20,1
874,-21,1,-20,1,1,1,20,1,-11,1,-10,1,8,1,-10,1,-18,1,-21,1,-19,1,-20,1
875,-21,1,-22,1,-1,1,21,1,-10,1,-12,1,10,1,-11,1,-18,1,-21,1,-18,1,-19,1
876,-22,1,-24,1,-2,1,23,1,-10,1,-13,1,11,1,-11,1,-18,1,-21,1,-18,1,-19,1
877,-24,1,-25,1,-1,1,24,1,-12,1,-13,1,11,1,-10,1,-17,1,-21,1,-18,1,-19,1
878,-23,1,-24,1,-1,1,23,1,-11,1,-13,1,11,1,-8,1,-16,1,-20,1,-18,1,-18,1
879,-21,1,-22,1,-1,1,21,1,-10,1,-12,1,11,1,-7,1,-15,1,-20,1,-17,1,-18,1
880,-19,1,-22,1,-3,1,20,1,-8,1,-13,1,12,1,-5,1,-14,1,-20,1,-16,1,-17,1
881,-17,1,-21,1,-4,1,19,1,-7,1,-13,1,12,1,-4,1,-12,1,-20,1,-16,1,-17,1
882,-17,1,-21,1,-4,1,19,1,-7,1,-13,1,11,1,-4,1,-12,1,-20,1,-16,1,-17,1
883,-18,1,-23,1,-5,1,20,1,-7,1,-14,1,11,1,-4,1,-11,1,-19,1,-17,1,-18,1
884,-18,1,-21,1,-3,1,19,1,-8,1,-12,1,11,1,-4,1,-10,1,-19,1,-16,1,-17,1
885,-18,1,-21,1,-3,1,19,1,-8,1,-12,1,11,1,-3,1,-10,1,-18,1,-16,1,-17,1
886,-17,1,-19,1,-2,1,18,1,-8,1,-11,1,11,1,-3,1,-10,1,-18,1,-15,1,-16,1
887,-16,1,-18,1,-2,1,17,1,-7,1,-10,1,11,1,-3,1,-10,1,-17,1,-14,1,-16,1
888,-17,1,-18,1,-1,1,17,1,-8,1,-10,1,13,1,-2,1,-9,1,-15,1,-14,1,-15,1
889,-18,1,-20,1,-2,1,19,1,-8,1,-11,1,13,1,-1,1,-8,1,-14,1,-13,1,-15,1
890,-20,1,-22,1,-2,1,21,1,-9,1,-12,1,13,1,-1,1,-8,1,-14,1,-13,1,-15,1
891,-21,1,-24,1,-3,1,22,1,-9,1,-14,1,13,1,0,1,-7,1,-14,1,-13,1,-15,1
892,-20,1,-24,1,-4,1,22,1,-8,1,-14,1,13,1,0,1,-7,1,-13,1,-13,1,-14,1
893,-18,1,-24,1,-6,1,21,1,-6,1,-15,1,13,1,2,1,-6,1,-13,1,-11,1,-13,1
894,-16,1,-22,1,-6,1,19,1,-5,1,-14,1,14,1,2,1,-5,1,-12,1,-10,1,-12,1
895,-13,1,-19,1,-6,1,16,1,-4,1,-13,1,14,1,3,1,-5,1,-12,1,-10,1,-11,1
896,-11,1,-17,1,-6,1,14,1,-3,1,-12,1,14,1,3,1,-5,1,-12,1,-10,1,-11,1
897,-10,1,-15,1,-5,1,12,1,-3,1,-10,1,15,1,4,1,-4,1,-11,1,-10,1,-11,1
898,-7,1,-13,1,-6,1,10,1,-1,1,-10,1,15,1,5,1,-4,1,-11,1,-9,1,-11,1
899,-4,1,-10,1,-6,1,7,1,1,1,-8,1,16,1,6,1,-3,1,-10,1,-9,1,-10,1
900,-1,1,-8,1,-7,1,4,1,3,1,-8,1,17,1,6,1,-2,1,-10,1,-8,1,-10,1
901,-1,1,-7,1,-6,1,4,1,2,1,-7,1,17,1,7,1,-1,1,-10,1,-8,1,-9,1
902,-2,1,-7,1,-5,1,4,1,1,1,-6,1,17,1,7,1,-1,1,-10,1,-8,1,-9,1
903,-4,1,-10,1,-6,1,7,1,1,1,-8,1,17,1,7,1,-1,1,-10,1,-8,1,-9,1
904,-4,1,-11,1,-7,1,7,1,1,1,-9,1,17,1,7,1,-1,1,-9,1,-6,1,-9,1
905,-4,1,-11,1,-7,1,7,1,1,1,-9,1,17,1,7,1,0,1,-8,1,-5,1,-8,1
906,-5,1,-12,1,-7,1,8,1,1,1,-10,1,17,1,9,1,1,1,-7,1,-5,1,-8,1
907,-8,1,-16,1,-8,1,12,1,0,1,-12,1,16,1,7,1,0,1,-8,1,-5,1,-8,1
908,-9,1,-18,1,-9,1,13,1,0,1,-14,1,16,1,7,1,-1,1,-8,1,-7,1,-10,1
909,-10,1,-21,1,-11,1,15,1,0,1,-16,1,16,1,7,1,-1,1,-8,1,-8,1,-10,1
910,-12,1,-26,1,-14,1,19,1,1,1,-20,1,14,1,7,1,-1,1,-9,1,-9,1,-10,1
911,-14,1,-30,1,-16,1,22,1,1,1,-23,1,13,1,7,1,-1,1,-9,1,-10,1,-11,1
912,-16,1,-33,1,-17,1,24,1,0,1,-25,1,12,1,7,1,-2,1,-10,1,-10,1,-11,1
913,-16,1,-31,1,-15,1,23,1,-1,1,-23,1,10,1,6,1,-3,1,-10,1,-10,1,-12,1
914,-16,1,-29,1,-13,1,22,1,-2,1,-21,1,9,1,6,1,-3,1,-10,1,-10,1,-13,1
915,-17,1,-28,1,-11,1,22,1,-3,1,-20,1,9,1,6,1,-2,1,-9,1,-10,1,-13,1
916,-17,1,-27,1,-10,1,22,1,-4,1,-19,1,10,1,7,1,-2,1,-10,1,-9,1,-11,1
917,-15,1,-26,1,-11,1,20,1,-2,1,-19,1,11,1,7,1,-1,1,-9,1,-8,1,-10,1
918,-11,1,-24,1,-13,1,17,1,1,1,-19,1,11,1,9,1,0,1,-7,1,-6,1,-8,1
919,-7,1,-19,1,-12,1,13,1,2,1,-16,1,11,1,12,1,2,1,-5,1,-3,1,-5,1
920,-4,1,-14,1,-10,1,9,1,3,1,-12,1,12,1,14,1,4,1,-3,1,-2,1,-4,1
921,-1,1,-11,1,-10,1,6,1,4,1,-11,1,11,1,15,1,5,1,-2,1,-1,1,-3,1
922,-1,1,-10,1,-9,1,5,1,4,1,-10,1,12,1,16,1,6,1,-1,1,0,1,-1,1
923,0,1,-10,1,-10,1,5,1,5,1,-10,1,13,1,17,1,7,1,0,1,1,1,0,1
924,0,1,-12,1,-12,1,6,1,6,1,-12,1,14,1,18,1,9,1,0,1,2,1,0,1
925,0,1,-15,1,-15,1,7,1,7,1,-15,1,14,1,18,1,10,1,2,1,3,1,1,1
926,-2,1,-17,1,-15,1,9,1,6,1,-16,1,14,1,18,1,11,1,3,1,4,1,1,1
927,-5,1,-20,1,-15,1,12,1,5,1,-18,1,12,1,19,1,10,1,2,1,3,1,1,1
928,-7,1,-23,1,-16,1,15,1,4,1,-20,1,11,1,19,1,10,1,2,1,3,1,0,1
929,-6,1,-24,1,-18,1,15,1,6,1,-21,1,10,1,19,1,10,1,2,1,3,1,0,1
930,-4,1,-23,1,-19,1,13,1,7,1,-21,1,10,1,19,1,12,1,2,1,3,1,0,1
931,-2,1,-20,1,-18,1,11,1,8,1,-19,1,10,1,20,1,13,1,2,1,3,1,0,1
932,0,1,-17,1,-17,1,8,1,8,1,-17,1,10,1,22,1,15,1,3,1,4,1,0,1
933,3,1,-13,1,-16,1,5,1,9,1,-14,1,10,1,22,1,15,1,3,1,4,1,1,1
934,4,1,-13,1,-17,1,4,1,10,1,-15,1,9,1,23,1,16,1,4,1,5,1,2,1
935,4,1,-12,1,-16,1,4,1,10,1,-14,1,8,1,24,1,17,1,5,1,5,1,3,1
936,7,1,-10,1,-17,1,1,1,12,1,-13,1,8,1,26,1,19,1,7,1,7,1,4,1
937,10,1,-7,1,-17,1,-1,1,13,1,-12,1,9,1,28,1,20,1,9,1,8,1,6,1
938,13,1,-4,1,-17,1,-4,1,15,1,-10,1,10,1,29,1,22,1,10,1,10,1,8,1
939,15,1,-3,1,-18,1,-6,1,16,1,-10,1,10,1,30,1,23,1,10,1,11,1,8,1
940,16,1,-3,1,-19,1,-6,1,17,1,-11,1,10,1,30,1,23,1,11,1,11,1,8,1
941,16,1,-2,1,-18,1,-7,1,17,1,-10,1,11,1,30,1,23,1,11,1,11,1,8,1
942,17,1,-1,1,-18,1,-8,1,17,1,-9,1,12,1,32,1,24,1,11,1,12,1,10,1
943,18,1,1,1,-17,1,-9,1,18,1,-8,1,12,1,33,1,25,1,13,1,13,1,11,1
944,17,1,0,1,-17,1,-8,1,17,1,-8,1,12,1,34,1,26,1,13,1,14,1,11,1
945,17,1,-2,1,-19,1,-7,1,18,1,-10,1,11,1,34,1,25,1,13,1,15,1,11,1
946,17,1,-3,1,-20,1,-7,1,18,1,-11,1,10,1,34,1,25,1,13,1,15,1,11,1
947,18,1,-2,1,-20,1,-8,1,19,1,-11,1,10,1,34,1,25,1,13,1,15,1,11,1
948,18,1,-2,1,-20,1,-8,1,19,1,-11,1,10,1,35,1,26,1,14,1,16,1,11,1
949,16,1,-5,1,-21,1,-5,1,18,1,-13,1,10,1,34,1,26,1,13,1,16,1,12,1
950,14,1,-8,1,-22,1,-3,1,18,1,-15,1,9,1,33,1,26,1,12,1,15,1,12,1
951,14,1,-9,1,-23,1,-2,1,18,1,-16,1,9,1,33,1,26,1,12,1,16,1,11,1
952,14,1,-8,1,-22,1,-3,1,18,1,-15,1,8,1,33,1,25,1,12,1,16,1,11,1
953,14,1,-8,1,-22,1,-3,1,18,1,-15,1,7,1,33,1,24,1,11,1,16,1,11,1
954,14,1,-8,1,-22,1,-3,1,18,1,-15,1,4,1,32,1,24,1,10,1,15,1,11,1
955,13,1,-9,1,-22,1,-2,1,17,1,-15,1,3,1,31,1,22,1,9,1,14,1,10,1
956,12,1,-10,1,-22,1,-1,1,17,1,-16,1,2,1,31,1,22,1,9,1,14,1,10,1
957,12,1,-8,1,-20,1,-2,1,16,1,-14,1,2,1,31,1,22,1,9,1,14,1,10,1
958,14,1,-6,1,-20,1,-4,1,17,1,-13,1,2,1,31,1,21,1,8,1,14,1,11,1
959,16,1,-5,1,-21,1,-5,1,18,1,-13,1,3,1,31,1,21,1,8,1,13,1,12,1
960,16,1,-5,1,-21,1,-5,1,18,1,-13,1,2,1,31,1,21,1,8,1,13,1,12,1
961,16,1,-5,1,-21,1,-5,1,18,1,-13,1,2,1,31,1,20,1,8,1,13,1,13,1
962,18,1,-3,1,-21,1,-7,1,19,1,-12,1,2,1,31,1,20,1,8,1,14,1,14,1
963,18,1,-3,1,-21,1,-7,1,19,1,-12,1,3,1,31,1,20,1,8,1,15,1,14,1
964,16,1,-3,1,-19,1,-6,1,17,1,-11,1,4,1,30,1,19,1,7,1,14,1,14,1
965,15,1,-4,1,-19,1,-5,1,17,1,-11,1,4,1,28,1,19,1,6,1,13,1,13,1
966,15,1,-2,1,-17,1,-6,1,16,1,-9,1,3,1,28,1,18,1,6,1,13,1,13,1
967,17,1,0,1,-17,1,-8,1,17,1,-8,1,2,1,27,1,18,1,5,1,12,1,12,1
968,18,1,1,1,-17,1,-9,1,18,1,-8,1,2,1,27,1,18,1,5,1,12,1,13,1
969,17,1,2,1,-15,1,-9,1,16,1,-6,1,3,1,26,1,17,1,5,1,12,1,12,1
970,15,1,2,1,-13,1,-8,1,14,1,-5,1,3,1,26,1,16,1,4,1,12,1,12,1
971,14,1,2,1,-12,1,-8,1,13,1,-5,1,3,1,25,1,15,1,4,1,11,1,11,1
972,14,1,2,1,-12,1,-8,1,13,1,-5,1,3,1,24,1,15,1,4,1,11,1,12,1
973,17,1,6,1,-11,1,-11,1,14,1,-2,1,3,1,24,1,14,1,4,1,10,1,12,1
974,19,1,8,1,-11,1,-13,1,15,1,-1,1,3,1,24,1,13,1,3,1,10,1,11,1
975,20,1,10,1,-10,1,-15,1,15,1,0,1,3,1,24,1,13,1,3,1,10,1,11,1
976,21,1,12,1,-9,1,-16,1,15,1,2,1,4,1,23,1,13,1,4,1,11,1,12,1
977,21,1,12,1,-9,1,-16,1,15,1,2,1,5,1,23,1,12,1,3,1,11,1,12,1
978,20,1,10,1,-10,1,-15,1,15,1,0,1,6,1,23,1,13,1,2,1,10,1,12,1
979,17,1,8,1,-9,1,-12,1,13,1,0,1,6,1,23,1,13,1,2,1,9,1,11,1
980,15,1,6,1,-9,1,-10,1,12,1,-1,1,6,1,23,1,13,1,2,1,9,1,10,1
981,13,1,5,1,-8,1,-9,1,11,1,-1,1,5,1,21,1,11,1,2,1,9,1,9,1
982,12,1,3,1,-9,1,-7,1,11,1,-3,1,4,1,19,1,10,1,1,1,10,1,7,1
983,9,1,0,1,-9,1,-4,1,9,1,-4,1,4,1,17,1,9,1,1,1,9,1,7,1
984,7,1,-3,1,-10,1,-2,1,8,1,-6,1,4,1,17,1,8,1,0,1,7,1,6,1
985,5,1,-6,1,-11,1,0,1,8,1,-8,1,3,1,15,1,8,1,-1,1,6,1,5,1
986,5,1,-5,1,-10,1,0,1,7,1,-7,1,3,1,13,1,6,1,-2,1,5,1,4,1
987,4,1,-4,1,-8,1,0,1,6,1,-6,1,3,1,11,1,4,1,-2,1,2,1,3,1
988,4,1,-3,1,-7,1,0,1,5,1,-5,1,4,1,10,1,3,1,-2,1,2,1,2,1
989,4,1,-2,1,-6,1,-1,1,5,1,-4,1,6,1,9,1,2,1,-2,1,2,1,2,1
990,3,1,-1,1,-4,1,-1,1,3,1,-2,1,7,1,8,1,1,1,-2,1,2,1,1,1
991,2,1,0,1,-2,1,-1,1,2,1,-1,1,7,1,8,1,1,1,-3,1,2,1,0,1
992,1,1,0,1,-1,1,0,1,1,1,0,1,7,1,6,1,0,1,-5,1,1,1,0,1
993,0,1,0,1,0,1,0,1,0,1,0,1,7,1,5,1,-1,1,-7,1,0,1,-1,1
994,-3,1,-3,1,0,1,3,1,-2,1,-2,1,5,1,4,1,-2,1,-7,1,-1,1,-4,1
995,-6,1,-6,1,0,1,6,1,-3,1,-3,1,4,1,3,1,-4,1,-8,1,-3,1,-6,1
996,-9,1,-8,1,1,1,8,1,-5,1,-4,1,4,1,1,1,-4,1,-8,1,-5,1,-7,1
997,-9,1,-9,1,0,1,9,1,-5,1,-5,1,4,1,1,1,-4,1,-8,1,-6,1,-7,1
998,-11,1,-10,1,1,1,10,1,-6,1,-5,1,3,1,1,1,-4,1,-8,1,-7,1,-9,1
999,-14,1,-12,1,2,1,13,1,-8,1,-5,1,1,1,-1,1,-5,1,-9,1,-8,1,-10,1
1000,-14,1,-11,1,3,1,12,1,-9,1,-4,1,1,1,-2,1,-6,1,-11,1,-9,1,-12,1
1001,-13,1,-8,1,5,1,10,1,-9,1,-2,1,0,1,-3,1,-6,1,-11,1,-9,1,-12,1
1002,-13,1,-8,1,5,1,10,1,-9,1,-2,1,0,1,-4,1,-9,1,-12,1,-10,1,-14,1
1003,-14,1,-7,1,7,1,10,1,-11,1,0,1,0,1,-6,1,-9,1,-13,1,-12,1,-15,1
1004,-12,1,-3,1,9,1,7,1,-11,1,3,1,0,1,-5,1,-11,1,-13,1,-12,1,-16,1
1005,-9,1,1,1,10,1,4,1,-9,1,5,1,3,1,-5,1,-10,1,-12,1,-11,1,-15,1
1006,-6,1,7,1,13,1,0,1,-9,1,10,1,5,1,-5,1,-9,1,-11,1,-9,1,-14,1
1007,-4,1,10,1,14,1,-3,1,-9,1,12,1,5,1,-6,1,-10,1,-12,1,-9,1,-13,1
1008,-4,1,10,1,14,1,-3,1,-9,1,12,1,5,1,-6,1,-10,1,-12,1,-9,1,-13,1
1009,-3,1,8,1,11,1,-2,1,-7,1,9,1,5,1,-6,1,-10,1,-12,1,-9,1,-14,1
1010,-4,1,7,1,11,1,-1,1,-7,1,9,1,5,1,-6,1,-11,1,-14,1,-10,1,-15,1
1011,-6,1,6,1,12,1,0,1,-9,1,9,1,4,1,-7,1,-11,1,-15,1,-10,1,-15,1
1012,-7,1,4,1,11,1,1,1,-9,1,7,1,3,1,-7,1,-12,1,-16,1,-12,1,-17,1
1013,-9,1,2,1,11,1,3,1,-10,1,6,1,3,1,-7,1,-12,1,-16,1,-12,1,-15,1
1014,-9,1,2,1,11,1,3,1,-10,1,6,1,3,1,-7,1,-12,1,-15,1,-12,1,-15,1
1015,-8,1,4,1,12,1,2,1,-10,1,8,1,2,1,-7,1,-12,1,-15,1,-13,1,-14,1
1016,-8,1,4,1,12,1,2,1,-10,1,8,1,2,1,-8,1,-12,1,-15,1,-14,1,-14,1
1017,-9,1,2,1,11,1,3,1,-10,1,6,1,0,1,-8,1,-13,1,-15,1,-14,1,-14,1
1018,-12,1,0,1,12,1,6,1,-12,1,6,1,0,1,-9,1,-13,1,-15,1,-15,1,-15,1
1019,-13,1,0,1,13,1,6,1,-13,1,6,1,0,1,-9,1,-13,1,-16,1,-16,1,-15,1
1020,-13,1,-1,1,12,1,7,1,-13,1,5,1,1,1,-10,1,-13,1,-16,1,-16,1,-16,1
1021,-11,1,0,1,11,1,5,1,-11,1,5,1,1,1,-9,1,-13,1,-15,1,-15,1,-15,1
1022,-11,1,2,1,13,1,4,1,-12,1,7,1,1,1,-9,1,-13,1,-15,1,-15,1,-15,1
1023,-11,1,3,1,14,1,4,1,-12,1,8,1,1,1,-9,1,-12,1,-15,1,-13,1,-15,1
1024,-9,1,4,1,13,1,2,1,-11,1,8,1,2,1,-8,1,-12,1,-13,1,-12,1,-15,1
1025,-9,1,4,1,13,1,2,1,-11,1,8,1,2,1,-7,1,-11,1,-13,1,-12,1,-15,1
1026,-12,1,2,1,14,1,5,1,-13,1,8,1,2,1,-7,1,-12,1,-14,1,-12,1,-15,1
1027,-12,1,2,1,14,1,5,1,-13,1,8,1,2,1,-7,1,-11,1,-15,1,-13,1,-16,1
1028,-10,1,3,1,13,1,3,1,-11,1,8,1,1,1,-7,1,-11,1,-15,1,-12,1,-17,1
1029,-10,1,4,1,14,1,3,1,-12,1,9,1,1,1,-7,1,-10,1,-15,1,-12,1,-17,1
1030,-9,1,5,1,14,1,2,1,-11,1,9,1,1,1,-6,1,-9,1,-14,1,-12,1,-16,1
1031,-10,1,4,1,14,1,3,1,-12,1,9,1,0,1,-6,1,-9,1,-14,1,-12,1,-16,1
1032,-12,1,4,1,16,1,4,1,-14,1,10,1,0,1,-6,1,-9,1,-13,1,-13,1,-16,1
1033,-13,1,4,1,17,1,4,1,-15,1,10,1,-1,1,-5,1,-8,1,-13,1,-13,1,-16,1
1034,-13,1,4,1,17,1,4,1,-15,1,10,1,0,1,-4,1,-7,1,-12,1,-12,1,-15,1
1035,-11,1,4,1,15,1,3,1,-13,1,9,1,0,1,-4,1,-7,1,-12,1,-11,1,-15,1
1036,-11,1,4,1,15,1,3,1,-13,1,9,1,-1,1,-3,1,-6,1,-12,1,-10,1,-14,1
1037,-11,1,3,1,14,1,4,1,-12,1,8,1,-1,1,-3,1,-6,1,-12,1,-10,1,-14,1
1038,-10,1,3,1,13,1,3,1,-11,1,8,1,-2,1,-2,1,-6,1,-12,1,-9,1,-13,1
1039,-7,1,6,1,13,1,0,1,-10,1,9,1,-1,1,-2,1,-6,1,-12,1,-9,1,-13,1
1040,-3,1,9,1,12,1,-3,1,-7,1,10,1,0,1,-1,1,-5,1,-11,1,-8,1,-12,1
1041,-2,1,12,1,14,1,-5,1,-8,1,13,1,1,1,1,1,-4,1,-10,1,-8,1,-12,1
1042,-3,1,11,1,14,1,-4,1,-8,1,12,1,0,1,1,1,-3,1,-10,1,-8,1,-12,1
1043,-5,1,11,1,16,1,-3,1,-10,1,13,1,-2,1,0,1,-4,1,-10,1,-8,1,-12,1
1044,-6,1,11,1,17,1,-2,1,-11,1,14,1,-3,1,0,1,-6,1,-10,1,-10,1,-13,1
1045,-8,1,10,1,18,1,-1,1,-13,1,14,1,-2,1,-1,1,-7,1,-11,1,-11,1,-14,1
1046,-11,1,6,1,17,1,2,1,-14,1,11,1,-1,1,-1,1,-7,1,-11,1,-11,1,-14,1
1047,-14,1,3,1,17,1,5,1,-15,1,10,1,-1,1,-2,1,-7,1,-11,1,-11,1,-15,1
1048,-15,1,3,1,18,1,6,1,-16,1,10,1,0,1,-3,1,-7,1,-12,1,-12,1,-16,1
1049,-14,1,3,1,17,1,5,1,-15,1,10,1,0,1,-2,1,-6,1,-12,1,-12,1,-15,1
1050,-12,1,3,1,15,1,4,1,-13,1,9,1,0,1,-1,1,-6,1,-11,1,-12,1,-15,1
1051,-10,1,3,1,13,1,3,1,-11,1,8,1,0,1,-1,1,-6,1,-11,1,-12,1,-14,1
1052,-7,1,6,1,13,1,0,1,-10,1,9,1,-1,1,-1,1,-6,1,-11,1,-11,1,-14,1
1053,-4,1,11,1,15,1,-3,1,-9,1,13,1,-1,1,-1,1,-5,1,-11,1,-10,1,-14,1
1054,0,1,16,1,16,1,-8,1,-8,1,16,1,0,1,0,1,-4,1,-9,1,-9,1,-13,1
1055,3,1,18,1,15,1,-10,1,-6,1,17,1,3,1,0,1,-3,1,-8,1,-8,1,-13,1
1056,5,1,20,1,15,1,-12,1,-5,1,18,1,3,1,1,1,-3,1,-7,1,-8,1,-12,1
1057,5,1,21,1,16,1,-13,1,-5,1,19,1,3,1,1,1,-2,1,-7,1,-7,1,-11,1
1058,4,1,20,1,16,1,-12,1,-6,1,18,1,3,1,1,1,-2,1,-7,1,-7,1,-12,1
1059,2,1,18,1,16,1,-10,1,-7,1,17,1,2,1,0,1,-3,1,-7,1,-7,1,-12,1
1060,0,1,15,1,15,1,-7,1,-7,1,15,1,1,1,0,1,-3,1,-8,1,-8,1,-12,1
1061,-6,1,9,1,15,1,-1,1,-10,1,12,1,0,1,-2,1,-6,1,-9,1,-9,1,-13,1
1062,-13,1,0,1,13,1,6,1,-13,1,6,1,-2,1,-4,1,-8,1,-12,1,-10,1,-14,1
1063,-17,1,-5,1,12,1,11,1,-15,1,3,1,-2,1,-5,1,-9,1,-12,1,-11,1,-15,1
1064,-18,1,-6,1,12,1,12,1,-15,1,3,1,-2,1,-5,1,-9,1,-14,1,-10,1,-16,1
1065,-17,1,-4,1,13,1,10,1,-15,1,4,1,-1,1,-6,1,-9,1,-15,1,-11,1,-16,1
1066,-17,1,-3,1,14,1,10,1,-16,1,5,1,-2,1,-6,1,-10,1,-15,1,-12,1,-16,1
1067,-17,1,-3,1,14,1,10,1,-16,1,5,1,-3,1,-7,1,-11,1,-16,1,-12,1,-17,1
1068,-15,1,-2,1,13,1,8,1,-14,1,5,1,-3,1,-7,1,-12,1,-16,1,-13,1,-17,1
1069,-13,1,-1,1,12,1,7,1,-13,1,5,1,-4,1,-7,1,-11,1,-16,1,-13,1,-15,1
1070,-10,1,0,1,10,1,5,1,-10,1,5,1,-4,1,-7,1,-11,1,-16,1,-13,1,-15,1
1071,-9,1,0,1,9,1,4,1,-9,1,4,1,-4,1,-6,1,-11,1,-16,1,-13,1,-15,1
1072,-9,1,1,1,10,1,4,1,-9,1,5,1,-4,1,-7,1,-12,1,-16,1,-13,1,-15,1
1073,-11,1,0,1,11,1,5,1,-11,1,5,1,-4,1,-8,1,-13,1,-16,1,-14,1,-16,1
1074,-11,1,0,1,11,1,5,1,-11,1,5,1,-3,1,-9,1,-13,1,-16,1,-14,1,-16,1
1075,-11,1,0,1,11,1,5,1,-11,1,5,1,-3,1,-9,1,-12,1,-16,1,-14,1,-17,1
1076,-11,1,0,1,11,1,5,1,-11,1,5,1,-3,1,-8,1,-12,1,-16,1,-14,1,-17,1
1077,-11,1,0,1,11,1,5,1,-11,1,5,1,-4,1,-8,1,-13,1,-16,1,-14,1,-17,1
1078,-10,1,2,1,12,1,4,1,-11,1,7,1,-4,1,-7,1,-13,1,-16,1,-15,1,-18,1
1079,-10,1,5,1,15,1,2,1,-12,1,10,1,-4,1,-7,1,-13,1,-15,1,-15,1,-18,1
1080,-9,1,7,1,16,1,1,1,-12,1,11,1,-3,1,-8,1,-13,1,-15,1,-15,1,-18,1
1081,-9,1,8,1,17,1,0,1,-13,1,12,1,-3,1,-8,1,-13,1,-15,1,-16,1,-19,1
1082,-9,1,9,1,18,1,0,1,-13,1,13,1,-3,1,-7,1,-13,1,-15,1,-16,1,-19,1
1083,-9,1,10,1,19,1,0,1,-14,1,14,1,-3,1,-7,1,-13,1,-15,1,-16,1,-18,1
1084,-9,1,9,1,18,1,0,1,-13,1,13,1,-4,1,-8,1,-14,1,-16,1,-17,1,-18,1
1085,-8,1,9,1,17,1,0,1,-12,1,13,1,-4,1,-9,1,-14,1,-16,1,-16,1,-18,1
1086,-7,1,9,1,16,1,-1,1,-11,1,12,1,-4,1,-9,1,-13,1,-15,1,-16,1,-18,1
1087,-8,1,7,1,15,1,0,1,-11,1,11,1,-3,1,-9,1,-14,1,-15,1,-15,1,-17,1
1088,-11,1,4,1,15,1,3,1,-13,1,9,1,-4,1,-10,1,-13,1,-17,1,-16,1,-17,1
1089,-13,1,1,1,14,1,6,1,-13,1,7,1,-5,1,-10,1,-13,1,-17,1,-16,1,-17,1
1090,-13,1,0,1,13,1,6,1,-13,1,6,1,-4,1,-11,1,-12,1,-17,1,-16,1,-17,1
1091,-13,1,0,1,13,1,6,1,-13,1,6,1,-4,1,-10,1,-12,1,-16,1,-15,1,-17,1
1092,-13,1,1,1,14,1,6,1,-13,1,7,1,-3,1,-9,1,-12,1,-17,1,-14,1,-16,1
1093,-10,1,4,1,14,1,3,1,-12,1,9,1,-3,1,-8,1,-11,1,-16,1,-14,1,-16,1
1094,-6,1,8,1,14,1,-1,1,-10,1,11,1,-3,1,-8,1,-11,1,-16,1,-13,1,-15,1
1095,-4,1,11,1,15,1,-3,1,-9,1,13,1,-2,1,-8,1,-11,1,-16,1,-13,1,-15,1
1096,-4,1,11,1,15,1,-3,1,-9,1,13,1,-1,1,-9,1,-12,1,-16,1,-14,1,-15,1
1097,-6,1,11,1,17,1,-2,1,-11,1,14,1,0,1,-9,1,-13,1,-16,1,-13,1,-14,1
1098,-6,1,11,1,17,1,-2,1,-11,1,14,1,1,1,-8,1,-12,1,-15,1,-13,1,-14,1
1099,-6,1,11,1,17,1,-2,1,-11,1,14,1,2,1,-7,1,-12,1,-15,1,-12,1,-13,1
1100,-7,1,12,1,19,1,-2,1,-13,1,15,1,3,1,-7,1,-12,1,-15,1,-11,1,-13,1
1101,-8,1,12,1,20,1,-2,1,-14,1,16,1,3,1,-7,1,-12,1,-15,1,-11,1,-13,1
1102,-5,1,13,1,18,1,-4,1,-11,1,15,1,3,1,-7,1,-11,1,-14,1,-11,1,-12,1
1103,-5,1,14,1,19,1,-4,1,-12,1,16,1,3,1,-6,1,-11,1,-13,1,-11,1,-12,1
1104,-8,1,12,1,20,1,-2,1,-14,1,16,1,2,1,-6,1,-10,1,-13,1,-11,1,-13,1
1105,-10,1,10,1,20,1,0,1,-15,1,15,1,2,1,-6,1,-10,1,-13,1,-11,1,-14,1
1106,-8,1,10,1,18,1,-1,1,-13,1,14,1,2,1,-5,1,-8,1,-11,1,-11,1,-13,1
1107,-5,1,11,1,16,1,-3,1,-10,1,13,1,3,1,-3,1,-6,1,-9,1,-9,1,-12,1
1108,-2,1,14,1,16,1,-6,1,-9,1,15,1,3,1,-2,1,-6,1,-9,1,-9,1,-11,1
1109,0,1,16,1,16,1,-8,1,-8,1,16,1,4,1,-1,1,-5,1,-7,1,-8,1,-10,1
1110,1,1,17,1,16,1,-9,1,-7,1,17,1,4,1,1,1,-4,1,-6,1,-7,1,-8,1
1111,2,1,15,1,13,1,-8,1,-5,1,14,1,2,1,2,1,-2,1,-6,1,-5,1,-6,1
1112,3,1,14,1,11,1,-8,1,-4,1,13,1,2,1,3,1,-2,1,-5,1,-5,1,-6,1
1113,3,1,14,1,11,1,-8,1,-4,1,13,1,2,1,4,1,-1,1,-4,1,-3,1,-5,1
1114,4,1,14,1,10,1,-9,1,-3,1,12,1,2,1,5,1,0,1,-2,1,-2,1,-5,1
1115,3,1,12,1,9,1,-7,1,-3,1,11,1,1,1,5,1,0,1,-1,1,-2,1,-5,1
1116,3,1,12,1,9,1,-7,1,-3,1,11,1,0,1,5,1,1,1,-1,1,0,1,-5,1
1117,3,1,10,1,7,1,-6,1,-2,1,9,1,0,1,6,1,2,1,0,1,0,1,-5,1
1118,3,1,9,1,6,1,-6,1,-1,1,8,1,-2,1,6,1,3,1,0,1,1,1,-4,1
1119,2,1,6,1,4,1,-4,1,-1,1,5,1,-3,1,7,1,3,1,1,1,1,1,-3,1
1120,1,1,4,1,3,1,-2,1,-1,1,4,1,-4,1,7,1,4,1,1,1,1,1,-3,1
1121,0,1,1,1,1,1,0,1,0,1,1,1,-5,1,8,1,4,1,1,1,0,1,-2,1
1122,-1,1,1,1,2,1,0,1,-1,1,1,1,-7,1,8,1,4,1,1,1,0,1,-2,1
1123,0,1,1,1,1,1,0,1,0,1,1,1,-7,1,8,1,4,1,1,1,1,1,-2,1
1124,2,1,2,1,0,1,-2,1,1,1,1,1,-7,1,9,1,4,1,2,1,1,1,-2,1
1125,3,1,4,1,1,1,-3,1,1,1,3,1,-6,1,8,1,5,1,2,1,2,1,-2,1
1126,5,1,6,1,1,1,-5,1,2,1,4,1,-6,1,7,1,4,1,3,1,2,1,-2,1
1127,7,1,8,1,1,1,-7,1,3,1,5,1,-5,1,7,1,3,1,2,1,1,1,-2,1
1128,8,1,8,1,0,1,-8,1,4,1,4,1,-4,1,6,1,2,1,1,1,0,1,-2,1
1129,9,1,7,1,-2,1,-8,1,6,1,3,1,-3,1,5,1,1,1,0,1,-1,1,-2,1
1130,7,1,6,1,-1,1,-6,1,4,1,3,1,-4,1,3,1,0,1,-1,1,-2,1,-3,1
1131,6,1,4,1,-2,1,-5,1,4,1,1,1,-5,1,1,1,-2,1,-3,1,-3,1,-4,1
1132,5,1,2,1,-3,1,-3,1,4,1,0,1,-4,1,0,1,-3,1,-5,1,-5,1,-6,1
1133,3,1,0,1,-3,1,-1,1,3,1,-1,1,-4,1,-2,1,-5,1,-7,1,-6,1,-6,1
1134,1,1,-3,1,-4,1,1,1,2,1,-3,1,-4,1,-3,1,-7,1,-9,1,-9,1,-9,1
1135,1,1,-5,1,-6,1,2,1,3,1,-5,1,-3,1,-4,1,-8,1,-10,1,-10,1,-9,1
1136,1,1,-7,1,-8,1,3,1,4,1,-7,1,-2,1,-5,1,-9,1,-10,1,-10,1,-10,1
1137,0,1,-8,1,-8,1,4,1,4,1,-8,1,-2,1,-5,1,-9,1,-10,1,-11,1,-10,1
1138,0,1,-8,1,-8,1,4,1,4,1,-8,1,-2,1,-6,1,-9,1,-11,1,-11,1,-10,1
1139,0,1,-8,1,-8,1,4,1,4,1,-8,1,-1,1,-5,1,-10,1,-12,1,-12,1,-10,1
1140,0,1,-9,1,-9,1,4,1,4,1,-9,1,-1,1,-5,1,-10,1,-13,1,-12,1,-10,1
1141,0,1,-9,1,-9,1,4,1,4,1,-9,1,-2,1,-6,1,-11,1,-13,1,-12,1,-11,1
1142,0,1,-9,1,-9,1,4,1,4,1,-9,1,-2,1,-6,1,-11,1,-13,1,-12,1,-12,1
1143,-1,1,-9,1,-8,1,5,1,3,1,-9,1,-2,1,-6,1,-12,1,-14,1,-12,1,-12,1
1144,-4,1,-11,1,-7,1,7,1,1,1,-9,1,-1,1,-6,1,-12,1,-14,1,-13,1,-12,1
1145,-5,1,-13,1,-8,1,9,1,1,1,-11,1,-1,1,-7,1,-12,1,-15,1,-14,1,-13,1
1146,-6,1,-14,1,-8,1,10,1,1,1,-11,1,-2,1,-8,1,-13,1,-16,1,-15,1,-14,1
1147,-8,1,-16,1,-8,1,12,1,0,1,-12,1,-3,1,-9,1,-15,1,-17,1,-16,1,-16,1
1148,-9,1,-16,1,-7,1,12,1,-1,1,-12,1,-4,1,-9,1,-15,1,-17,1,-18,1,-17,1
1149,-9,1,-16,1,-7,1,12,1,-1,1,-12,1,-4,1,-10,1,-15,1,-18,1,-18,1,-16,1
1150,-8,1,-16,1,-8,1,12,1,0,1,-12,1,-3,1,-10,1,-15,1,-18,1,-18,1,-16,1
1151,-9,1,-17,1,-8,1,13,1,-1,1,-13,1,-3,1,-9,1,-15,1,-18,1,-18,1,-16,1
1152,-13,1,-20,1,-7,1,16,1,-3,1,-14,1,-3,1,-11,1,-17,1,-19,1,-19,1,-17,1
1153,-17,1,-25,1,-8,1,21,1,-5,1,-17,1,-6,1,-12,1,-18,1,-20,1,-21,1,-20,1
1154,-22,1,-29,1,-7,1,25,1,-8,1,-18,1,-7,1,-13,1,-19,1,-21,1,-22,1,-22,1
1155,-23,1,-30,1,-7,1,26,1,-8,1,-19,1,-7,1,-14,1,-19,1,-21,1,-23,1,-23,1
1156,-22,1,-30,1,-8,1,26,1,-7,1,-19,1,-8,1,-15,1,-21,1,-22,1,-24,1,-24,1
1157,-21,1,-29,1,-8,1,25,1,-7,1,-19,1,-9,1,-16,1,-21,1,-23,1,-25,1,-24,1
1158,-19,1,-28,1,-9,1,23,1,-5,1,-19,1,-8,1,-16,1,-21,1,-23,1,-25,1,-24,1
1159,-19,1,-26,1,-7,1,22,1,-6,1,-17,1,-8,1,-15,1,-21,1,-22,1,-25,1,-23,1
1160,-18,1,-26,1,-8,1,22,1,-5,1,-17,1,-7,1,-15,1,-21,1,-23,1,-24,1,-24,1
1161,-18,1,-24,1,-6,1,21,1,-6,1,-15,1,-7,1,-14,1,-20,1,-23,1,-25,1,-23,1
1162,-15,1,-20,1,-5,1,17,1,-5,1,-13,1,-6,1,-13,1,-19,1,-21,1,-24,1,-21,1
1163,-10,1,-16,1,-6,1,13,1,-2,1,-11,1,-5,1,-12,1,-17,1,-20,1,-21,1,-19,1
1164,-7,1,-14,1,-7,1,10,1,0,1,-11,1,-4,1,-11,1,-17,1,-20,1,-20,1,-18,1
1165,-7,1,-14,1,-7,1,10,1,0,1,-11,1,-3,1,-11,1,-16,1,-20,1,-19,1,-18,1
1166,-9,1,-16,1,-7,1,12,1,-1,1,-12,1,-2,1,-12,1,-17,1,-20,1,-20,1,-17,1
1167,-11,1,-20,1,-9,1,15,1,-1,1,-15,1,-1,1,-12,1,-17,1,-20,1,-20,1,-18,1
1168,-16,1,-26,1,-10,1,21,1,-3,1,-18,1,-1,1,-13,1,-18,1,-21,1,-20,1,-19,1
1169,-19,1,-31,1,-12,1,25,1,-4,1,-22,1,-2,1,-14,1,-19,1,-21,1,-21,1,-20,1
1170,-22,1,-33,1,-11,1,27,1,-6,1,-22,1,-3,1,-15,1,-21,1,-21,1,-22,1,-20,1
1171,-24,1,-33,1,-9,1,28,1,-8,1,-21,1,-4,1,-15,1,-22,1,-22,1,-23,1,-21,1
1172,-23,1,-31,1,-8,1,27,1,-8,1,-20,1,-4,1,-15,1,-22,1,-22,1,-23,1,-21,1
1173,-21,1,-28,1,-7,1,24,1,-7,1,-18,1,-5,1,-14,1,-20,1,-22,1,-23,1,-21,1
1174,-19,1,-26,1,-7,1,22,1,-6,1,-17,1,-3,1,-12,1,-19,1,-21,1,-24,1,-23,1
1175,-18,1,-21,1,-3,1,19,1,-8,1,-12,1,-1,1,-9,1,-17,1,-19,1,-22,1,-23,1
1176,-18,1,-18,1,0,1,18,1,-9,1,-9,1,1,1,-6,1,-14,1,-17,1,-22,1,-22,1
1177,-17,1,-17,1,0,1,17,1,-9,1,-9,1,2,1,-3,1,-9,1,-15,1,-20,1,-22,1
1178,-16,1,-16,1,0,1,16,1,-8,1,-8,1,5,1,1,1,-4,1,-11,1,-18,1,-20,1
1179,-13,1,-14,1,-1,1,13,1,-6,1,-8,1,6,1,9,1,5,1,-5,1,-14,1,-18,1
1180,-9,1,-13,1,-4,1,11,1,-3,1,-9,1,10,1,20,1,17,1,4,1,-9,1,-15,1
1181,-5,1,-13,1,-8,1,9,1,1,1,-11,1,12,1,32,1,29,1,15,1,-1,1,-12,1
1182,0,1,-14,1,-14,1,7,1,7,1,-14,1,14,1,47,1,45,1,27,1,8,1,-7,1
1183,4,1,-14,1,-18,1,5,1,11,1,-16,1,16,1,65,1,65,1,43,1,21,1,0,1
1184,9,1,-15,1,-24,1,3,1,16,1,-19,1,15,1,86,1,87,1,63,1,37,1,9,1
1185,17,1,-14,1,-31,1,-1,1,24,1,-22,1,13,1,106,1,111,1,83,1,57,1,21,1
1186,29,1,-12,1,-41,1,-8,1,35,1,-26,1,11,1,122,1,133,1,105,1,78,1,36,1
1187,43,1,-8,1,-51,1,-17,1,47,1,-29,1,6,1,132,1,151,1,125,1,99,1,50,1
1188,57,1,-4,1,-61,1,-26,1,59,1,-32,1,0,1,136,1,165,1,143,1,117,1,64,1
1189,73,1,2,1,-71,1,-37,1,72,1,-34,1,-6,1,136,1,173,1,156,1,133,1,75,1
1190,88,1,11,1,-77,1,-49,1,83,1,-33,1,-12,1,130,1,172,1,161,1,140,1,83,1
1191,99,1,20,1,-79,1,-59,1,89,1,-29,1,-20,1,115,1,160,1,155,1,138,1,84,1
1192,103,1,32,1,-71,1,-67,1,87,1,-19,1,-30,1,90,1,137,1,140,1,130,1,82,1
1193,102,1,44,1,-58,1,-73,1,80,1,-7,1,-41,1,56,1,103,1,118,1,117,1,78,1
1194,98,1,58,1,-40,1,-78,1,69,1,9,1,-52,1,15,1,63,1,92,1,103,1,76,1
1195,96,1,70,1,-26,1,-83,1,61,1,22,1,-65,1,-31,1,19,1,61,1,84,1,71,1
1196,93,1,75,1,-18,1,-84,1,56,1,29,1,-84,1,-83,1,-30,1,24,1,59,1,64,1
1197,85,1,72,1,-13,1,-78,1,49,1,30,1,-103,1,-136,1,-82,1,-17,1,31,1,53,1
1198,71,1,61,1,-10,1,-66,1,41,1,26,1,-120,1,-184,1,-134,1,-59,1,-2,1,36,1
1199,52,1,43,1,-9,1,-47,1,31,1,17,1,-135,1,-223,1,-178,1,-98,1,-33,1,17,1
1200,32,1,28,1,-4,1,-30,1,18,1,12,1,-145,1,-248,1,-211,1,-128,1,-60,1,-2,1
1201,14,1,16,1,2,1,-15,1,6,1,9,1,-149,1,-258,1,-230,1,-147,1,-79,1,-18,1
1202,4,1,6,1,2,1,-5,1,1,1,4,1,-149,1,-258,1,-236,1,-157,1,-91,1,-31,1
1203,-1,1,-2,1,-1,1,1,1,0,1,-2,1,-147,1,-252,1,-234,1,-162,1,-97,1,-41,1
1204,-3,1,-9,1,-6,1,6,1,1,1,-8,1,-143,1,-244,1,-228,1,-162,1,-101,1,-47,1
1205,-5,1,-16,1,-11,1,10,1,3,1,-14,1,-137,1,-235,1,-221,1,-158,1,-101,1,-49,1
1206,-6,1,-21,1,-15,1,13,1,4,1,-18,1,-129,1,-226,1,-212,1,-155,1,-101,1,-49,1
1207,-7,1,-23,1,-16,1,15,1,4,1,-20,1,-119,1,-213,1,-202,1,-152,1,-101,1,-48,1
1208,-7,1,-22,1,-15,1,14,1,4,1,-19,1,-108,1,-197,1,-189,1,-147,1,-100,1,-49,1
1209,-7,1,-22,1,-15,1,14,1,4,1,-19,1,-97,1,-179,1,-175,1,-141,1,-99,1,-50,1
1210,-10,1,-24,1,-14,1,17,1,2,1,-19,1,-87,1,-160,1,-161,1,-132,1,-97,1,-50,1
1211,-12,1,-25,1,-13,1,18,1,0,1,-19,1,-77,1,-141,1,-145,1,-121,1,-93,1,-50,1
1212,-11,1,-24,1,-13,1,17,1,1,1,-19,1,-69,1,-124,1,-129,1,-109,1,-87,1,-49,1
1213,-10,1,-23,1,-13,1,16,1,1,1,-18,1,-61,1,-109,1,-114,1,-97,1,-80,1,-46,1
1214,-9,1,-22,1,-13,1,15,1,2,1,-18,1,-54,1,-98,1,-103,1,-88,1,-72,1,-44,1
1215,-9,1,-22,1,-13,1,15,1,2,1,-18,1,-48,1,-91,1,-95,1,-80,1,-64,1,-42,1
1216,-9,1,-22,1,-13,1,15,1,2,1,-18,1,-43,1,-87,1,-89,1,-77,1,-61,1,-41,1
1217,-9,1,-22,1,-13,1,15,1,2,1,-18,1,-36,1,-82,1,-85,1,-74,1,-58,1,-39,1
1218,-9,1,-23,1,-14,1,16,1,2,1,-19,1,-30,1,-75,1,-79,1,-71,1,-57,1,-38,1
1219,-10,1,-22,1,-12,1,16,1,1,1,-17,1,-23,1,-64,1,-72,1,-66,1,-55,1,-36,1
1220,-11,1,-22,1,-11,1,16,1,0,1,-17,1,-20,1,-51,1,-63,1,-59,1,-53,1,-34,1
1221,-12,1,-22,1,-10,1,17,1,-1,1,-16,1,-17,1,-39,1,-52,1,-52,1,-48,1,-32,1
1222,-13,1,-22,1,-9,1,17,1,-2,1,-16,1,-16,1,-29,1,-42,1,-44,1,-41,1,-30,1
1223,-15,1,-22,1,-7,1,18,1,-4,1,-15,1,-14,1,-22,1,-32,1,-36,1,-35,1,-28,1
1224,-17,1,-24,1,-7,1,20,1,-5,1,-16,1,-12,1,-20,1,-26,1,-29,1,-30,1,-26,1
1225,-19,1,-25,1,-6,1,22,1,-7,1,-16,1,-11,1,-21,1,-26,1,-27,1,-29,1,-25,1
1226,-20,1,-26,1,-6,1,23,1,-7,1,-16,1,-9,1,-21,1,-26,1,-27,1,-28,1,-24,1
1227,-22,1,-27,1,-5,1,24,1,-9,1,-16,1,-6,1,-21,1,-27,1,-27,1,-28,1,-22,1
1228,-21,1,-27,1,-6,1,24,1,-8,1,-17,1,-4,1,-18,1,-26,1,-27,1,-27,1,-20,1
1229,-19,1,-27,1,-8,1,23,1,-6,1,-18,1,-2,1,-14,1,-23,1,-25,1,-27,1,-18,1
1230,-17,1,-24,1,-7,1,20,1,-5,1,-16,1,0,1,-8,1,-20,1,-23,1,-24,1,-18,1
1231,-16,1,-23,1,-7,1,19,1,-5,1,-15,1,1,1,-2,1,-15,1,-19,1,-22,1,-17,1
1232,-16,1,-23,1,-7,1,19,1,-5,1,-15,1,2,1,0,1,-12,1,-16,1,-20,1,-16,1
1233,-17,1,-23,1,-6,1,20,1,-6,1,-15,1,4,1,1,1,-10,1,-13,1,-19,1,-15,1
1234,-16,1,-23,1,-7,1,19,1,-5,1,-15,1,4,1,0,1,-9,1,-13,1,-19,1,-15,1
1235,-16,1,-23,1,-7,1,19,1,-5,1,-15,1,3,1,-1,1,-9,1,-13,1,-18,1,-15,1
1236,-15,1,-23,1,-8,1,19,1,-4,1,-16,1,3,1,-1,1,-9,1,-13,1,-18,1,-14,1
1237,-16,1,-22,1,-6,1,19,1,-5,1,-14,1,3,1,-1,1,-9,1,-13,1,-18,1,-13,1
1238,-15,1,-22,1,-7,1,18,1,-4,1,-15,1,4,1,0,1,-9,1,-12,1,-18,1,-12,1
1239,-15,1,-21,1,-6,1,18,1,-5,1,-14,1,5,1,0,1,-9,1,-12,1,-18,1,-12,1
1240,-14,1,-21,1,-7,1,17,1,-4,1,-14,1,6,1,0,1,-9,1,-11,1,-17,1,-11,1
1241,-12,1,-19,1,-7,1,15,1,-3,1,-13,1,7,1,1,1,-7,1,-11,1,-16,1,-11,1
1242,-8,1,-16,1,-8,1,12,1,0,1,-12,1,7,1,3,1,-6,1,-9,1,-14,1,-10,1
1243,-5,1,-12,1,-7,1,8,1,1,1,-10,1,6,1,4,1,-4,1,-7,1,-13,1,-10,1
1244,-4,1,-11,1,-7,1,7,1,1,1,-9,1,5,1,6,1,-4,1,-7,1,-13,1,-9,1
1245,-5,1,-11,1,-6,1,8,1,0,1,-9,1,5,1,6,1,-3,1,-6,1,-12,1,-9,1
1246,-5,1,-11,1,-6,1,8,1,0,1,-9,1,6,1,7,1,-3,1,-6,1,-11,1,-9,1
1247,-4,1,-10,1,-6,1,7,1,1,1,-8,1,7,1,8,1,-2,1,-4,1,-10,1,-7,1
1248,-4,1,-9,1,-5,1,6,1,0,1,-7,1,9,1,10,1,0,1,-3,1,-8,1,-5,1
1249,-4,1,-10,1,-6,1,7,1,1,1,-8,1,8,1,10,1,0,1,-3,1,-8,1,-5,1
1250,-9,1,-14,1,-5,1,11,1,-2,1,-10,1,7,1,9,1,0,1,-4,1,-8,1,-6,1
1251,-14,1,-21,1,-7,1,17,1,-4,1,-14,1,7,1,9,1,0,1,-4,1,-8,1,-7,1
1252,-16,1,-25,1,-9,1,20,1,-4,1,-17,1,7,1,9,1,0,1,-4,1,-8,1,-7,1
1253,-16,1,-26,1,-10,1,21,1,-3,1,-18,1,8,1,9,1,0,1,-4,1,-8,1,-7,1
1254,-15,1,-26,1,-11,1,20,1,-2,1,-19,1,8,1,9,1,0,1,-3,1,-8,1,-7,1
1255,-14,1,-25,1,-11,1,19,1,-2,1,-18,1,8,1,9,1,-1,1,-3,1,-9,1,-7,1
1256,-13,1,-24,1,-11,1,18,1,-1,1,-18,1,8,1,8,1,-1,1,-3,1,-10,1,-8,1
1257,-11,1,-24,1,-13,1,17,1,1,1,-19,1,7,1,8,1,-2,1,-4,1,-11,1,-9,1
1258,-11,1,-23,1,-12,1,17,1,0,1,-18,1,7,1,8,1,0,1,-3,1,-11,1,-9,1
1259,-10,1,-21,1,-11,1,15,1,0,1,-16,1,7,1,8,1,0,1,-3,1,-11,1,-9,1
1260,-10,1,-19,1,-9,1,14,1,-1,1,-14,1,7,1,9,1,1,1,-1,1,-10,1,-8,1
1261,-11,1,-18,1,-7,1,14,1,-2,1,-13,1,7,1,11,1,2,1,-1,1,-10,1,-8,1
1262,-10,1,-16,1,-6,1,13,1,-2,1,-11,1,6,1,12,1,3,1,0,1,-10,1,-7,1
1263,-9,1,-14,1,-5,1,11,1,-2,1,-10,1,6,1,12,1,4,1,1,1,-9,1,-6,1
1264,-8,1,-14,1,-6,1,11,1,-1,1,-10,1,7,1,13,1,5,1,1,1,-8,1,-6,1
1265,-6,1,-14,1,-8,1,10,1,1,1,-11,1,7,1,14,1,6,1,2,1,-8,1,-6,1
1266,-5,1,-14,1,-9,1,9,1,2,1,-12,1,7,1,15,1,6,1,2,1,-8,1,-7,1
1267,-6,1,-15,1,-9,1,10,1,1,1,-12,1,7,1,17,1,7,1,2,1,-7,1,-7,1
1268,-7,1,-18,1,-11,1,12,1,2,1,-15,1,6,1,17,1,7,1,2,1,-7,1,-6,1
1269,-7,1,-18,1,-11,1,12,1,2,1,-15,1,6,1,17,1,7,1,3,1,-7,1,-5,1
1270,-5,1,-16,1,-11,1,10,1,3,1,-14,1,7,1,17,1,7,1,4,1,-6,1,-4,1
1271,-2,1,-12,1,-10,1,7,1,4,1,-11,1,7,1,19,1,9,1,5,1,-5,1,-2,1
1272,-2,1,-12,1,-10,1,7,1,4,1,-11,1,9,1,19,1,9,1,6,1,-3,1,-2,1
1273,-2,1,-12,1,-10,1,7,1,4,1,-11,1,10,1,19,1,9,1,7,1,-3,1,-1,1
1274,-3,1,-11,1,-8,1,7,1,2,1,-10,1,11,1,19,1,9,1,7,1,-2,1,-1,1
1275,-3,1,-11,1,-8,1,7,1,2,1,-10,1,10,1,19,1,9,1,8,1,-2,1,-1,1
1276,-3,1,-10,1,-7,1,6,1,2,1,-9,1,9,1,19,1,9,1,8,1,-1,1,0,1
1277,-2,1,-10,1,-8,1,6,1,3,1,-9,1,9,1,20,1,10,1,8,1,-1,1,0,1
1278,-3,1,-11,1,-8,1,7,1,2,1,-10,1,9,1,20,1,10,1,9,1,-1,1,0,1
1279,-4,1,-13,1,-9,1,8,1,2,1,-11,1,9,1,21,1,11,1,9,1,-1,1,1,1
1280,-3,1,-13,1,-10,1,8,1,3,1,-12,1,9,1,22,1,12,1,9,1,0,1,2,1
1281,-3,1,-14,1,-11,1,8,1,4,1,-13,1,8,1,22,1,13,1,10,1,0,1,2,1
1282,-4,1,-16,1,-12,1,10,1,4,1,-14,1,8,1,22,1,13,1,10,1,1,1,2,1
1283,-4,1,-18,1,-14,1,11,1,5,1,-16,1,7,1,22,1,14,1,10,1,1,1,2,1
1284,-3,1,-19,1,-16,1,11,1,6,1,-18,1,7,1,25,1,16,1,11,1,1,1,3,1
1285,-3,1,-19,1,-16,1,11,1,6,1,-18,1,7,1,26,1,17,1,13,1,3,1,4,1
1286,-2,1,-18,1,-16,1,10,1,7,1,-17,1,8,1,27,1,18,1,14,1,5,1,6,1
1287,-2,1,-17,1,-15,1,9,1,6,1,-16,1,8,1,28,1,19,1,15,1,5,1,6,1
1288,-1,1,-15,1,-14,1,8,1,6,1,-15,1,8,1,28,1,19,1,15,1,6,1,7,1
1289,1,1,-14,1,-15,1,6,1,8,1,-14,1,8,1,28,1,19,1,15,1,6,1,7,1
1290,3,1,-13,1,-16,1,5,1,9,1,-14,1,8,1,29,1,21,1,16,1,8,1,8,1
1291,4,1,-12,1,-16,1,4,1,10,1,-14,1,9,1,30,1,22,1,17,1,8,1,8,1
1292,5,1,-11,1,-16,1,3,1,10,1,-13,1,9,1,31,1,23,1,18,1,8,1,9,1
1293,6,1,-10,1,-16,1,2,1,11,1,-13,1,9,1,32,1,24,1,19,1,9,1,9,1
1294,8,1,-8,1,-16,1,0,1,12,1,-12,1,9,1,32,1,24,1,19,1,9,1,10,1
1295,9,1,-6,1,-15,1,-1,1,12,1,-10,1,8,1,33,1,26,1,21,1,10,1,10,1
1296,11,1,-4,1,-15,1,-3,1,13,1,-9,1,8,1,34,1,26,1,22,1,10,1,10,1
1297,13,1,-2,1,-15,1,-5,1,14,1,-8,1,9,1,35,1,27,1,22,1,11,1,10,1
1298,13,1,-2,1,-15,1,-5,1,14,1,-8,1,8,1,36,1,28,1,23,1,11,1,10,1
1299,11,1,-2,1,-13,1,-4,1,12,1,-7,1,7,1,37,1,29,1,23,1,12,1,10,1
1300,11,1,-3,1,-14,1,-4,1,12,1,-8,1,7,1,37,1,30,1,22,1,12,1,11,1
1301,11,1,-3,1,-14,1,-4,1,12,1,-8,1,7,1,38,1,30,1,22,1,12,1,11,1
1302,10,1,-5,1,-15,1,-2,1,12,1,-10,1,6,1,38,1,31,1,22,1,12,1,11,1
1303,8,1,-6,1,-14,1,-1,1,11,1,-10,1,6,1,38,1,31,1,22,1,12,1,12,1
1304,8,1,-6,1,-14,1,-1,1,11,1,-10,1,5,1,40,1,32,1,23,1,13,1,13,1
1305,9,1,-4,1,-13,1,-2,1,11,1,-8,1,5,1,40,1,33,1,25,1,14,1,14,1
1306,11,1,0,1,-11,1,-5,1,11,1,-5,1,5,1,42,1,34,1,27,1,15,1,15,1
1307,12,1,0,1,-12,1,-6,1,12,1,-6,1,5,1,43,1,34,1,28,1,17,1,16,1
1308,13,1,1,1,-12,1,-7,1,13,1,-5,1,5,1,44,1,35,1,29,1,17,1,17,1
1309,13,1,2,1,-11,1,-7,1,12,1,-4,1,5,1,46,1,36,1,29,1,18,1,19,1
1310,15,1,3,1,-12,1,-9,1,14,1,-4,1,6,1,47,1,38,1,30,1,21,1,20,1
1311,17,1,3,1,-14,1,-10,1,16,1,-5,1,7,1,47,1,39,1,30,1,22,1,22,1
1312,18,1,3,1,-15,1,-10,1,17,1,-6,1,8,1,47,1,39,1,30,1,22,1,22,1
1313,18,1,3,1,-15,1,-10,1,17,1,-6,1,8,1,47,1,39,1,30,1,23,1,23,1
1314,19,1,3,1,-16,1,-11,1,18,1,-6,1,8,1,47,1,38,1,29,1,23,1,23,1
1315,19,1,3,1,-16,1,-11,1,18,1,-6,1,9,1,47,1,38,1,29,1,23,1,24,1
1316,17,1,1,1,-16,1,-9,1,17,1,-7,1,8,1,47,1,37,1,29,1,23,1,23,1
1317,15,1,0,1,-15,1,-7,1,15,1,-7,1,7,1,46,1,36,1,29,1,22,1,23,1
1318,14,1,0,1,-14,1,-7,1,14,1,-7,1,6,1,46,1,35,1,28,1,22,1,23,1
1319,15,1,1,1,-14,1,-8,1,15,1,-6,1,6,1,46,1,35,1,28,1,22,1,23,1
1320,17,1,2,1,-15,1,-9,1,16,1,-6,1,7,1,45,1,35,1,28,1,21,1,24,1
1321,17,1,4,1,-13,1,-10,1,15,1,-4,1,8,1,45,1,34,1,27,1,21,1,24,1
1322,17,1,4,1,-13,1,-10,1,15,1,-4,1,8,1,44,1,34,1,27,1,20,1,23,1
1323,14,1,2,1,-12,1,-8,1,13,1,-5,1,7,1,43,1,33,1,26,1,19,1,22,1
1324,12,1,3,1,-9,1,-7,1,11,1,-3,1,7,1,43,1,32,1,25,1,18,1,21,1
1325,11,1,5,1,-6,1,-8,1,9,1,0,1,7,1,43,1,31,1,25,1,18,1,21,1
1326,12,1,7,1,-5,1,-9,1,9,1,1,1,6,1,41,1,30,1,25,1,18,1,21,1
1327,15,1,8,1,-7,1,-11,1,11,1,1,1,6,1,40,1,30,1,24,1,19,1,20,1
1328,20,1,11,1,-9,1,-15,1,15,1,1,1,6,1,40,1,30,1,23,1,18,1,20,1
1329,22,1,13,1,-9,1,-17,1,16,1,2,1,6,1,40,1,30,1,23,1,18,1,20,1
1330,23,1,15,1,-8,1,-19,1,16,1,4,1,6,1,40,1,30,1,23,1,19,1,21,1
1331,23,1,15,1,-8,1,-19,1,16,1,4,1,7,1,40,1,30,1,23,1,19,1,21,1
1332,22,1,17,1,-5,1,-19,1,14,1,6,1,5,1,39,1,29,1,22,1,17,1,21,1
1333,22,1,18,1,-4,1,-20,1,13,1,7,1,5,1,39,1,29,1,22,1,17,1,22,1
1334,23,1,19,1,-4,1,-21,1,14,1,8,1,4,1,39,1,29,1,22,1,17,1,22,1
1335,22,1,20,1,-2,1,-21,1,12,1,9,1,4,1,39,1,27,1,22,1,17,1,22,1
1336,20,1,18,1,-2,1,-19,1,11,1,8,1,3,1,38,1,27,1,22,1,16,1,21,1
1337,19,1,15,1,-4,1,-17,1,12,1,6,1,3,1,37,1,25,1,20,1,15,1,19,1
1338,17,1,13,1,-4,1,-15,1,11,1,5,1,3,1,36,1,24,1,20,1,15,1,18,1
1339,16,1,12,1,-4,1,-14,1,10,1,4,1,3,1,34,1,23,1,20,1,14,1,15,1
1340,14,1,11,1,-3,1,-12,1,9,1,4,1,4,1,33,1,22,1,20,1,12,1,14,1
1341,12,1,9,1,-3,1,-10,1,8,1,3,1,4,1,31,1,20,1,18,1,11,1,13,1
1342,11,1,8,1,-3,1,-9,1,7,1,3,1,4,1,28,1,18,1,17,1,9,1,12,1
1343,11,1,9,1,-2,1,-10,1,7,1,4,1,4,1,26,1,16,1,15,1,7,1,12,1
1344,11,1,9,1,-2,1,-10,1,7,1,4,1,6,1,25,1,15,1,15,1,7,1,11,1
1345,12,1,10,1,-2,1,-11,1,7,1,4,1,7,1,25,1,14,1,14,1,5,1,10,1
1346,9,1,9,1,0,1,-9,1,5,1,5,1,7,1,24,1,14,1,13,1,4,1,10,1
1347,6,1,9,1,3,1,-7,1,2,1,6,1,8,1,24,1,13,1,13,1,4,1,10,1
1348,4,1,9,1,5,1,-6,1,0,1,7,1,8,1,23,1,13,1,12,1,5,1,8,1
1349,3,1,8,1,5,1,-5,1,-1,1,7,1,7,1,22,1,13,1,12,1,4,1,7,1
1350,2,1,6,1,4,1,-4,1,-1,1,5,1,6,1,21,1,12,1,11,1,4,1,6,1
1351,-1,1,3,1,4,1,-1,1,-2,1,3,1,6,1,20,1,11,1,11,1,4,1,6,1
1352,-4,1,0,1,4,1,2,1,-4,1,2,1,6,1,19,1,11,1,11,1,3,1,6,1
1353,-6,1,-2,1,4,1,4,1,-5,1,1,1,6,1,18,1,10,1,12,1,3,1,6,1
1354,-8,1,-4,1,4,1,6,1,-6,1,0,1,5,1,16,1,8,1,11,1,2,1,6,1
1355,-8,1,-5,1,3,1,6,1,-6,1,-1,1,5,1,14,1,7,1,10,1,2,1,6,1
1356,-6,1,-2,1,4,1,4,1,-5,1,1,1,5,1,14,1,7,1,10,1,2,1,6,1
1357,-5,1,2,1,7,1,1,1,-6,1,4,1,6,1,14,1,6,1,11,1,2,1,6,1
1358,-3,1,6,1,9,1,-1,1,-6,1,7,1,8,1,14,1,6,1,11,1,2,1,6,1
1359,-2,1,10,1,12,1,-4,1,-7,1,11,1,9,1,13,1,6,1,12,1,1,1,5,1
1360,-2,1,11,1,13,1,-4,1,-7,1,12,1,9,1,11,1,5,1,9,1,0,1,4,1
1361,-1,1,12,1,13,1,-5,1,-7,1,12,1,8,1,9,1,3,1,7,1,-1,1,2,1
1362,-1,1,12,1,13,1,-5,1,-7,1,12,1,6,1,8,1,1,1,5,1,-3,1,1,1
1363,-5,1,9,1,14,1,-2,1,-9,1,11,1,5,1,7,1,0,1,4,1,-4,1,0,1
1364,-9,1,4,1,13,1,2,1,-11,1,8,1,4,1,6,1,-1,1,4,1,-7,1,-1,1
1365,-13,1,-1,1,12,1,7,1,-13,1,5,1,3,1,5,1,-2,1,2,1,-8,1,-4,1
1366,-15,1,-4,1,11,1,9,1,-13,1,3,1,2,1,4,1,-3,1,2,1,-9,1,-5,1
1367,-13,1,-3,1,10,1,8,1,-12,1,3,1,1,1,4,1,-3,1,2,1,-9,1,-6,1
1368,-13,1,-1,1,12,1,7,1,-13,1,5,1,1,1,4,1,-2,1,2,1,-8,1,-5,1
1369,-14,1,-1,1,13,1,7,1,-14,1,6,1,2,1,3,1,-3,1,2,1,-9,1,-5,1
1370,-14,1,0,1,14,1,7,1,-14,1,7,1,1,1,2,1,-5,1,2,1,-10,1,-7,1
1371,-9,1,5,1,14,1,2,1,-11,1,9,1,3,1,2,1,-6,1,2,1,-10,1,-7,1
1372,-3,1,14,1,17,1,-5,1,-10,1,15,1,5,1,3,1,-6,1,3,1,-9,1,-6,1
1373,3,1,20,1,17,1,-11,1,-7,1,19,1,7,1,4,1,-4,1,4,1,-8,1,-5,1
1374,9,1,25,1,16,1,-17,1,-3,1,21,1,8,1,4,1,-4,1,5,1,-7,1,-5,1
1375,9,1,25,1,16,1,-17,1,-3,1,21,1,8,1,4,1,-4,1,4,1,-8,1,-5,1
1376,7,1,22,1,15,1,-14,1,-4,1,19,1,7,1,3,1,-4,1,4,1,-8,1,-5,1
1377,3,1,18,1,15,1,-10,1,-6,1,17,1,6,1,2,1,-4,1,2,1,-8,1,-6,1
1378,-2,1,11,1,13,1,-4,1,-7,1,12,1,5,1,1,1,-5,1,1,1,-10,1,-6,1
1379,-8,1,5,1,13,1,1,1,-10,1,9,1,4,1,0,1,-6,1,1,1,-11,1,-6,1
1380,-13,1,1,1,14,1,6,1,-13,1,7,1,2,1,0,1,-7,1,1,1,-12,1,-7,1
1381,-16,1,0,1,16,1,8,1,-16,1,8,1,2,1,0,1,-7,1,0,1,-12,1,-7,1
1382,-17,1,0,1,17,1,8,1,-17,1,8,1,0,1,0,1,-7,1,0,1,-12,1,-7,1
1383,-17,1,1,1,18,1,8,1,-17,1,9,1,-1,1,0,1,-8,1,-1,1,-13,1,-8,1
1384,-14,1,2,1,16,1,6,1,-15,1,9,1,0,1,0,1,-7,1,0,1,-12,1,-7,1
1385,-12,1,3,1,15,1,4,1,-13,1,9,1,0,1,2,1,-5,1,1,1,-10,1,-5,1
1386,-12,1,4,1,16,1,4,1,-14,1,10,1,1,1,2,1,-5,1,2,1,-9,1,-5,1
1387,-11,1,4,1,15,1,3,1,-13,1,9,1,2,1,2,1,-4,1,2,1,-9,1,-4,1
1388,-10,1,4,1,14,1,3,1,-12,1,9,1,4,1,2,1,-3,1,2,1,-8,1,-3,1
1389,-8,1,6,1,14,1,1,1,-11,1,10,1,7,1,3,1,-1,1,3,1,-7,1,-1,1
1390,-7,1,7,1,14,1,0,1,-10,1,10,1,8,1,5,1,0,1,5,1,-6,1,0,1
1391,-7,1,8,1,15,1,0,1,-11,1,11,1,8,1,6,1,0,1,6,1,-5,1,0,1
1392,-5,1,10,1,15,1,-2,1,-10,1,12,1,9,1,7,1,1,1,6,1,-5,1,0,1
1393,-2,1,13,1,15,1,-5,1,-8,1,14,1,9,1,7,1,1,1,6,1,-5,1,1,1
1394,-2,1,14,1,16,1,-6,1,-9,1,15,1,8,1,6,1,1,1,7,1,-5,1,0,1
1395,-3,1,13,1,16,1,-5,1,-9,1,14,1,8,1,6,1,2,1,7,1,-6,1,0,1
1396,-5,1,12,1,17,1,-3,1,-11,1,14,1,6,1,6,1,2,1,7,1,-7,1,0,1
1397,-5,1,11,1,16,1,-3,1,-10,1,13,1,5,1,7,1,2,1,7,1,-6,1,0,1
1398,-5,1,11,1,16,1,-3,1,-10,1,13,1,5,1,7,1,2,1,7,1,-6,1,-1,1
1399,-5,1,10,1,15,1,-2,1,-10,1,12,1,4,1,7,1,2,1,8,1,-5,1,-1,1
1400,-7,1,10,1,17,1,-1,1,-12,1,13,1,3,1,7,1,1,1,8,1,-5,1,-3,1
1401,-10,1,9,1,19,1,0,1,-14,1,14,1,3,1,6,1,1,1,8,1,-5,1,-4,1
1402,-11,1,6,1,17,1,2,1,-14,1,11,1,2,1,6,1,1,1,8,1,-6,1,-4,1
1403,-12,1,5,1,17,1,3,1,-14,1,11,1,2,1,6,1,1,1,8,1,-6,1,-4,1
1404,-12,1,5,1,17,1,3,1,-14,1,11,1,2,1,7,1,2,1,8,1,-6,1,-3,1
1405,-10,1,8,1,18,1,1,1,-14,1,13,1,3,1,7,1,2,1,8,1,-6,1,-2,1
1406,-8,1,11,1,19,1,-1,1,-13,1,15,1,3,1,8,1,3,1,8,1,-5,1,-2,1
1407,-7,1,11,1,18,1,-2,1,-12,1,14,1,5,1,8,1,3,1,9,1,-5,1,-1,1
1408,-6,1,13,1,19,1,-3,1,-12,1,16,1,5,1,8,1,3,1,9,1,-5,1,-1,1
1409,-4,1,13,1,17,1,-4,1,-10,1,15,1,5,1,10,1,3,1,9,1,-4,1,-1,1
1410,-1,1,15,1,16,1,-7,1,-8,1,15,1,5,1,10,1,4,1,9,1,-4,1,-1,1
1411,0,1,16,1,16,1,-8,1,-8,1,16,1,5,1,11,1,5,1,9,1,-3,1,0,1
1412,1,1,17,1,16,1,-9,1,-7,1,17,1,6,1,11,1,5,1,10,1,-1,1,0,1
1413,0,1,19,1,19,1,-9,1,-9,1,19,1,5,1,11,1,5,1,11,1,-1,1,1,1
1414,-1,1,17,1,18,1,-8,1,-9,1,17,1,3,1,11,1,6,1,11,1,-2,1,1,1
1415,-1,1,13,1,14,1,-6,1,-7,1,13,1,2,1,12,1,6,1,12,1,-2,1,2,1
1416,-2,1,12,1,14,1,-5,1,-8,1,13,1,1,1,12,1,7,1,12,1,-1,1,2,1
1417,-3,1,12,1,15,1,-4,1,-9,1,13,1,1,1,11,1,6,1,11,1,-1,1,2,1
1418,-4,1,12,1,16,1,-4,1,-10,1,14,1,1,1,11,1,5,1,11,1,-2,1,1,1
1419,-5,1,12,1,17,1,-3,1,-11,1,14,1,1,1,11,1,5,1,11,1,-2,1,0,1
1420,-4,1,12,1,16,1,-4,1,-10,1,14,1,1,1,11,1,5,1,11,1,-2,1,0,1
1421,-4,1,13,1,17,1,-4,1,-10,1,15,1,1,1,10,1,6,1,11,1,-2,1,0,1
1422,-6,1,11,1,17,1,-2,1,-11,1,14,1,2,1,9,1,4,1,9,1,-4,1,-1,1
1423,-8,1,8,1,16,1,0,1,-12,1,12,1,2,1,7,1,4,1,7,1,-6,1,-3,1
1424,-8,1,6,1,14,1,1,1,-11,1,10,1,3,1,6,1,2,1,7,1,-7,1,-4,1
1425,-5,1,8,1,13,1,-1,1,-9,1,10,1,6,1,6,1,2,1,7,1,-6,1,-3,1
1426,-5,1,8,1,13,1,-1,1,-9,1,10,1,7,1,6,1,1,1,7,1,-6,1,-3,1
1427,-9,1,5,1,14,1,2,1,-11,1,9,1,5,1,4,1,-1,1,6,1,-7,1,-6,1
1428,-15,1,0,1,15,1,7,1,-15,1,7,1,3,1,2,1,-3,1,5,1,-8,1,-7,1
1429,-20,1,-3,1,17,1,11,1,-19,1,7,1,3,1,2,1,-3,1,5,1,-9,1,-8,1
1430,-21,1,-4,1,17,1,12,1,-19,1,6,1,3,1,2,1,-3,1,4,1,-9,1,-8,1
1431,-19,1,-3,1,16,1,11,1,-18,1,6,1,2,1,3,1,-2,1,3,1,-9,1,-7,1
1432,-17,1,-1,1,16,1,9,1,-17,1,7,1,2,1,2,1,-2,1,3,1,-10,1,-7,1
1433,-11,1,3,1,14,1,4,1,-12,1,8,1,1,1,2,1,-2,1,3,1,-10,1,-7,1
1434,-6,1,7,1,13,1,0,1,-9,1,10,1,1,1,3,1,-2,1,4,1,-9,1,-6,1
1435,-5,1,9,1,14,1,-2,1,-9,1,11,1,2,1,3,1,-2,1,4,1,-8,1,-5,1
1436,-7,1,9,1,16,1,-1,1,-11,1,12,1,3,1,4,1,-2,1,5,1,-8,1,-5,1
1437,-6,1,9,1,15,1,-1,1,-10,1,12,1,4,1,5,1,-1,1,6,1,-7,1,-5,1
1438,-5,1,9,1,14,1,-2,1,-9,1,11,1,4,1,5,1,-2,1,6,1,-7,1,-4,1
1439,-5,1,10,1,15,1,-2,1,-10,1,12,1,5,1,6,1,0,1,7,1,-6,1,-3,1
1440,-5,1,9,1,14,1,-2,1,-9,1,11,1,7,1,6,1,0,1,8,1,-6,1,-3,1
1441,-5,1,9,1,14,1,-2,1,-9,1,11,1,6,1,7,1,-1,1,7,1,-5,1,-3,1
1442,-5,1,8,1,13,1,-1,1,-9,1,10,1,4,1,5,1,-1,1,7,1,-6,1,-3,1
1443,-5,1,8,1,13,1,-1,1,-9,1,10,1,3,1,5,1,-2,1,7,1,-7,1,-4,1
1444,-6,1,8,1,14,1,-1,1,-10,1,11,1,3,1,5,1,-2,1,7,1,-6,1,-4,1
1445,-5,1,9,1,14,1,-2,1,-9,1,11,1,3,1,5,1,-1,1,7,1,-6,1,-4,1
1446,-5,1,10,1,15,1,-2,1,-10,1,12,1,2,1,3,1,-1,1,7,1,-6,1,-5,1
1447,-6,1,9,1,15,1,-1,1,-10,1,12,1,1,1,2,1,-2,1,6,1,-7,1,-6,1
1448,-6,1,9,1,15,1,-1,1,-10,1,12,1,0,1,1,1,-3,1,6,1,-9,1,-7,1
1449,-7,1,9,1,16,1,-1,1,-11,1,12,1,0,1,1,1,-4,1,5,1,-9,1,-8,1
1450,-7,1,8,1,15,1,0,1,-11,1,11,1,0,1,2,1,-4,1,5,1,-9,1,-7,1
1451,-8,1,7,1,15,1,0,1,-11,1,11,1,1,1,2,1,-4,1,4,1,-9,1,-6,1
1452,-11,1,7,1,18,1,2,1,-14,1,12,1,2,1,2,1,-5,1,4,1,-9,1,-6,1
1453,-10,1,7,1,17,1,1,1,-13,1,12,1,2,1,2,1,-5,1,4,1,-10,1,-5,1
1454,-9,1,7,1,16,1,1,1,-12,1,11,1,3,1,1,1,-4,1,4,1,-10,1,-5,1
1455,-8,1,8,1,16,1,0,1,-12,1,12,1,4,1,1,1,-4,1,4,1,-10,1,-5,1
1456,-10,1,5,1,15,1,2,1,-12,1,10,1,4,1,1,1,-4,1,5,1,-9,1,-5,1
1457,-15,1,1,1,16,1,7,1,-15,1,8,1,5,1,1,1,-4,1,4,1,-10,1,-5,1
1458,-18,1,-1,1,17,1,9,1,-18,1,8,1,5,1,0,1,-5,1,4,1,-11,1,-6,1
1459,-19,1,-1,1,18,1,10,1,-19,1,8,1,5,1,0,1,-5,1,3,1,-11,1,-6,1
1460,-18,1,0,1,18,1,9,1,-18,1,9,1,4,1,0,1,-5,1,3,1,-11,1,-6,1
1461,-16,1,2,1,18,1,7,1,-17,1,10,1,4,1,-1,1,-6,1,3,1,-11,1,-6,1
1462,-14,1,6,1,20,1,4,1,-17,1,13,1,4,1,0,1,-4,1,4,1,-10,1,-5,1
1463,-12,1,8,1,20,1,2,1,-16,1,14,1,5,1,1,1,-4,1,5,1,-9,1,-5,1
1464,-12,1,9,1,21,1,1,1,-16,1,15,1,4,1,1,1,-3,1,5,1,-9,1,-5,1
1465,-12,1,10,1,22,1,1,1,-17,1,16,1,4,1,2,1,-3,1,5,1,-9,1,-5,1
1466,-12,1,11,1,23,1,0,1,-17,1,17,1,5,1,3,1,-1,1,6,1,-7,1,-5,1
1467,-10,1,14,1,24,1,-2,1,-17,1,19,1,5,1,5,1,0,1,8,1,-6,1,-3,1
1468,-6,1,19,1,25,1,-6,1,-15,1,22,1,6,1,7,1,2,1,10,1,-4,1,-2,1
1469,0,1,24,1,24,1,-12,1,-12,1,24,1,8,1,8,1,4,1,12,1,-2,1,0,1
1470,6,1,28,1,22,1,-17,1,-8,1,25,1,9,1,10,1,6,1,13,1,-1,1,2,1
1471,9,1,30,1,21,1,-19,1,-6,1,26,1,10,1,11,1,7,1,14,1,-1,1,2,1
1472,5,1,27,1,22,1,-16,1,-8,1,25,1,11,1,11,1,7,1,14,1,0,1,2,1
1473,2,1,24,1,22,1,-13,1,-10,1,23,1,11,1,11,1,7,1,14,1,0,1,3,1
1474,1,1,23,1,22,1,-12,1,-10,1,23,1,11,1,13,1,8,1,15,1,1,1,4,1
1475,1,1,23,1,22,1,-12,1,-10,1,23,1,10,1,14,1,10,1,17,1,2,1,6,1
1476,4,1,23,1,19,1,-13,1,-7,1,21,1,8,1,14,1,11,1,17,1,3,1,6,1
1477,6,1,25,1,19,1,-15,1,-6,1,22,1,8,1,14,1,12,1,18,1,3,1,8,1
1478,7,1,26,1,19,1,-16,1,-6,1,23,1,8,1,15,1,12,1,18,1,4,1,8,1
1479,6,1,23,1,17,1,-14,1,-5,1,20,1,6,1,14,1,11,1,18,1,4,1,9,1
1480,5,1,20,1,15,1,-12,1,-5,1,18,1,3,1,14,1,11,1,18,1,5,1,9,1
1481,5,1,20,1,15,1,-12,1,-5,1,18,1,0,1,14,1,10,1,19,1,5,1,9,1
1482,6,1,21,1,15,1,-13,1,-4,1,18,1,0,1,15,1,10,1,19,1,5,1,9,1
1483,6,1,22,1,16,1,-14,1,-5,1,19,1,-1,1,15,1,10,1,20,1,7,1,9,1
1484,6,1,21,1,15,1,-13,1,-4,1,18,1,-1,1,14,1,10,1,19,1,7,1,8,1
1485,6,1,21,1,15,1,-13,1,-4,1,18,1,-2,1,14,1,10,1,19,1,6,1,8,1
1486,7,1,22,1,15,1,-14,1,-4,1,19,1,-2,1,14,1,10,1,19,1,6,1,8,1
1487,7,1,22,1,15,1,-14,1,-4,1,19,1,-2,1,13,1,10,1,20,1,6,1,8,1
1488,8,1,22,1,14,1,-15,1,-3,1,18,1,-3,1,12,1,10,1,19,1,4,1,7,1
1489,8,1,20,1,12,1,-14,1,-2,1,16,1,-4,1,11,1,7,1,17,1,2,1,6,1
1490,7,1,17,1,10,1,-12,1,-1,1,14,1,-5,1,9,1,6,1,15,1,0,1,5,1
1491,5,1,15,1,10,1,-10,1,-2,1,13,1,-4,1,7,1,4,1,12,1,-1,1,3,1
1492,3,1,12,1,9,1,-7,1,-3,1,11,1,-4,1,5,1,2,1,10,1,-3,1,0,1
1493,0,1,8,1,8,1,-4,1,-4,1,8,1,-4,1,3,1,-1,1,7,1,-6,1,-2,1
1494,-2,1,5,1,7,1,-1,1,-4,1,6,1,-5,1,1,1,-3,1,6,1,-9,1,-4,1
1495,-3,1,4,1,7,1,0,1,-5,1,5,1,-6,1,1,1,-5,1,4,1,-10,1,-7,1
1496,-6,1,1,1,7,1,2,1,-6,1,4,1,-5,1,0,1,-6,1,2,1,-12,1,-9,1
1497,-11,1,-4,1,7,1,7,1,-9,1,1,1,-5,1,-1,1,-7,1,0,1,-12,1,-11,1
1498,-13,1,-8,1,5,1,10,1,-9,1,-2,1,-4,1,-1,1,-7,1,0,1,-13,1,-11,1
1499,-15,1,-9,1,6,1,12,1,-11,1,-2,1,-4,1,-1,1,-8,1,0,1,-13,1,-11,1
1500,-15,1,-8,1,7,1,11,1,-11,1,-1,1,-3,1,-1,1,-7,1,0,1,-13,1,-11,1
1501,-14,1,-6,1,8,1,10,1,-11,1,1,1,-3,1,-2,1,-8,1,0,1,-13,1,-10,1
1502,-13,1,-3,1,10,1,8,1,-12,1,3,1,-3,1,-2,1,-8,1,1,1,-12,1,-9,1
1503,-13,1,-2,1,11,1,7,1,-12,1,4,1,-1,1,-2,1,-8,1,1,1,-12,1,-8,1
1504,-13,1,-1,1,12,1,7,1,-13,1,5,1,0,1,-2,1,-8,1,1,1,-12,1,-8,1
1505,-13,1,-1,1,12,1,7,1,-13,1,5,1,0,1,-2,1,-9,1,1,1,-12,1,-9,1
1506,-12,1,-1,1,11,1,6,1,-12,1,5,1,0,1,-3,1,-9,1,1,1,-12,1,-10,1
1507,-12,1,-1,1,11,1,6,1,-12,1,5,1,-1,1,-3,1,-10,1,1,1,-12,1,-10,1
1508,-13,1,-2,1,11,1,7,1,-12,1,4,1,-1,1,-3,1,-10,1,0,1,-13,1,-11,1
1509,-14,1,-4,1,10,1,9,1,-12,1,3,1,-2,1,-4,1,-11,1,-1,1,-14,1,-11,1
1510,-17,1,-6,1,11,1,11,1,-14,1,2,1,-3,1,-5,1,-12,1,-3,1,-16,1,-12,1
1511,-16,1,-6,1,10,1,11,1,-13,1,2,1,-3,1,-7,1,-13,1,-3,1,-18,1,-14,1
1512,-14,1,-6,1,8,1,10,1,-11,1,1,1,-3,1,-8,1,-13,1,-4,1,-18,1,-14,1
1513,-14,1,-7,1,7,1,10,1,-11,1,0,1,-2,1,-8,1,-13,1,-4,1,-18,1,-14,1
1514,-14,1,-9,1,5,1,11,1,-10,1,-2,1,-2,1,-8,1,-14,1,-5,1,-18,1,-14,1
1515,-15,1,-11,1,4,1,13,1,-10,1,-4,1,-3,1,-8,1,-15,1,-6,1,-19,1,-14,1
1516,-15,1,-12,1,3,1,13,1,-9,1,-5,1,-3,1,-7,1,-15,1,-6,1,-19,1,-14,1
1517,-13,1,-10,1,3,1,11,1,-8,1,-4,1,-2,1,-7,1,-13,1,-6,1,-18,1,-14,1
1518,-12,1,-10,1,2,1,11,1,-7,1,-4,1,-2,1,-7,1,-12,1,-4,1,-17,1,-13,1
1519,-13,1,-12,1,1,1,12,1,-7,1,-6,1,-2,1,-6,1,-12,1,-4,1,-16,1,-12,1
1520,-13,1,-15,1,-2,1,14,1,-6,1,-9,1,-2,1,-5,1,-11,1,-4,1,-16,1,-12,1
1521,-13,1,-17,1,-4,1,15,1,-5,1,-11,1,0,1,-5,1,-10,1,-3,1,-15,1,-12,1
1522,-11,1,-16,1,-5,1,13,1,-3,1,-11,1,1,1,-3,1,-9,1,-2,1,-15,1,-11,1
1523,-10,1,-15,1,-5,1,12,1,-3,1,-10,1,4,1,-2,1,-8,1,-1,1,-13,1,-11,1
1524,-10,1,-15,1,-5,1,12,1,-3,1,-10,1,5,1,-2,1,-7,1,0,1,-13,1,-10,1
1525,-10,1,-16,1,-6,1,13,1,-2,1,-11,1,7,1,-1,1,-6,1,0,1,-12,1,-9,1
1526,-10,1,-18,1,-8,1,14,1,-1,1,-13,1,8,1,-1,1,-6,1,1,1,-12,1,-9,1
1527,-13,1,-19,1,-6,1,16,1,-4,1,-13,1,7,1,-2,1,-7,1,0,1,-12,1,-10,1
1528,-13,1,-20,1,-7,1,16,1,-3,1,-14,1,6,1,-3,1,-8,1,0,1,-13,1,-10,1
1529,-12,1,-20,1,-8,1,16,1,-2,1,-14,1,7,1,-2,1,-8,1,0,1,-13,1,-10,1
1530,-12,1,-21,1,-9,1,16,1,-2,1,-15,1,7,1,-2,1,-7,1,0,1,-13,1,-9,1
1531,-14,1,-23,1,-9,1,18,1,-3,1,-16,1,6,1,-2,1,-8,1,0,1,-14,1,-10,1
1532,-18,1,-28,1,-10,1,23,1,-4,1,-19,1,4,1,-4,1,-9,1,-2,1,-16,1,-12,1
1533,-20,1,-33,1,-13,1,26,1,-4,1,-23,1,4,1,-4,1,-9,1,-2,1,-17,1,-13,1
1534,-23,1,-36,1,-13,1,29,1,-5,1,-25,1,4,1,-2,1,-8,1,-1,1,-17,1,-15,1
1535,-26,1,-38,1,-12,1,32,1,-7,1,-25,1,5,1,-1,1,-6,1,-1,1,-17,1,-16,1
1536,-28,1,-39,1,-11,1,33,1,-9,1,-25,1,6,1,1,1,-3,1,1,1,-17,1,-15,1
1537,-28,1,-38,1,-10,1,33,1,-9,1,-24,1,8,1,5,1,0,1,4,1,-15,1,-14,1
1538,-26,1,-37,1,-11,1,31,1,-8,1,-24,1,10,1,12,1,6,1,9,1,-12,1,-12,1
1539,-24,1,-35,1,-11,1,29,1,-7,1,-23,1,12,1,22,1,18,1,18,1,-7,1,-9,1
1540,-22,1,-35,1,-13,1,28,1,-5,1,-24,1,14,1,34,1,30,1,27,1,-1,1,-7,1
1541,-20,1,-34,1,-14,1,27,1,-3,1,-24,1,16,1,48,1,45,1,37,1,8,1,-4,1
1542,-15,1,-32,1,-17,1,23,1,1,1,-25,1,19,1,64,1,63,1,51,1,18,1,0,1
1543,-7,1,-30,1,-23,1,18,1,8,1,-27,1,23,1,81,1,83,1,69,1,32,1,8,1
1544,4,1,-25,1,-29,1,10,1,16,1,-27,1,24,1,101,1,104,1,90,1,50,1,20,1
1545,18,1,-21,1,-39,1,1,1,28,1,-30,1,25,1,119,1,128,1,115,1,72,1,34,1
1546,34,1,-16,1,-50,1,-9,1,42,1,-33,1,23,1,134,1,150,1,140,1,96,1,50,1
1547,51,1,-9,1,-60,1,-21,1,55,1,-34,1,20,1,146,1,170,1,164,1,119,1,66,1
1548,67,1,0,1,-67,1,-33,1,67,1,-33,1,16,1,152,1,185,1,183,1,140,1,81,1
1549,78,1,7,1,-71,1,-42,1,75,1,-32,1,10,1,152,1,194,1,193,1,153,1,92,1
1550,84,1,13,1,-71,1,-48,1,78,1,-29,1,2,1,145,1,192,1,194,1,159,1,98,1
1551,86,1,21,1,-65,1,-53,1,76,1,-22,1,-9,1,127,1,178,1,184,1,155,1,100,1
1552,87,1,32,1,-55,1,-59,1,71,1,-11,1,-23,1,98,1,152,1,166,1,147,1,100,1
1553,89,1,44,1,-45,1,-66,1,67,1,0,1,-38,1,62,1,117,1,144,1,135,1,99,1
1554,89,1,55,1,-34,1,-72,1,62,1,11,1,-57,1,18,1,77,1,117,1,119,1,96,1
1555,90,1,61,1,-29,1,-75,1,60,1,16,1,-78,1,-28,1,29,1,85,1,99,1,91,1
1556,89,1,63,1,-26,1,-76,1,58,1,19,1,-101,1,-78,1,-22,1,46,1,73,1,81,1
1557,86,1,59,1,-27,1,-72,1,57,1,16,1,-121,1,-126,1,-75,1,4,1,43,1,69,1
1558,78,1,52,1,-26,1,-65,1,52,1,13,1,-136,1,-169,1,-123,1,-38,1,11,1,52,1
1559,64,1,41,1,-23,1,-52,1,44,1,9,1,-144,1,-202,1,-164,1,-77,1,-20,1,31,1
1560,47,1,29,1,-18,1,-38,1,33,1,6,1,-147,1,-224,1,-193,1,-109,1,-46,1,12,1
1561,31,1,16,1,-15,1,-23,1,23,1,1,1,-148,1,-234,1,-209,1,-128,1,-65,1,-3,1
1562,18,1,3,1,-15,1,-10,1,17,1,-6,1,-146,1,-234,1,-214,1,-137,1,-77,1,-15,1
1563,9,1,-9,1,-18,1,0,1,13,1,-13,1,-143,1,-229,1,-212,1,-139,1,-83,1,-22,1
1564,3,1,-19,1,-22,1,8,1,12,1,-20,1,-140,1,-223,1,-207,1,-136,1,-84,1,-27,1
1565,0,1,-25,1,-25,1,12,1,12,1,-25,1,-134,1,-215,1,-201,1,-132,1,-84,1,-29,1
1566,0,1,-28,1,-28,1,14,1,14,1,-28,1,-125,1,-205,1,-194,1,-128,1,-85,1,-29,1
1567,0,1,-28,1,-28,1,14,1,14,1,-28,1,-111,1,-192,1,-184,1,-125,1,-85,1,-30,1
1568,-2,1,-28,1,-26,1,15,1,12,1,-27,1,-95,1,-176,1,-172,1,-123,1,-85,1,-34,1
1569,-6,1,-30,1,-24,1,18,1,9,1,-27,1,-80,1,-157,1,-158,1,-119,1,-86,1,-37,1
1570,-12,1,-32,1,-20,1,22,1,4,1,-26,1,-67,1,-138,1,-141,1,-113,1,-83,1,-40,1
1571,-17,1,-35,1,-18,1,26,1,0,1,-27,1,-59,1,-119,1,-126,1,-103,1,-80,1,-41,1
1572,-19,1,-37,1,-18,1,28,1,-1,1,-28,1,-55,1,-104,1,-111,1,-91,1,-75,1,-40,1
1573,-20,1,-39,1,-19,1,29,1,-1,1,-29,1,-54,1,-92,1,-98,1,-78,1,-69,1,-39,1
1574,-21,1,-40,1,-19,1,30,1,-1,1,-30,1,-51,1,-85,1,-90,1,-66,1,-63,1,-36,1
1575,-20,1,-41,1,-21,1,30,1,0,1,-31,1,-48,1,-80,1,-83,1,-57,1,-57,1,-35,1
1576,-18,1,-40,1,-22,1,29,1,2,1,-31,1,-43,1,-75,1,-79,1,-53,1,-53,1,-33,1
1577,-17,1,-38,1,-21,1,27,1,2,1,-30,1,-34,1,-69,1,-73,1,-52,1,-49,1,-32,1
1578,-17,1,-35,1,-18,1,26,1,0,1,-27,1,-24,1,-59,1,-66,1,-51,1,-47,1,-31,1
1579,-15,1,-32,1,-17,1,23,1,1,1,-25,1,-15,1,-48,1,-58,1,-49,1,-45,1,-29,1
1580,-14,1,-29,1,-15,1,21,1,0,1,-22,1,-7,1,-36,1,-48,1,-43,1,-42,1,-28,1
1581,-12,1,-27,1,-15,1,19,1,1,1,-21,1,-5,1,-25,1,-38,1,-35,1,-38,1,-26,1
1582,-12,1,-26,1,-14,1,19,1,1,1,-20,1,-5,1,-16,1,-28,1,-26,1,-32,1,-23,1
1583,-14,1,-26,1,-12,1,20,1,-1,1,-19,1,-8,1,-12,1,-21,1,-15,1,-27,1,-21,1
1584,-14,1,-25,1,-11,1,19,1,-2,1,-18,1,-9,1,-11,1,-17,1,-8,1,-21,1,-18,1
1585,-12,1,-22,1,-10,1,17,1,-1,1,-16,1,-7,1,-10,1,-14,1,-3,1,-17,1,-15,1
1586,-9,1,-19,1,-10,1,14,1,0,1,-15,1,-4,1,-10,1,-14,1,-3,1,-15,1,-14,1
1587,-9,1,-17,1,-8,1,13,1,-1,1,-13,1,1,1,-9,1,-13,1,-4,1,-13,1,-12,1
1588,-10,1,-17,1,-7,1,13,1,-2,1,-12,1,6,1,-5,1,-11,1,-5,1,-13,1,-10,1
1589,-13,1,-18,1,-5,1,15,1,-4,1,-12,1,8,1,0,1,-8,1,-5,1,-13,1,-10,1
1590,-16,1,-20,1,-4,1,18,1,-6,1,-12,1,10,1,4,1,-6,1,-3,1,-13,1,-10,1
1591,-16,1,-20,1,-4,1,18,1,-6,1,-12,1,11,1,7,1,-4,1,0,1,-12,1,-8,1
1592,-13,1,-20,1,-7,1,16,1,-3,1,-14,1,11,1,10,1,-1,1,2,1,-10,1,-7,1
1593,-11,1,-20,1,-9,1,15,1,-1,1,-15,1,12,1,10,1,1,1,5,1,-9,1,-7,1
1594,-11,1,-20,1,-9,1,15,1,-1,1,-15,1,13,1,10,1,2,1,6,1,-8,1,-6,1
1595,-12,1,-22,1,-10,1,17,1,-1,1,-16,1,12,1,8,1,1,1,5,1,-7,1,-6,1
1596,-13,1,-22,1,-9,1,17,1,-2,1,-16,1,12,1,8,1,1,1,5,1,-7,1,-6,1
1597,-13,1,-23,1,-10,1,18,1,-2,1,-17,1,12,1,8,1,1,1,5,1,-7,1,-5,1
1598,-13,1,-22,1,-9,1,17,1,-2,1,-16,1,13,1,10,1,3,1,5,1,-6,1,-5,1
1599,-12,1,-22,1,-10,1,17,1,-1,1,-16,1,13,1,11,1,3,1,5,1,-6,1,-5,1
1600,-12,1,-22,1,-10,1,17,1,-1,1,-16,1,14,1,12,1,4,1,6,1,-5,1,-5,1
1601,-12,1,-23,1,-11,1,17,1,-1,1,-17,1,15,1,12,1,4,1,8,1,-4,1,-5,1
1602,-12,1,-24,1,-12,1,18,1,0,1,-18,1,16,1,12,1,4,1,8,1,-4,1,-4,1
1603,-12,1,-24,1,-12,1,18,1,0,1,-18,1,16,1,12,1,4,1,9,1,-3,1,-4,1
1604,-12,1,-23,1,-11,1,17,1,-1,1,-17,1,17,1,13,1,5,1,9,1,-3,1,-5,1
1605,-12,1,-23,1,-11,1,17,1,-1,1,-17,1,17,1,13,1,5,1,9,1,-4,1,-4,1
1606,-13,1,-25,1,-12,1,19,1,-1,1,-19,1,17,1,13,1,6,1,10,1,-4,1,-4,1
1607,-14,1,-27,1,-13,1,20,1,-1,1,-20,1,17,1,14,1,6,1,10,1,-4,1,-5,1
1608,-14,1,-29,1,-15,1,21,1,0,1,-22,1,17,1,14,1,6,1,10,1,-3,1,-5,1
1609,-15,1,-28,1,-13,1,21,1,-1,1,-21,1,17,1,14,1,6,1,10,1,-3,1,-4,1
1610,-17,1,-28,1,-11,1,22,1,-3,1,-20,1,16,1,14,1,6,1,10,1,-3,1,-3,1
1611,-18,1,-28,1,-10,1,23,1,-4,1,-19,1,15,1,15,1,7,1,9,1,-3,1,-4,1
1612,-18,1,-26,1,-8,1,22,1,-5,1,-17,1,15,1,15,1,7,1,9,1,-4,1,-4,1
1613,-16,1,-24,1,-8,1,20,1,-4,1,-16,1,15,1,15,1,7,1,10,1,-3,1,-4,1
1614,-15,1,-21,1,-6,1,18,1,-5,1,-14,1,15,1,16,1,8,1,10,1,-2,1,-4,1
1615,-14,1,-20,1,-6,1,17,1,-4,1,-13,1,15,1,16,1,8,1,10,1,-2,1,-4,1
1616,-13,1,-19,1,-6,1,16,1,-4,1,-13,1,15,1,16,1,8,1,11,1,-2,1,-4,1
1617,-13,1,-18,1,-5,1,15,1,-4,1,-12,1,15,1,17,1,9,1,12,1,-2,1,-3,1
1618,-12,1,-17,1,-5,1,14,1,-4,1,-11,1,15,1,18,1,11,1,13,1,0,1,-2,1
1619,-11,1,-16,1,-5,1,13,1,-3,1,-11,1,15,1,19,1,12,1,15,1,0,1,-1,1
1620,-8,1,-15,1,-7,1,11,1,-1,1,-11,1,16,1,19,1,12,1,15,1,1,1,-1,1
1621,-6,1,-15,1,-9,1,10,1,1,1,-12,1,17,1,20,1,13,1,16,1,1,1,0,1
1622,-6,1,-15,1,-9,1,10,1,1,1,-12,1,18,1,20,1,13,1,16,1,1,1,0,1
1623,-5,1,-15,1,-10,1,10,1,2,1,-13,1,18,1,21,1,13,1,17,1,2,1,1,1
1624,-5,1,-14,1,-9,1,9,1,2,1,-12,1,18,1,21,1,13,1,17,1,2,1,1,1
1625,-5,1,-14,1,-9,1,9,1,2,1,-12,1,19,1,21,1,14,1,18,1,2,1,1,1
1626,-3,1,-14,1,-11,1,8,1,4,1,-13,1,19,1,23,1,15,1,19,1,2,1,2,1
1627,-3,1,-13,1,-10,1,8,1,3,1,-12,1,18,1,24,1,16,1,19,1,3,1,3,1
1628,-2,1,-13,1,-11,1,7,1,4,1,-12,1,17,1,25,1,18,1,19,1,5,1,4,1
1629,-3,1,-12,1,-9,1,7,1,3,1,-11,1,17,1,26,1,19,1,20,1,6,1,5,1
1630,-3,1,-13,1,-10,1,8,1,3,1,-12,1,17,1,28,1,19,1,20,1,6,1,5,1
1631,-2,1,-13,1,-11,1,7,1,4,1,-12,1,17,1,28,1,20,1,20,1,6,1,6,1
1632,0,1,-13,1,-13,1,6,1,6,1,-13,1,17,1,28,1,20,1,20,1,6,1,6,1
1633,0,1,-12,1,-12,1,6,1,6,1,-12,1,17,1,28,1,19,1,20,1,6,1,6,1
1634,0,1,-12,1,-12,1,6,1,6,1,-12,1,17,1,28,1,19,1,19,1,6,1,5,1
1635,0,1,-12,1,-12,1,6,1,6,1,-12,1,17,1,28,1,19,1,19,1,6,1,5,1
1636,1,1,-12,1,-13,1,5,1,7,1,-12,1,19,1,27,1,20,1,20,1,6,1,6,1
1637,1,1,-11,1,-12,1,5,1,6,1,-11,1,20,1,27,1,20,1,21,1,6,1,6,1
1638,1,1,-11,1,-12,1,5,1,6,1,-11,1,20,1,27,1,20,1,22,1,6,1,6,1
1639,1,1,-10,1,-11,1,4,1,6,1,-10,1,21,1,27,1,21,1,23,1,6,1,6,1
1640,0,1,-11,1,-11,1,5,1,5,1,-11,1,20,1,28,1,21,1,23,1,6,1,6,1
1641,0,1,-10,1,-10,1,5,1,5,1,-10,1,20,1,28,1,21,1,23,1,7,1,6,1
1642,1,1,-7,1,-8,1,3,1,4,1,-7,1,20,1,30,1,22,1,24,1,8,1,6,1
1643,1,1,-6,1,-7,1,2,1,4,1,-6,1,18,1,31,1,23,1,24,1,8,1,7,1
1644,0,1,-7,1,-7,1,3,1,3,1,-7,1,16,1,30,1,23,1,24,1,7,1,6,1
1645,-1,1,-11,1,-10,1,6,1,4,1,-11,1,14,1,30,1,22,1,24,1,6,1,6,1
1646,-2,1,-14,1,-12,1,8,1,5,1,-13,1,13,1,30,1,22,1,24,1,6,1,6,1
1647,-3,1,-16,1,-13,1,9,1,5,1,-15,1,13,1,31,1,23,1,24,1,7,1,7,1
1648,-3,1,-17,1,-14,1,10,1,5,1,-16,1,13,1,32,1,24,1,24,1,9,1,9,1
1649,-4,1,-19,1,-15,1,11,1,5,1,-17,1,13,1,33,1,25,1,25,1,9,1,9,1
1650,-5,1,-19,1,-14,1,12,1,4,1,-17,1,13,1,34,1,25,1,25,1,9,1,10,1
1651,-5,1,-18,1,-13,1,11,1,4,1,-16,1,13,1,34,1,26,1,26,1,10,1,10,1
1652,-4,1,-18,1,-14,1,11,1,5,1,-16,1,14,1,35,1,28,1,26,1,11,1,11,1
1653,-2,1,-18,1,-16,1,10,1,7,1,-17,1,14,1,37,1,30,1,29,1,14,1,12,1
1654,0,1,-17,1,-17,1,8,1,8,1,-17,1,15,1,38,1,32,1,31,1,16,1,14,1
1655,1,1,-16,1,-17,1,7,1,9,1,-16,1,15,1,40,1,34,1,32,1,17,1,15,1
1656,1,1,-13,1,-14,1,6,1,7,1,-13,1,14,1,41,1,35,1,32,1,17,1,16,1
1657,2,1,-11,1,-13,1,4,1,7,1,-12,1,14,1,42,1,36,1,32,1,18,1,16,1
1658,2,1,-10,1,-12,1,4,1,7,1,-11,1,14,1,43,1,36,1,32,1,18,1,17,1
1659,3,1,-10,1,-13,1,3,1,8,1,-11,1,13,1,44,1,37,1,32,1,19,1,17,1
1660,5,1,-8,1,-13,1,1,1,9,1,-10,1,12,1,44,1,37,1,32,1,19,1,18,1
1661,8,1,-6,1,-14,1,-1,1,11,1,-10,1,12,1,46,1,38,1,33,1,20,1,19,1
1662,10,1,-5,1,-15,1,-2,1,12,1,-10,1,12,1,47,1,40,1,35,1,22,1,20,1
1663,12,1,-2,1,-14,1,-5,1,13,1,-8,1,12,1,48,1,40,1,37,1,23,1,20,1
1664,16,1,3,1,-13,1,-9,1,15,1,-5,1,13,1,51,1,42,1,39,1,26,1,22,1
1665,22,1,10,1,-12,1,-16,1,17,1,-1,1,15,1,52,1,43,1,42,1,28,1,24,1
1666,25,1,15,1,-10,1,-20,1,18,1,3,1,16,1,54,1,44,1,43,1,29,1,26,1
1667,28,1,18,1,-10,1,-23,1,19,1,4,1,17,1,54,1,44,1,43,1,30,1,27,1
1668,30,1,19,1,-11,1,-24,1,21,1,4,1,17,1,54,1,44,1,42,1,30,1,27,1
1669,32,1,20,1,-12,1,-26,1,22,1,4,1,18,1,55,1,47,1,42,1,31,1,29,1
1670,33,1,18,1,-15,1,-25,1,24,1,2,1,18,1,56,1,47,1,42,1,31,1,29,1
1671,31,1,17,1,-14,1,-24,1,23,1,2,1,18,1,55,1,46,1,43,1,32,1,29,1
1672,29,1,16,1,-13,1,-22,1,21,1,2,1,18,1,55,1,46,1,42,1,32,1,29,1
1673,27,1,16,1,-11,1,-21,1,19,1,3,1,18,1,55,1,45,1,42,1,32,1,29,1
1674,26,1,15,1,-11,1,-20,1,19,1,2,1,18,1,55,1,45,1,42,1,32,1,29,1
1675,24,1,14,1,-10,1,-19,1,17,1,2,1,17,1,55,1,44,1,41,1,32,1,30,1
1676,22,1,11,1,-11,1,-16,1,17,1,0,1,15,1,54,1,44,1,41,1,32,1,30,1
1677,21,1,9,1,-12,1,-15,1,17,1,-1,1,15,1,53,1,43,1,40,1,31,1,30,1
1678,21,1,9,1,-12,1,-15,1,17,1,-1,1,14,1,53,1,43,1,40,1,31,1,29,1
1679,22,1,9,1,-13,1,-15,1,18,1,-2,1,14,1,52,1,43,1,40,1,31,1,29,1
1680,23,1,11,1,-12,1,-17,1,18,1,0,1,13,1,53,1,41,1,39,1,32,1,29,1
1681,22,1,11,1,-11,1,-16,1,17,1,0,1,12,1,53,1,41,1,39,1,32,1,30,1
1682,22,1,11,1,-11,1,-16,1,17,1,0,1,12,1,52,1,41,1,39,1,32,1,30,1
1683,24,1,13,1,-11,1,-18,1,18,1,1,1,12,1,52,1,41,1,39,1,32,1,30,1
1684,28,1,16,1,-12,1,-22,1,20,1,2,1,12,1,52,1,41,1,38,1,32,1,30,1
1685,30,1,17,1,-13,1,-23,1,22,1,2,1,11,1,52,1,40,1,38,1,32,1,31,1
1686,29,1,15,1,-14,1,-22,1,22,1,1,1,11,1,51,1,39,1,38,1,31,1,31,1
1687,27,1,14,1,-13,1,-20,1,20,1,1,1,10,1,51,1,39,1,38,1,31,1,32,1
1688,27,1,16,1,-11,1,-21,1,19,1,3,1,10,1,50,1,39,1,38,1,31,1,32,1
1689,28,1,17,1,-11,1,-22,1,20,1,3,1,10,1,49,1,39,1,39,1,32,1,32,1
1690,27,1,15,1,-12,1,-21,1,20,1,2,1,11,1,49,1,38,1,39,1,32,1,33,1
1691,24,1,13,1,-11,1,-18,1,18,1,1,1,11,1,47,1,36,1,38,1,31,1,32,1
1692,22,1,11,1,-11,1,-16,1,17,1,0,1,10,1,46,1,35,1,36,1,31,1,31,1
1693,22,1,11,1,-11,1,-16,1,17,1,0,1,10,1,45,1,34,1,36,1,30,1,30,1
1694,22,1,12,1,-10,1,-17,1,16,1,1,1,10,1,45,1,34,1,35,1,29,1,30,1
1695,20,1,12,1,-8,1,-16,1,14,1,2,1,8,1,44,1,34,1,33,1,29,1,29,1
1696,19,1,12,1,-7,1,-15,1,13,1,3,1,8,1,43,1,32,1,32,1,28,1,27,1
1697,19,1,12,1,-7,1,-15,1,13,1,3,1,8,1,41,1,31,1,32,1,27,1,26,1
1698,19,1,13,1,-6,1,-16,1,13,1,4,1,8,1,41,1,30,1,32,1,26,1,26,1
1699,19,1,14,1,-5,1,-16,1,12,1,5,1,8,1,41,1,29,1,31,1,25,1,26,1
1700,21,1,15,1,-6,1,-18,1,14,1,5,1,9,1,41,1,28,1,31,1,25,1,26,1
1701,21,1,17,1,-4,1,-19,1,13,1,7,1,10,1,41,1,28,1,31,1,24,1,25,1
1702,19,1,17,1,-2,1,-18,1,11,1,8,1,10,1,40,1,28,1,31,1,23,1,25,1
1703,19,1,17,1,-2,1,-18,1,11,1,8,1,10,1,39,1,27,1,31,1,23,1,24,1
1704,19,1,17,1,-2,1,-18,1,11,1,8,1,10,1,37,1,26,1,30,1,21,1,23,1
1705,20,1,17,1,-3,1,-18,1,12,1,7,1,11,1,35,1,25,1,28,1,21,1,21,1
1706,19,1,17,1,-2,1,-18,1,11,1,8,1,12,1,32,1,23,1,28,1,20,1,20,1
1707,16,1,16,1,0,1,-16,1,8,1,8,1,13,1,30,1,22,1,27,1,18,1,17,1
1708,13,1,16,1,3,1,-14,1,5,1,10,1,12,1,29,1,20,1,25,1,16,1,16,1
1709,11,1,14,1,3,1,-12,1,4,1,9,1,11,1,27,1,19,1,24,1,14,1,14,1
1710,11,1,14,1,3,1,-12,1,4,1,9,1,10,1,25,1,18,1,23,1,13,1,14,1
1711,11,1,15,1,4,1,-13,1,4,1,10,1,10,1,24,1,16,1,22,1,13,1,13,1
1712,10,1,15,1,5,1,-12,1,3,1,10,1,11,1,22,1,14,1,21,1,12,1,12,1
1713,9,1,15,1,6,1,-12,1,2,1,11,1,12,1,21,1,12,1,20,1,11,1,12,1
1714,8,1,15,1,7,1,-11,1,1,1,11,1,12,1,20,1,12,1,20,1,10,1,13,1
1715,7,1,16,1,9,1,-11,1,-1,1,13,1,12,1,19,1,11,1,20,1,10,1,12,1
1716,6,1,16,1,10,1,-11,1,-2,1,13,1,12,1,18,1,11,1,20,1,9,1,11,1
1717,6,1,17,1,11,1,-11,1,-2,1,14,1,12,1,18,1,11,1,19,1,9,1,10,1
1718,6,1,17,1,11,1,-11,1,-2,1,14,1,12,1,16,1,9,1,18,1,7,1,8,1
1719,5,1,16,1,11,1,-10,1,-3,1,14,1,11,1,16,1,9,1,16,1,5,1,6,1
1720,4,1,16,1,12,1,-10,1,-4,1,14,1,11,1,14,1,8,1,15,1,4,1,5,1
1721,4,1,15,1,11,1,-9,1,-3,1,13,1,11,1,13,1,7,1,14,1,3,1,4,1
1722,2,1,15,1,13,1,-8,1,-5,1,14,1,9,1,12,1,5,1,12,1,2,1,3,1
1723,1,1,14,1,13,1,-7,1,-6,1,14,1,7,1,10,1,4,1,10,1,2,1,2,1
1724,1,1,14,1,13,1,-7,1,-6,1,14,1,7,1,9,1,3,1,10,1,1,1,2,1
1725,1,1,14,1,13,1,-7,1,-6,1,14,1,6,1,8,1,3,1,10,1,1,1,2,1
1726,1,1,14,1,13,1,-7,1,-6,1,14,1,6,1,8,1,3,1,10,1,1,1,2,1
1727,1,1,13,1,12,1,-7,1,-5,1,13,1,6,1,8,1,3,1,10,1,1,1,2,1
1728,1,1,10,1,9,1,-5,1,-4,1,10,1,5,1,8,1,3,1,10,1,0,1,2,1
1729,1,1,9,1,8,1,-5,1,-3,1,9,1,5,1,7,1,2,1,9,1,0,1,1,1
1730,0,1,8,1,8,1,-4,1,-4,1,8,1,6,1,7,1,2,1,9,1,0,1,1,1
1731,0,1,10,1,10,1,-5,1,-5,1,10,1,6,1,7,1,2,1,10,1,0,1,2,1
1732,0,1,8,1,8,1,-4,1,-4,1,8,1,6,1,7,1,2,1,9,1,-1,1,2,1
1733,0,1,9,1,9,1,-4,1,-4,1,9,1,5,1,7,1,2,1,9,1,-2,1,2,1
1734,1,1,9,1,8,1,-5,1,-3,1,9,1,5,1,7,1,2,1,8,1,-2,1,3,1
1735,3,1,10,1,7,1,-6,1,-2,1,9,1,5,1,6,1,1,1,8,1,-3,1,3,1
1736,2,1,10,1,8,1,-6,1,-3,1,9,1,5,1,6,1,1,1,8,1,-2,1,3,1
1737,2,1,10,1,8,1,-6,1,-3,1,9,1,6,1,6,1,1,1,8,1,-2,1,3,1
1738,2,1,11,1,9,1,-6,1,-3,1,10,1,7,1,5,1,0,1,8,1,-2,1,3,1
1739,1,1,9,1,8,1,-5,1,-3,1,9,1,7,1,6,1,0,1,7,1,-2,1,2,1
1740,1,1,9,1,8,1,-5,1,-3,1,9,1,7,1,4,1,-1,1,6,1,-2,1,2,1
1741,3,1,10,1,7,1,-6,1,-2,1,9,1,7,1,4,1,-1,1,7,1,-1,1,2,1
1742,3,1,11,1,8,1,-7,1,-2,1,10,1,7,1,5,1,-1,1,7,1,-1,1,2,1
1743,3,1,11,1,8,1,-7,1,-2,1,10,1,7,1,5,1,-1,1,8,1,-1,1,3,1
1744,3,1,10,1,7,1,-6,1,-2,1,9,1,6,1,6,1,0,1,8,1,-1,1,2,1
1745,1,1,9,1,8,1,-5,1,-3,1,9,1,6,1,6,1,0,1,7,1,-2,1,1,1
1746,0,1,9,1,9,1,-4,1,-4,1,9,1,6,1,5,1,0,1,6,1,-2,1,1,1
1747,-1,1,10,1,11,1,-4,1,-6,1,10,1,6,1,6,1,0,1,6,1,-2,1,1,1
1748,-1,1,13,1,14,1,-6,1,-7,1,13,1,8,1,6,1,1,1,7,1,-1,1,1,1
1749,-1,1,13,1,14,1,-6,1,-7,1,13,1,8,1,6,1,2,1,8,1,-1,1,0,1
1750,-4,1,11,1,15,1,-3,1,-9,1,13,1,7,1,7,1,2,1,7,1,0,1,0,1
1751,-4,1,10,1,14,1,-3,1,-9,1,12,1,6,1,7,1,2,1,7,1,-1,1,-1,1
1752,-3,1,10,1,13,1,-3,1,-8,1,11,1,6,1,8,1,2,1,7,1,-1,1,-1,1
1753,-1,1,11,1,12,1,-5,1,-6,1,11,1,7,1,8,1,1,1,7,1,-1,1,-1,1
1754,1,1,11,1,10,1,-6,1,-4,1,11,1,7,1,7,1,1,1,6,1,-1,1,-1,1
1755,0,1,10,1,10,1,-5,1,-5,1,10,1,8,1,7,1,1,1,6,1,-1,1,-1,1
1756,-1,1,9,1,10,1,-4,1,-5,1,9,1,8,1,7,1,1,1,6,1,-2,1,-1,1
1757,-1,1,9,1,10,1,-4,1,-5,1,9,1,8,1,7,1,1,1,7,1,-1,1,-1,1
1758,0,1,9,1,9,1,-4,1,-4,1,9,1,8,1,8,1,2,1,8,1,-1,1,-1,1
1759,0,1,9,1,9,1,-4,1,-4,1,9,1,8,1,8,1,2,1,8,1,-1,1,-1,1
1760,0,1,11,1,11,1,-5,1,-5,1,11,1,8,1,10,1,3,1,10,1,0,1,0,1
1761,3,1,15,1,12,1,-9,1,-4,1,14,1,8,1,10,1,5,1,11,1,1,1,1,1
1762,6,1,17,1,11,1,-11,1,-2,1,14,1,8,1,12,1,7,1,12,1,1,1,3,1
1763,7,1,17,1,10,1,-12,1,-1,1,14,1,8,1,12,1,7,1,12,1,2,1,3,1
1764,4,1,16,1,12,1,-10,1,-4,1,14,1,6,1,12,1,7,1,11,1,2,1,3,1
1765,0,1,13,1,13,1,-6,1,-6,1,13,1,5,1,12,1,7,1,11,1,2,1,2,1
1766,0,1,13,1,13,1,-6,1,-6,1,13,1,5,1,12,1,7,1,11,1,2,1,2,1
1767,0,1,13,1,13,1,-6,1,-6,1,13,1,4,1,12,1,7,1,10,1,1,1,2,1
1768,0,1,13,1,13,1,-6,1,-6,1,13,1,4,1,11,1,7,1,10,1,1,1,2,1
1769,1,1,12,1,11,1,-6,1,-5,1,12,1,3,1,11,1,7,1,11,1,1,1,1,1
1770,0,1,12,1,12,1,-6,1,-6,1,12,1,3,1,9,1,6,1,9,1,0,1,1,1
1771,-1,1,10,1,11,1,-4,1,-6,1,10,1,4,1,9,1,4,1,8,1,0,1,0,1
1772,-2,1,9,1,11,1,-3,1,-6,1,10,1,4,1,8,1,3,1,7,1,-2,1,-1,1
1773,-2,1,9,1,11,1,-3,1,-6,1,10,1,4,1,8,1,3,1,7,1,-3,1,-1,1
1774,-1,1,10,1,11,1,-4,1,-6,1,10,1,4,1,8,1,3,1,6,1,-3,1,0,1
1775,0,1,12,1,12,1,-6,1,-6,1,12,1,4,1,8,1,3,1,6,1,-2,1,0,1
1776,0,1,13,1,13,1,-6,1,-6,1,13,1,5,1,8,1,3,1,6,1,-2,1,0,1
1777,0,1,13,1,13,1,-6,1,-6,1,13,1,6,1,8,1,3,1,6,1,-2,1,0,1
1778,1,1,13,1,12,1,-7,1,-5,1,13,1,7,1,8,1,3,1,6,1,-2,1,0,1
1779,0,1,12,1,12,1,-6,1,-6,1,12,1,7,1,7,1,2,1,6,1,-2,1,-1,1
1780,0,1,11,1,11,1,-5,1,-5,1,11,1,7,1,7,1,2,1,6,1,-2,1,-1,1
1781,1,1,12,1,11,1,-6,1,-5,1,12,1,7,1,7,1,2,1,6,1,-2,1,0,1
1782,2,1,13,1,11,1,-7,1,-4,1,12,1,6,1,7,1,3,1,7,1,-2,1,0,1
1783,3,1,13,1,10,1,-8,1,-3,1,12,1,4,1,7,1,3,1,7,1,-2,1,0,1
1784,3,1,12,1,9,1,-7,1,-3,1,11,1,3,1,7,1,2,1,7,1,-2,1,-1,1
1785,3,1,11,1,8,1,-7,1,-2,1,10,1,3,1,7,1,1,1,7,1,-2,1,0,1
1786,3,1,11,1,8,1,-7,1,-2,1,10,1,3,1,6,1,1,1,7,1,-2,1,0,1
1787,4,1,12,1,8,1,-8,1,-2,1,10,1,4,1,6,1,1,1,6,1,-2,1,-1,1
1788,4,1,12,1,8,1,-8,1,-2,1,10,1,4,1,5,1,0,1,5,1,-2,1,-1,1
1789,3,1,11,1,8,1,-7,1,-2,1,10,1,4,1,5,1,0,1,4,1,-3,1,-1,1
1790,2,1,10,1,8,1,-6,1,-3,1,9,1,4,1,4,1,0,1,4,1,-3,1,-2,1
1791,0,1,10,1,10,1,-5,1,-5,1,10,1,4,1,4,1,-1,1,3,1,-4,1,-2,1
1792,0,1,9,1,9,1,-4,1,-4,1,9,1,4,1,3,1,-1,1,3,1,-4,1,-2,1
1793,1,1,9,1,8,1,-5,1,-3,1,9,1,4,1,2,1,-2,1,3,1,-4,1,-2,1
1794,0,1,9,1,9,1,-4,1,-4,1,9,1,4,1,2,1,-2,1,3,1,-5,1,-2,1
1795,-1,1,9,1,10,1,-4,1,-5,1,9,1,3,1,3,1,-2,1,2,1,-4,1,-2,1
1796,-1,1,8,1,9,1,-3,1,-5,1,8,1,3,1,3,1,-2,1,2,1,-5,1,-2,1
1797,-2,1,6,1,8,1,-2,1,-5,1,7,1,3,1,3,1,-3,1,2,1,-6,1,-3,1
1798,-3,1,6,1,9,1,-1,1,-6,1,7,1,3,1,3,1,-3,1,2,1,-6,1,-3,1
1799,-3,1,6,1,9,1,-1,1,-6,1,7,1,3,1,3,1,-3,1,1,1,-6,1,-3,1
1800,-1,1,6,1,7,1,-2,1,-4,1,6,1,4,1,3,1,-3,1,1,1,-7,1,-3,1
1801,-1,1,7,1,8,1,-3,1,-4,1,7,1,4,1,2,1,-2,1,1,1,-8,1,-3,1
1802,-1,1,6,1,7,1,-2,1,-4,1,6,1,4,1,2,1,-2,1,1,1,-8,1,-4,1
1803,-4,1,3,1,7,1,0,1,-5,1,5,1,3,1,2,1,-2,1,0,1,-8,1,-4,1
1804,-6,1,1,1,7,1,2,1,-6,1,4,1,3,1,2,1,-3,1,0,1,-8,1,-5,1
1805,-7,1,0,1,7,1,3,1,-7,1,3,1,2,1,2,1,-3,1,0,1,-9,1,-4,1
1806,-8,1,-2,1,6,1,5,1,-7,1,2,1,0,1,1,1,-3,1,0,1,-9,1,-5,1
1807,-8,1,-3,1,5,1,5,1,-7,1,1,1,-1,1,1,1,-5,1,-1,1,-10,1,-6,1
1808,-7,1,-2,1,5,1,4,1,-6,1,1,1,0,1,1,1,-5,1,-1,1,-9,1,-5,1
1809,-3,1,1,1,4,1,1,1,-3,1,2,1,1,1,1,1,-4,1,-1,1,-7,1,-5,1
1810,2,1,4,1,2,1,-3,1,0,1,3,1,2,1,2,1,-2,1,0,1,-6,1,-4,1
1811,5,1,5,1,0,1,-5,1,3,1,3,1,3,1,3,1,-2,1,0,1,-5,1,-3,1
1812,5,1,3,1,-2,1,-4,1,4,1,1,1,4,1,4,1,-2,1,1,1,-4,1,-3,1
1813,2,1,1,1,-1,1,-1,1,2,1,0,1,4,1,2,1,-3,1,1,1,-4,1,-3,1
1814,0,1,1,1,1,1,0,1,0,1,1,1,4,1,2,1,-4,1,1,1,-5,1,-4,1
1815,2,1,3,1,1,1,-2,1,1,1,2,1,7,1,2,1,-4,1,1,1,-5,1,-3,1
1816,4,1,5,1,1,1,-4,1,2,1,3,1,9,1,2,1,-3,1,1,1,-4,1,-2,1
1817,6,1,5,1,-1,1,-5,1,4,1,2,1,11,1,2,1,-3,1,2,1,-3,1,-2,1
1818,4,1,4,1,0,1,-4,1,2,1,2,1,11,1,2,1,-3,1,2,1,-3,1,-1,1
1819,1,1,3,1,2,1,-2,1,0,1,3,1,9,1,1,1,-4,1,1,1,-4,1,-2,1
1820,-2,1,2,1,4,1,0,1,-3,1,3,1,9,1,0,1,-4,1,1,1,-4,1,-3,1
1821,-5,1,2,1,7,1,1,1,-6,1,4,1,9,1,0,1,-5,1,0,1,-5,1,-3,1
1822,-5,1,2,1,7,1,1,1,-6,1,4,1,9,1,0,1,-5,1,0,1,-5,1,-3,1
1823,-5,1,0,1,5,1,2,1,-5,1,2,1,8,1,0,1,-5,1,0,1,-5,1,-3,1
1824,-6,1,-2,1,4,1,4,1,-5,1,1,1,7,1,0,1,-5,1,0,1,-5,1,-3,1
1825,-6,1,-2,1,4,1,4,1,-5,1,1,1,7,1,0,1,-5,1,0,1,-5,1,-3,1
1826,-5,1,0,1,5,1,2,1,-5,1,2,1,7,1,0,1,-4,1,0,1,-5,1,-3,1
1827,-3,1,2,1,5,1,0,1,-4,1,3,1,9,1,1,1,-2,1,2,1,-3,1,-2,1
1828,-1,1,4,1,5,1,-1,1,-3,1,4,1,9,1,3,1,-2,1,3,1,-3,1,0,1
1829,0,1,6,1,6,1,-3,1,-3,1,6,1,10,1,4,1,0,1,5,1,-2,1,0,1
1830,0,1,8,1,8,1,-4,1,-4,1,8,1,10,1,5,1,2,1,6,1,-1,1,1,1
1831,0,1,8,1,8,1,-4,1,-4,1,8,1,10,1,6,1,2,1,7,1,0,1,1,1
1832,2,1,8,1,6,1,-5,1,-2,1,7,1,10,1,7,1,2,1,7,1,0,1,2,1
1833,3,1,10,1,7,1,-6,1,-2,1,9,1,11,1,7,1,2,1,7,1,1,1,2,1
1834,3,1,10,1,7,1,-6,1,-2,1,9,1,11,1,7,1,2,1,7,1,1,1,2,1
1835,2,1,8,1,6,1,-5,1,-2,1,7,1,11,1,7,1,2,1,7,1,1,1,2,1
1836,1,1,6,1,5,1,-3,1,-2,1,6,1,11,1,8,1,3,1,7,1,1,1,1,1
1837,-1,1,4,1,5,1,-1,1,-3,1,4,1,10,1,8,1,4,1,6,1,1,1,1,1
1838,-2,1,3,1,5,1,0,1,-3,1,4,1,10,1,8,1,4,1,6,1,1,1,1,1
1839,-1,1,2,1,3,1,0,1,-2,1,2,1,9,1,9,1,5,1,6,1,1,1,1,1
1840,-1,1,2,1,3,1,0,1,-2,1,2,1,8,1,9,1,6,1,7,1,1,1,2,1
1841,-1,1,2,1,3,1,0,1,-2,1,2,1,7,1,10,1,6,1,8,1,2,1,3,1
1842,0,1,3,1,3,1,-1,1,-1,1,3,1,7,1,11,1,7,1,9,1,3,1,4,1
1843,2,1,4,1,2,1,-3,1,0,1,3,1,7,1,11,1,7,1,9,1,4,1,5,1
1844,4,1,5,1,1,1,-4,1,2,1,3,1,7,1,12,1,8,1,10,1,4,1,6,1
1845,6,1,6,1,0,1,-6,1,3,1,3,1,7,1,12,1,9,1,11,1,5,1,7,1
1846,8,1,6,1,-2,1,-7,1,5,1,2,1,6,1,13,1,9,1,11,1,5,1,7,1
1847,8,1,6,1,-2,1,-7,1,5,1,2,1,4,1,12,1,9,1,12,1,6,1,8,1
1848,8,1,6,1,-2,1,-7,1,5,1,2,1,4,1,12,1,9,1,12,1,6,1,8,1
1849,7,1,6,1,-1,1,-6,1,4,1,3,1,3,1,12,1,9,1,12,1,7,1,8,1
1850,7,1,4,1,-3,1,-5,1,5,1,1,1,1,1,9,1,8,1,10,1,6,1,8,1
1851,5,1,2,1,-3,1,-3,1,4,1,0,1,0,1,8,1,7,1,8,1,5,1,6,1
1852,5,1,1,1,-4,1,-3,1,5,1,-1,1,-1,1,7,1,6,1,8,1,4,1,5,1
1853,5,1,0,1,-5,1,-2,1,5,1,-2,1,-2,1,6,1,4,1,7,1,3,1,5,1
1854,3,1,-2,1,-5,1,0,1,4,1,-3,1,-5,1,5,1,2,1,5,1,0,1,4,1
1855,0,1,-6,1,-6,1,3,1,3,1,-6,1,-6,1,3,1,0,1,3,1,-2,1,3,1
1856,-2,1,-10,1,-8,1,6,1,3,1,-9,1,-7,1,0,1,-2,1,1,1,-3,1,0,1
1857,-1,1,-10,1,-9,1,5,1,4,1,-10,1,-8,1,0,1,-3,1,0,1,-4,1,0,1
1858,1,1,-7,1,-8,1,3,1,4,1,-7,1,-5,1,0,1,-3,1,0,1,-5,1,1,1
1859,3,1,-4,1,-7,1,0,1,5,1,-5,1,-4,1,0,1,-2,1,1,1,-4,1,1,1
1860,4,1,-4,1,-8,1,0,1,6,1,-6,1,-3,1,1,1,-3,1,0,1,-4,1,0,1
1861,3,1,-5,1,-8,1,1,1,5,1,-6,1,-2,1,1,1,-4,1,-2,1,-6,1,-1,1
