TS,I,If,II,IIf,III,IIIf,aVR,aVRf,aVL,aVLf,aVF,aVFf,V1,V1f,V2,V2f,V3,V3f,V4,V4f,V5,V5f,V6,V6f
1,-21,1,1,1,22,1,10,1,-21,1,11,1,-3,1,-37,1,-33,1,-23,1,-13,1,-11,1
2,-21,1,1,1,22,1,10,1,-21,1,11,1,-3,1,-36,1,-33,1,-22,1,-12,1,-11,1
3,-21,1,1,1,22,1,10,1,-21,1,11,1,-3,1,-36,1,-33,1,-23,1,-13,1,-11,1
4,-22,1,1,1,23,1,10,1,-22,1,12,1,-3,1,-36,1,-33,1,-23,1,-13,1,-12,1
5,-22,1,1,1,23,1,10,1,-22,1,12,1,-2,1,-37,1,-33,1,-24,1,-14,1,-12,1
6,-22,1,1,1,23,1,10,1,-22,1,12,1,-2,1,-37,1,-33,1,-24,1,-14,1,-12,1
7,-22,1,1,1,23,1,10,1,-22,1,12,1,-2,1,-36,1,-33,1,-24,1,-13,1,-12,1
8,-21,1,2,1,23,1,9,1,-22,1,12,1,-2,1,-36,1,-33,1,-24,1,-13,1,-12,1
9,-21,1,2,1,23,1,9,1,-22,1,12,1,-2,1,-35,1,-33,1,-24,1,-13,1,-12,1
10,-20,1,2,1,22,1,9,1,-21,1,12,1,-2,1,-35,1,-32,1,-23,1,-13,1,-11,1
11,-19,1,2,1,21,1,8,1,-20,1,11,1,-2,1,-35,1,-33,1,-24,1,-13,1,-11,1
12,-20,1,2,1,22,1,9,1,-21,1,12,1,-3,1,-35,1,-33,1,-23,1,-13,1,-10,1
13,-20,1,2,1,22,1,9,1,-21,1,12,1,-3,1,-36,1,-33,1,-23,1,-13,1,-10,1
14,-20,1,2,1,22,1,9,1,-21,1,12,1,-3,1,-36,1,-33,1,-24,1,-13,1,-11,1
15,-19,1,2,1,21,1,8,1,-20,1,11,1,-3,1,-37,1,-33,1,-23,1,-14,1,-11,1
16,-19,1,3,1,22,1,8,1,-20,1,12,1,-4,1,-37,1,-34,1,-24,1,-14,1,-12,1
17,-20,1,2,1,22,1,9,1,-21,1,12,1,-4,1,-36,1,-34,1,-24,1,-14,1,-12,1
18,-20,1,2,1,22,1,9,1,-21,1,12,1,-3,1,-36,1,-34,1,-22,1,-12,1,-11,1
19,-20,1,2,1,22,1,9,1,-21,1,12,1,-3,1,-36,1,-33,1,-23,1,-13,1,-11,1
20,-20,1,2,1,22,1,9,1,-21,1,12,1,-2,1,-36,1,-33,1,-23,1,-13,1,-11,1
21,-21,1,2,1,23,1,9,1,-22,1,12,1,-3,1,-36,1,-34,1,-23,1,-14,1,-12,1
22,-22,1,1,1,23,1,10,1,-22,1,12,1,-3,1,-36,1,-34,1,-23,1,-14,1,-12,1
23,-23,1,1,1,24,1,11,1,-23,1,12,1,-2,1,-36,1,-34,1,-23,1,-14,1,-12,1
24,-21,1,1,1,22,1,10,1,-21,1,11,1,-2,1,-36,1,-33,1,-23,1,-14,1,-11,1
25,-21,1,2,1,23,1,9,1,-22,1,12,1,-2,1,-36,1,-33,1,-23,1,-14,1,-11,1
26,-21,1,2,1,23,1,9,1,-22,1,12,1,-2,1,-36,1,-33,1,-24,1,-14,1,-12,1
27,-22,1,2,1,24,1,10,1,-23,1,13,1,-1,1,-36,1,-33,1,-23,1,-14,1,-12,1
28,-21,1,2,1,23,1,9,1,-22,1,12,1,-2,1,-36,1,-33,1,-23,1,-14,1,-12,1
29,-21,1,2,1,23,1,9,1,-22,1,12,1,-2,1,-37,1,-33,1,-23,1,-14,1,-12,1
30,-21,1,2,1,23,1,9,1,-22,1,12,1,-2,1,-37,1,-33,1,-23,1,-14,1,-11,1
31,-20,1,3,1,23,1,8,1,-21,1,13,1,-3,1,-37,1,-34,1,-24,1,-14,1,-12,1
32,-20,1,2,1,22,1,9,1,-21,1,12,1,-2,1,-37,1,-33,1,-23,1,-14,1,-11,1
33,-22,1,2,1,24,1,10,1,-23,1,13,1,-2,1,-36,1,-33,1,-23,1,-14,1,-11,1
34,-20,1,2,1,22,1,9,1,-21,1,12,1,-2,1,-36,1,-33,1,-24,1,-14,1,-10,1
35,-21,1,2,1,23,1,9,1,-22,1,12,1,-2,1,-36,1,-33,1,-24,1,-14,1,-10,1
36,-21,1,2,1,23,1,9,1,-22,1,12,1,-2,1,-35,1,-33,1,-23,1,-14,1,-10,1
37,-21,1,2,1,23,1,9,1,-22,1,12,1,-2,1,-35,1,-33,1,-23,1,-13,1,-10,1
38,-21,1,1,1,22,1,10,1,-21,1,11,1,-2,1,-35,1,-33,1,-22,1,-13,1,-9,1
39,-20,1,1,1,21,1,9,1,-20,1,11,1,-2,1,-36,1,-33,1,-22,1,-14,1,-9,1
40,-21,1,1,1,22,1,10,1,-21,1,11,1,-2,1,-36,1,-33,1,-22,1,-14,1,-9,1
41,-21,1,1,1,22,1,10,1,-21,1,11,1,-2,1,-36,1,-33,1,-22,1,-14,1,-10,1
42,-20,1,2,1,22,1,9,1,-21,1,12,1,-3,1,-36,1,-33,1,-22,1,-14,1,-10,1
43,-20,1,2,1,22,1,9,1,-21,1,12,1,-3,1,-36,1,-33,1,-22,1,-14,1,-10,1
44,-20,1,2,1,22,1,9,1,-21,1,12,1,-2,1,-35,1,-33,1,-21,1,-13,1,-9,1
45,-20,1,2,1,22,1,9,1,-21,1,12,1,-2,1,-35,1,-32,1,-21,1,-13,1,-9,1
46,-19,1,2,1,21,1,8,1,-20,1,11,1,-1,1,-34,1,-31,1,-21,1,-13,1,-8,1
47,-20,1,2,1,22,1,9,1,-21,1,12,1,-1,1,-34,1,-31,1,-20,1,-13,1,-8,1
48,-19,1,2,1,21,1,8,1,-20,1,11,1,-2,1,-34,1,-32,1,-21,1,-13,1,-8,1
49,-19,1,4,1,23,1,7,1,-21,1,13,1,-2,1,-33,1,-31,1,-20,1,-12,1,-8,1
50,-17,1,4,1,21,1,6,1,-19,1,12,1,-2,1,-33,1,-31,1,-20,1,-12,1,-8,1
51,-17,1,4,1,21,1,6,1,-19,1,12,1,-2,1,-34,1,-31,1,-20,1,-11,1,-7,1
52,-15,1,4,1,19,1,5,1,-17,1,11,1,-3,1,-33,1,-31,1,-20,1,-11,1,-8,1
53,-15,1,6,1,21,1,4,1,-18,1,13,1,-1,1,-33,1,-30,1,-19,1,-11,1,-8,1
54,-16,1,5,1,21,1,5,1,-18,1,13,1,0,1,-32,1,-29,1,-19,1,-11,1,-8,1
55,-17,1,5,1,22,1,6,1,-19,1,13,1,1,1,-31,1,-28,1,-19,1,-11,1,-8,1
56,-16,1,5,1,21,1,5,1,-18,1,13,1,2,1,-30,1,-27,1,-18,1,-10,1,-7,1
57,-15,1,7,1,22,1,4,1,-18,1,14,1,4,1,-29,1,-26,1,-17,1,-9,1,-7,1
58,-15,1,8,1,23,1,3,1,-19,1,15,1,5,1,-28,1,-26,1,-17,1,-8,1,-7,1
59,-15,1,8,1,23,1,3,1,-19,1,15,1,5,1,-27,1,-26,1,-16,1,-7,1,-6,1
60,-14,1,10,1,24,1,2,1,-19,1,17,1,5,1,-27,1,-25,1,-15,1,-7,1,-6,1
61,-14,1,10,1,24,1,2,1,-19,1,17,1,5,1,-27,1,-25,1,-15,1,-7,1,-6,1
62,-14,1,10,1,24,1,2,1,-19,1,17,1,4,1,-27,1,-25,1,-17,1,-8,1,-7,1
63,-14,1,9,1,23,1,2,1,-18,1,16,1,4,1,-27,1,-25,1,-16,1,-8,1,-7,1
64,-14,1,8,1,22,1,3,1,-18,1,15,1,4,1,-26,1,-24,1,-16,1,-8,1,-7,1
65,-13,1,8,1,21,1,2,1,-17,1,14,1,4,1,-25,1,-24,1,-15,1,-7,1,-7,1
66,-13,1,7,1,20,1,3,1,-16,1,13,1,2,1,-26,1,-24,1,-15,1,-7,1,-7,1
67,-12,1,7,1,19,1,2,1,-15,1,13,1,1,1,-27,1,-25,1,-16,1,-7,1,-7,1
68,-12,1,7,1,19,1,2,1,-15,1,13,1,0,1,-28,1,-25,1,-16,1,-8,1,-7,1
69,-13,1,6,1,19,1,3,1,-16,1,12,1,-1,1,-28,1,-25,1,-16,1,-8,1,-6,1
70,-13,1,7,1,20,1,3,1,-16,1,13,1,-3,1,-29,1,-25,1,-15,1,-8,1,-5,1
71,-10,1,10,1,20,1,0,1,-15,1,15,1,-4,1,-29,1,-24,1,-14,1,-5,1,-3,1
72,-8,1,13,1,21,1,-2,1,-14,1,17,1,-7,1,-30,1,-24,1,-14,1,-4,1,-3,1
73,-6,1,15,1,21,1,-4,1,-13,1,18,1,-9,1,-30,1,-23,1,-12,1,-3,1,-1,1
74,-6,1,14,1,20,1,-4,1,-13,1,17,1,-10,1,-30,1,-23,1,-12,1,-3,1,-1,1
75,-7,1,13,1,20,1,-3,1,-13,1,16,1,-10,1,-32,1,-24,1,-13,1,-4,1,-2,1
76,-7,1,13,1,20,1,-3,1,-13,1,16,1,-11,1,-33,1,-26,1,-15,1,-5,1,-2,1
77,-9,1,11,1,20,1,-1,1,-14,1,15,1,-10,1,-33,1,-26,1,-15,1,-6,1,-3,1
78,-7,1,9,1,16,1,-1,1,-11,1,12,1,-11,1,-35,1,-28,1,-16,1,-7,1,-4,1
79,-7,1,8,1,15,1,0,1,-11,1,11,1,-11,1,-36,1,-29,1,-17,1,-7,1,-5,1
80,-7,1,8,1,15,1,0,1,-11,1,11,1,-9,1,-35,1,-29,1,-18,1,-7,1,-5,1
81,-8,1,8,1,16,1,0,1,-12,1,12,1,-10,1,-35,1,-29,1,-18,1,-8,1,-6,1
82,-8,1,8,1,16,1,0,1,-12,1,12,1,-9,1,-36,1,-29,1,-18,1,-7,1,-6,1
83,-8,1,8,1,16,1,0,1,-12,1,12,1,-9,1,-36,1,-30,1,-18,1,-7,1,-5,1
84,-8,1,7,1,15,1,0,1,-11,1,11,1,-10,1,-38,1,-31,1,-19,1,-8,1,-6,1
85,-6,1,7,1,13,1,0,1,-9,1,10,1,-11,1,-38,1,-32,1,-20,1,-8,1,-6,1
86,-6,1,7,1,13,1,0,1,-9,1,10,1,-10,1,-38,1,-32,1,-21,1,-8,1,-6,1
87,-7,1,5,1,12,1,1,1,-9,1,8,1,-10,1,-38,1,-32,1,-20,1,-8,1,-6,1
88,-7,1,5,1,12,1,1,1,-9,1,8,1,-9,1,-37,1,-31,1,-20,1,-8,1,-7,1
89,-6,1,5,1,11,1,0,1,-8,1,8,1,-8,1,-36,1,-29,1,-18,1,-7,1,-6,1
90,-7,1,5,1,12,1,1,1,-9,1,8,1,-7,1,-35,1,-30,1,-18,1,-8,1,-7,1
91,-7,1,5,1,12,1,1,1,-9,1,8,1,-7,1,-36,1,-31,1,-20,1,-8,1,-7,1
92,-10,1,5,1,15,1,2,1,-12,1,10,1,-8,1,-38,1,-32,1,-21,1,-10,1,-8,1
93,-10,1,5,1,15,1,2,1,-12,1,10,1,-8,1,-38,1,-33,1,-21,1,-9,1,-8,1
94,-11,1,5,1,16,1,3,1,-13,1,10,1,-7,1,-37,1,-33,1,-20,1,-9,1,-8,1
95,-12,1,4,1,16,1,4,1,-14,1,10,1,-7,1,-38,1,-33,1,-22,1,-10,1,-9,1
96,-15,1,2,1,17,1,6,1,-16,1,9,1,-7,1,-39,1,-35,1,-23,1,-12,1,-11,1
97,-16,1,2,1,18,1,7,1,-17,1,10,1,-4,1,-38,1,-34,1,-23,1,-12,1,-11,1
98,-18,1,0,1,18,1,9,1,-18,1,9,1,-4,1,-38,1,-35,1,-23,1,-12,1,-12,1
99,-19,1,0,1,19,1,9,1,-19,1,9,1,-3,1,-38,1,-35,1,-23,1,-12,1,-12,1
100,-20,1,0,1,20,1,10,1,-20,1,10,1,-3,1,-38,1,-36,1,-25,1,-13,1,-11,1
101,-21,1,-1,1,20,1,11,1,-21,1,9,1,-4,1,-40,1,-37,1,-26,1,-14,1,-13,1
102,-21,1,-1,1,20,1,11,1,-21,1,9,1,-4,1,-41,1,-37,1,-25,1,-15,1,-13,1
103,-22,1,-1,1,21,1,11,1,-22,1,10,1,-4,1,-41,1,-38,1,-26,1,-15,1,-15,1
104,-23,1,-2,1,21,1,12,1,-22,1,9,1,-4,1,-40,1,-38,1,-27,1,-16,1,-15,1
105,-24,1,-3,1,21,1,13,1,-23,1,9,1,-4,1,-40,1,-38,1,-28,1,-16,1,-15,1
106,-24,1,-3,1,21,1,13,1,-23,1,9,1,-3,1,-41,1,-38,1,-28,1,-16,1,-15,1
107,-24,1,-4,1,20,1,14,1,-22,1,8,1,-3,1,-41,1,-39,1,-27,1,-16,1,-15,1
108,-23,1,-2,1,21,1,12,1,-22,1,9,1,-3,1,-41,1,-39,1,-27,1,-16,1,-15,1
109,-22,1,-2,1,20,1,12,1,-21,1,9,1,-4,1,-41,1,-39,1,-28,1,-16,1,-16,1
110,-24,1,-2,1,22,1,13,1,-23,1,10,1,-3,1,-41,1,-39,1,-27,1,-16,1,-16,1
111,-24,1,-3,1,21,1,13,1,-23,1,9,1,-3,1,-41,1,-39,1,-27,1,-16,1,-16,1
112,-25,1,-3,1,22,1,14,1,-24,1,9,1,-3,1,-42,1,-39,1,-28,1,-17,1,-16,1
113,-25,1,-4,1,21,1,14,1,-23,1,8,1,-4,1,-42,1,-40,1,-28,1,-17,1,-16,1
114,-24,1,-3,1,21,1,13,1,-23,1,9,1,-4,1,-41,1,-39,1,-27,1,-16,1,-15,1
115,-24,1,-3,1,21,1,13,1,-23,1,9,1,-4,1,-41,1,-39,1,-27,1,-17,1,-15,1
116,-25,1,-4,1,21,1,14,1,-23,1,8,1,-4,1,-41,1,-39,1,-28,1,-17,1,-16,1
117,-25,1,-3,1,22,1,14,1,-24,1,9,1,-3,1,-41,1,-39,1,-27,1,-17,1,-16,1
118,-25,1,-3,1,22,1,14,1,-24,1,9,1,-3,1,-41,1,-39,1,-26,1,-17,1,-15,1
119,-25,1,-3,1,22,1,14,1,-24,1,9,1,-3,1,-40,1,-39,1,-26,1,-17,1,-15,1
120,-25,1,-3,1,22,1,14,1,-24,1,9,1,-2,1,-40,1,-37,1,-26,1,-16,1,-15,1
121,-25,1,-3,1,22,1,14,1,-24,1,9,1,-2,1,-40,1,-37,1,-27,1,-17,1,-15,1
122,-25,1,-4,1,21,1,14,1,-23,1,8,1,-2,1,-40,1,-37,1,-26,1,-17,1,-15,1
123,-25,1,-4,1,21,1,14,1,-23,1,8,1,-2,1,-40,1,-37,1,-26,1,-17,1,-15,1
124,-26,1,-4,1,22,1,15,1,-24,1,9,1,-3,1,-40,1,-37,1,-26,1,-17,1,-15,1
125,-26,1,-5,1,21,1,15,1,-24,1,8,1,-2,1,-41,1,-37,1,-26,1,-17,1,-16,1
126,-26,1,-5,1,21,1,15,1,-24,1,8,1,-1,1,-40,1,-37,1,-26,1,-17,1,-16,1
127,-25,1,-3,1,22,1,14,1,-24,1,9,1,-1,1,-41,1,-37,1,-27,1,-17,1,-15,1
128,-25,1,-3,1,22,1,14,1,-24,1,9,1,-1,1,-41,1,-37,1,-27,1,-17,1,-15,1
129,-25,1,-3,1,22,1,14,1,-24,1,9,1,-2,1,-40,1,-37,1,-27,1,-17,1,-15,1
130,-25,1,-3,1,22,1,14,1,-24,1,9,1,-2,1,-39,1,-37,1,-27,1,-17,1,-15,1
131,-26,1,-4,1,22,1,15,1,-24,1,9,1,-1,1,-38,1,-36,1,-27,1,-17,1,-16,1
132,-27,1,-3,1,24,1,15,1,-26,1,10,1,0,1,-36,1,-35,1,-26,1,-17,1,-16,1
133,-31,1,-3,1,28,1,17,1,-30,1,12,1,5,1,-33,1,-34,1,-27,1,-17,1,-17,1
134,-35,1,-3,1,32,1,19,1,-34,1,14,1,10,1,-28,1,-31,1,-27,1,-19,1,-19,1
135,-39,1,-4,1,35,1,21,1,-37,1,15,1,18,1,-20,1,-29,1,-26,1,-21,1,-21,1
136,-45,1,-9,1,36,1,27,1,-41,1,13,1,26,1,-9,1,-25,1,-27,1,-23,1,-25,1
137,-46,1,-12,1,34,1,29,1,-40,1,11,1,36,1,6,1,-19,1,-25,1,-25,1,-28,1
138,-45,1,-18,1,27,1,31,1,-36,1,4,1,42,1,21,1,-11,1,-23,1,-27,1,-31,1
139,-43,1,-24,1,19,1,33,1,-31,1,-3,1,50,1,41,1,1,1,-18,1,-26,1,-34,1
140,-39,1,-30,1,9,1,34,1,-24,1,-11,1,56,1,61,1,14,1,-12,1,-24,1,-35,1
141,-30,1,-32,1,-2,1,31,1,-14,1,-17,1,58,1,82,1,31,1,1,1,-16,1,-32,1
142,-16,1,-34,1,-18,1,25,1,1,1,-26,1,63,1,114,1,54,1,18,1,-5,1,-27,1
143,6,1,-34,1,-40,1,14,1,23,1,-37,1,63,1,147,1,83,1,42,1,11,1,-16,1
144,39,1,-28,1,-67,1,-5,1,53,1,-47,1,53,1,169,1,115,1,71,1,35,1,1,1
145,81,1,-16,1,-97,1,-32,1,89,1,-56,1,33,1,177,1,148,1,111,1,69,1,26,1
146,129,1,2,1,-127,1,-65,1,128,1,-62,1,4,1,169,1,189,1,160,1,110,1,56,1
147,175,1,21,1,-154,1,-98,1,165,1,-66,1,-33,1,142,1,222,1,209,1,151,1,87,1
148,215,1,37,1,-178,1,-126,1,197,1,-70,1,-68,1,110,1,244,1,252,1,189,1,116,1
149,244,1,53,1,-191,1,-148,1,218,1,-69,1,-97,1,74,1,258,1,289,1,223,1,141,1
150,263,1,73,1,-190,1,-168,1,227,1,-58,1,-122,1,43,1,274,1,325,1,255,1,165,1
151,269,1,89,1,-180,1,-179,1,225,1,-45,1,-139,1,9,1,276,1,346,1,277,1,183,1
152,259,1,100,1,-159,1,-179,1,209,1,-29,1,-146,1,-26,1,257,1,335,1,276,1,188,1
153,239,1,108,1,-131,1,-173,1,185,1,-11,1,-150,1,-67,1,226,1,309,1,263,1,186,1
154,210,1,108,1,-102,1,-159,1,156,1,3,1,-143,1,-94,1,195,1,274,1,238,1,173,1
155,179,1,90,1,-89,1,-134,1,134,1,1,1,-130,1,-100,1,164,1,224,1,192,1,143,1
156,146,1,67,1,-79,1,-106,1,113,1,-6,1,-117,1,-102,1,131,1,171,1,141,1,108,1
157,116,1,50,1,-66,1,-83,1,91,1,-8,1,-111,1,-116,1,82,1,115,1,95,1,78,1
158,89,1,31,1,-58,1,-60,1,74,1,-13,1,-108,1,-140,1,19,1,55,1,54,1,51,1
159,56,1,12,1,-44,1,-34,1,50,1,-16,1,-99,1,-162,1,-50,1,-6,1,13,1,23,1
160,21,1,-3,1,-24,1,-9,1,22,1,-13,1,-91,1,-178,1,-109,1,-59,1,-20,1,0,1
161,1,1,-12,1,-13,1,5,1,7,1,-12,1,-81,1,-173,1,-128,1,-79,1,-37,1,-13,1
162,-8,1,-21,1,-13,1,14,1,2,1,-17,1,-71,1,-158,1,-122,1,-78,1,-42,1,-21,1
163,-13,1,-27,1,-14,1,20,1,0,1,-21,1,-66,1,-152,1,-120,1,-80,1,-46,1,-27,1
164,-18,1,-30,1,-12,1,24,1,-3,1,-21,1,-60,1,-145,1,-116,1,-78,1,-47,1,-31,1
165,-23,1,-30,1,-7,1,26,1,-8,1,-19,1,-57,1,-136,1,-109,1,-74,1,-46,1,-33,1
166,-26,1,-33,1,-7,1,29,1,-10,1,-20,1,-52,1,-124,1,-100,1,-71,1,-45,1,-33,1
167,-25,1,-32,1,-7,1,28,1,-9,1,-20,1,-46,1,-112,1,-93,1,-68,1,-44,1,-33,1
168,-23,1,-25,1,-2,1,24,1,-11,1,-14,1,-42,1,-100,1,-83,1,-60,1,-39,1,-29,1
169,-21,1,-20,1,1,1,20,1,-11,1,-10,1,-37,1,-87,1,-70,1,-51,1,-32,1,-25,1
170,-20,1,-16,1,4,1,18,1,-12,1,-6,1,-31,1,-71,1,-58,1,-42,1,-26,1,-22,1
171,-17,1,-14,1,3,1,15,1,-10,1,-6,1,-22,1,-54,1,-45,1,-34,1,-21,1,-20,1
172,-15,1,-10,1,5,1,12,1,-10,1,-3,1,-13,1,-39,1,-34,1,-26,1,-16,1,-16,1
173,-14,1,-6,1,8,1,10,1,-11,1,1,1,-7,1,-30,1,-27,1,-21,1,-14,1,-14,1
174,-14,1,-3,1,11,1,8,1,-13,1,4,1,-5,1,-26,1,-24,1,-20,1,-12,1,-14,1
175,-15,1,-2,1,13,1,8,1,-14,1,5,1,-2,1,-22,1,-23,1,-18,1,-11,1,-13,1
176,-16,1,-2,1,14,1,9,1,-15,1,6,1,0,1,-21,1,-23,1,-18,1,-11,1,-13,1
177,-17,1,-2,1,15,1,9,1,-16,1,6,1,1,1,-19,1,-23,1,-19,1,-11,1,-13,1
178,-18,1,-2,1,16,1,10,1,-17,1,7,1,2,1,-19,1,-23,1,-19,1,-12,1,-13,1
179,-18,1,-3,1,15,1,10,1,-17,1,6,1,2,1,-18,1,-23,1,-20,1,-12,1,-14,1
180,-18,1,-3,1,15,1,10,1,-17,1,6,1,3,1,-17,1,-22,1,-19,1,-11,1,-13,1
181,-18,1,-3,1,15,1,10,1,-17,1,6,1,4,1,-17,1,-22,1,-18,1,-11,1,-13,1
182,-18,1,-2,1,16,1,10,1,-17,1,7,1,4,1,-15,1,-21,1,-18,1,-11,1,-13,1
183,-17,1,-1,1,16,1,9,1,-17,1,7,1,4,1,-14,1,-20,1,-18,1,-11,1,-13,1
184,-18,1,-1,1,17,1,9,1,-18,1,8,1,4,1,-14,1,-20,1,-18,1,-11,1,-13,1
185,-20,1,-2,1,18,1,11,1,-19,1,8,1,5,1,-14,1,-20,1,-17,1,-11,1,-12,1
186,-20,1,-2,1,18,1,11,1,-19,1,8,1,5,1,-13,1,-20,1,-17,1,-10,1,-12,1
187,-19,1,-1,1,18,1,10,1,-19,1,8,1,5,1,-12,1,-20,1,-17,1,-10,1,-12,1
188,-19,1,0,1,19,1,9,1,-19,1,9,1,5,1,-12,1,-19,1,-17,1,-10,1,-12,1
189,-20,1,-1,1,19,1,10,1,-20,1,9,1,4,1,-11,1,-19,1,-17,1,-10,1,-12,1
190,-18,1,0,1,18,1,9,1,-18,1,9,1,5,1,-11,1,-18,1,-17,1,-10,1,-12,1
191,-19,1,0,1,19,1,9,1,-19,1,9,1,5,1,-10,1,-18,1,-17,1,-10,1,-12,1
192,-20,1,0,1,20,1,10,1,-20,1,10,1,5,1,-9,1,-18,1,-16,1,-9,1,-12,1
193,-18,1,0,1,18,1,9,1,-18,1,9,1,5,1,-9,1,-17,1,-16,1,-9,1,-11,1
194,-19,1,0,1,19,1,9,1,-19,1,9,1,5,1,-9,1,-17,1,-16,1,-9,1,-12,1
195,-18,1,0,1,18,1,9,1,-18,1,9,1,6,1,-8,1,-16,1,-15,1,-9,1,-10,1
196,-18,1,1,1,19,1,8,1,-18,1,10,1,6,1,-8,1,-16,1,-14,1,-9,1,-10,1
197,-17,1,1,1,18,1,8,1,-17,1,9,1,6,1,-7,1,-16,1,-15,1,-9,1,-11,1
198,-17,1,1,1,18,1,8,1,-17,1,9,1,6,1,-7,1,-16,1,-14,1,-8,1,-10,1
199,-17,1,1,1,18,1,8,1,-17,1,9,1,6,1,-6,1,-14,1,-14,1,-8,1,-10,1
200,-17,1,1,1,18,1,8,1,-17,1,9,1,7,1,-6,1,-14,1,-13,1,-8,1,-9,1
201,-16,1,1,1,17,1,7,1,-16,1,9,1,6,1,-5,1,-14,1,-13,1,-7,1,-9,1
202,-16,1,1,1,17,1,7,1,-16,1,9,1,6,1,-5,1,-14,1,-13,1,-7,1,-9,1
203,-16,1,1,1,17,1,7,1,-16,1,9,1,6,1,-5,1,-13,1,-13,1,-7,1,-9,1
204,-16,1,1,1,17,1,7,1,-16,1,9,1,6,1,-4,1,-12,1,-12,1,-7,1,-9,1
205,-15,1,2,1,17,1,6,1,-16,1,9,1,5,1,-5,1,-12,1,-12,1,-6,1,-9,1
206,-15,1,2,1,17,1,6,1,-16,1,9,1,5,1,-4,1,-12,1,-11,1,-6,1,-8,1
207,-15,1,1,1,16,1,7,1,-15,1,8,1,5,1,-2,1,-12,1,-10,1,-6,1,-7,1
208,-16,1,1,1,17,1,7,1,-16,1,9,1,5,1,-2,1,-12,1,-10,1,-5,1,-7,1
209,-15,1,1,1,16,1,7,1,-15,1,8,1,5,1,-2,1,-11,1,-9,1,-5,1,-7,1
210,-14,1,2,1,16,1,6,1,-15,1,9,1,6,1,-2,1,-10,1,-9,1,-5,1,-7,1
211,-14,1,2,1,16,1,6,1,-15,1,9,1,6,1,-2,1,-10,1,-9,1,-4,1,-6,1
212,-14,1,1,1,15,1,6,1,-14,1,8,1,6,1,-1,1,-10,1,-9,1,-4,1,-6,1
213,-14,1,2,1,16,1,6,1,-15,1,9,1,6,1,-1,1,-10,1,-9,1,-4,1,-6,1
214,-14,1,2,1,16,1,6,1,-15,1,9,1,6,1,-1,1,-10,1,-9,1,-3,1,-5,1
215,-13,1,1,1,14,1,6,1,-13,1,7,1,5,1,0,1,-9,1,-8,1,-4,1,-6,1
216,-12,1,1,1,13,1,5,1,-12,1,7,1,5,1,0,1,-9,1,-8,1,-4,1,-5,1
217,-11,1,1,1,12,1,5,1,-11,1,6,1,5,1,0,1,-8,1,-8,1,-4,1,-5,1
218,-11,1,1,1,12,1,5,1,-11,1,6,1,5,1,1,1,-8,1,-8,1,-4,1,-5,1
219,-12,1,1,1,13,1,5,1,-12,1,7,1,5,1,1,1,-7,1,-7,1,-2,1,-4,1
220,-10,1,2,1,12,1,4,1,-11,1,7,1,6,1,3,1,-6,1,-6,1,-2,1,-4,1
221,-10,1,2,1,12,1,4,1,-11,1,7,1,6,1,3,1,-6,1,-5,1,-2,1,-4,1
222,-10,1,2,1,12,1,4,1,-11,1,7,1,5,1,4,1,-5,1,-5,1,-2,1,-4,1
223,-10,1,2,1,12,1,4,1,-11,1,7,1,5,1,5,1,-4,1,-4,1,-1,1,-3,1
224,-9,1,3,1,12,1,3,1,-10,1,7,1,5,1,6,1,-3,1,-4,1,-1,1,-3,1
225,-8,1,3,1,11,1,2,1,-9,1,7,1,4,1,6,1,-2,1,-3,1,-1,1,-3,1
226,-8,1,3,1,11,1,2,1,-9,1,7,1,4,1,6,1,-2,1,-3,1,0,1,-3,1
227,-7,1,3,1,10,1,2,1,-8,1,6,1,3,1,7,1,0,1,-2,1,0,1,-3,1
228,-6,1,4,1,10,1,1,1,-8,1,7,1,3,1,8,1,0,1,-2,1,2,1,-2,1
229,-6,1,4,1,10,1,1,1,-8,1,7,1,4,1,8,1,1,1,-1,1,1,1,-2,1
230,-6,1,4,1,10,1,1,1,-8,1,7,1,3,1,9,1,1,1,-1,1,1,1,-2,1
231,-6,1,3,1,9,1,1,1,-7,1,6,1,4,1,10,1,2,1,-1,1,1,1,-2,1
232,-5,1,3,1,8,1,1,1,-6,1,5,1,4,1,11,1,2,1,-1,1,1,1,-3,1
233,-5,1,3,1,8,1,1,1,-6,1,5,1,4,1,12,1,3,1,-1,1,1,1,-3,1
234,-5,1,2,1,7,1,1,1,-6,1,4,1,3,1,13,1,4,1,-1,1,1,1,-3,1
235,-5,1,2,1,7,1,1,1,-6,1,4,1,3,1,15,1,4,1,0,1,1,1,-3,1
236,-4,1,3,1,7,1,0,1,-5,1,5,1,3,1,16,1,5,1,0,1,2,1,-3,1
237,-2,1,4,1,6,1,-1,1,-4,1,5,1,2,1,17,1,6,1,1,1,2,1,-3,1
238,-1,1,4,1,5,1,-1,1,-3,1,4,1,2,1,17,1,6,1,2,1,1,1,-2,1
239,-1,1,4,1,5,1,-1,1,-3,1,4,1,3,1,19,1,9,1,4,1,3,1,-1,1
240,-1,1,4,1,5,1,-1,1,-3,1,4,1,3,1,20,1,9,1,4,1,3,1,-1,1
241,0,1,4,1,4,1,-2,1,-2,1,4,1,2,1,21,1,10,1,5,1,3,1,-1,1
242,0,1,4,1,4,1,-2,1,-2,1,4,1,2,1,23,1,11,1,6,1,4,1,0,1
243,0,1,4,1,4,1,-2,1,-2,1,4,1,2,1,23,1,12,1,6,1,4,1,-1,1
244,2,1,5,1,3,1,-3,1,0,1,4,1,1,1,26,1,14,1,8,1,6,1,0,1
245,3,1,5,1,2,1,-4,1,1,1,4,1,0,1,27,1,14,1,8,1,6,1,0,1
246,3,1,6,1,3,1,-4,1,0,1,5,1,0,1,29,1,16,1,8,1,5,1,0,1
247,5,1,6,1,1,1,-5,1,2,1,4,1,1,1,30,1,18,1,10,1,7,1,1,1
248,7,1,6,1,-1,1,-6,1,4,1,3,1,1,1,33,1,20,1,12,1,9,1,3,1
249,7,1,6,1,-1,1,-6,1,4,1,3,1,1,1,34,1,21,1,12,1,9,1,3,1
250,8,1,6,1,-2,1,-7,1,5,1,2,1,1,1,35,1,23,1,13,1,10,1,3,1
251,10,1,5,1,-5,1,-7,1,8,1,0,1,1,1,37,1,23,1,13,1,10,1,3,1
252,10,1,5,1,-5,1,-7,1,8,1,0,1,1,1,39,1,25,1,14,1,10,1,4,1
253,12,1,6,1,-6,1,-9,1,9,1,0,1,1,1,40,1,26,1,16,1,12,1,4,1
254,11,1,6,1,-5,1,-8,1,8,1,1,1,1,1,42,1,28,1,17,1,13,1,5,1
255,12,1,5,1,-7,1,-8,1,10,1,-1,1,1,1,43,1,29,1,17,1,14,1,5,1
256,12,1,5,1,-7,1,-8,1,10,1,-1,1,2,1,46,1,32,1,19,1,15,1,6,1
257,15,1,5,1,-10,1,-10,1,13,1,-2,1,2,1,49,1,33,1,20,1,15,1,6,1
258,17,1,5,1,-12,1,-11,1,15,1,-3,1,1,1,50,1,35,1,21,1,16,1,7,1
259,18,1,5,1,-13,1,-11,1,16,1,-4,1,2,1,52,1,37,1,23,1,17,1,8,1
260,19,1,5,1,-14,1,-12,1,17,1,-4,1,1,1,54,1,38,1,23,1,17,1,9,1
261,22,1,7,1,-15,1,-14,1,19,1,-4,1,1,1,57,1,40,1,26,1,19,1,9,1
262,23,1,6,1,-17,1,-14,1,20,1,-5,1,-1,1,59,1,41,1,26,1,20,1,10,1
263,24,1,6,1,-18,1,-15,1,21,1,-6,1,-1,1,61,1,43,1,27,1,20,1,10,1
264,25,1,6,1,-19,1,-15,1,22,1,-6,1,-2,1,63,1,45,1,29,1,21,1,10,1
265,27,1,7,1,-20,1,-17,1,24,1,-6,1,-2,1,65,1,48,1,31,1,22,1,12,1
266,29,1,7,1,-22,1,-18,1,26,1,-7,1,-2,1,68,1,50,1,32,1,23,1,12,1
267,31,1,7,1,-24,1,-19,1,28,1,-8,1,-2,1,70,1,52,1,34,1,24,1,13,1
268,33,1,8,1,-25,1,-20,1,29,1,-8,1,-3,1,72,1,53,1,34,1,25,1,14,1
269,34,1,8,1,-26,1,-21,1,30,1,-9,1,-3,1,73,1,56,1,36,1,26,1,14,1
270,36,1,8,1,-28,1,-22,1,32,1,-10,1,-4,1,76,1,58,1,37,1,27,1,15,1
271,37,1,9,1,-28,1,-23,1,33,1,-9,1,-4,1,79,1,60,1,39,1,29,1,16,1
272,40,1,9,1,-31,1,-24,1,36,1,-11,1,-5,1,81,1,62,1,40,1,29,1,16,1
273,44,1,9,1,-35,1,-26,1,40,1,-13,1,-5,1,82,1,64,1,41,1,29,1,16,1
274,46,1,10,1,-36,1,-28,1,41,1,-13,1,-6,1,85,1,67,1,43,1,32,1,18,1
275,48,1,10,1,-38,1,-29,1,43,1,-14,1,-7,1,87,1,69,1,44,1,32,1,18,1
276,50,1,10,1,-40,1,-30,1,45,1,-15,1,-7,1,89,1,71,1,45,1,33,1,19,1
277,53,1,10,1,-43,1,-31,1,48,1,-16,1,-8,1,91,1,73,1,47,1,34,1,20,1
278,55,1,11,1,-44,1,-33,1,50,1,-16,1,-8,1,93,1,75,1,48,1,35,1,20,1
279,56,1,11,1,-45,1,-33,1,51,1,-17,1,-9,1,95,1,77,1,49,1,37,1,22,1
280,58,1,11,1,-47,1,-34,1,53,1,-18,1,-10,1,97,1,78,1,50,1,37,1,22,1
281,59,1,10,1,-49,1,-34,1,54,1,-19,1,-11,1,97,1,78,1,51,1,38,1,23,1
282,60,1,10,1,-50,1,-35,1,55,1,-20,1,-13,1,99,1,79,1,52,1,39,1,24,1
283,63,1,10,1,-53,1,-36,1,58,1,-21,1,-13,1,100,1,81,1,53,1,40,1,25,1
284,65,1,10,1,-55,1,-37,1,60,1,-22,1,-13,1,102,1,84,1,55,1,41,1,27,1
285,67,1,10,1,-57,1,-38,1,62,1,-23,1,-14,1,103,1,84,1,56,1,41,1,27,1
286,69,1,11,1,-58,1,-40,1,64,1,-23,1,-15,1,104,1,85,1,57,1,41,1,28,1
287,71,1,11,1,-60,1,-41,1,66,1,-24,1,-16,1,104,1,86,1,57,1,42,1,28,1
288,71,1,10,1,-61,1,-40,1,66,1,-25,1,-17,1,105,1,87,1,58,1,42,1,28,1
289,72,1,10,1,-62,1,-41,1,67,1,-26,1,-18,1,106,1,87,1,58,1,43,1,29,1
290,73,1,9,1,-64,1,-41,1,69,1,-27,1,-18,1,106,1,87,1,58,1,43,1,28,1
291,74,1,9,1,-65,1,-41,1,70,1,-28,1,-19,1,106,1,87,1,58,1,43,1,29,1
292,76,1,10,1,-66,1,-43,1,71,1,-28,1,-19,1,105,1,87,1,58,1,43,1,29,1
293,77,1,9,1,-68,1,-43,1,73,1,-29,1,-21,1,103,1,87,1,58,1,44,1,29,1
294,78,1,10,1,-68,1,-44,1,73,1,-29,1,-21,1,104,1,88,1,58,1,44,1,30,1
295,79,1,9,1,-70,1,-44,1,75,1,-30,1,-21,1,102,1,87,1,58,1,45,1,30,1
296,79,1,7,1,-72,1,-43,1,76,1,-32,1,-21,1,101,1,85,1,57,1,43,1,29,1
297,78,1,7,1,-71,1,-42,1,75,1,-32,1,-22,1,100,1,85,1,56,1,43,1,29,1
298,80,1,8,1,-72,1,-44,1,76,1,-32,1,-22,1,98,1,83,1,56,1,43,1,29,1
299,80,1,8,1,-72,1,-44,1,76,1,-32,1,-23,1,97,1,81,1,54,1,43,1,28,1
300,80,1,7,1,-73,1,-43,1,77,1,-33,1,-24,1,94,1,79,1,54,1,43,1,28,1
301,77,1,6,1,-71,1,-41,1,74,1,-32,1,-23,1,93,1,78,1,53,1,42,1,29,1
302,76,1,5,1,-71,1,-40,1,74,1,-33,1,-23,1,90,1,75,1,51,1,40,1,27,1
303,75,1,5,1,-70,1,-40,1,73,1,-32,1,-23,1,86,1,73,1,49,1,39,1,26,1
304,73,1,5,1,-68,1,-39,1,71,1,-31,1,-22,1,83,1,70,1,47,1,37,1,26,1
305,70,1,5,1,-65,1,-37,1,68,1,-30,1,-21,1,81,1,68,1,45,1,37,1,25,1
306,69,1,4,1,-65,1,-36,1,67,1,-30,1,-20,1,78,1,65,1,43,1,35,1,24,1
307,67,1,4,1,-63,1,-35,1,65,1,-29,1,-19,1,75,1,61,1,40,1,34,1,23,1
308,63,1,3,1,-60,1,-33,1,62,1,-28,1,-19,1,71,1,58,1,39,1,32,1,22,1
309,59,1,2,1,-57,1,-30,1,58,1,-27,1,-19,1,67,1,54,1,36,1,30,1,21,1
310,57,1,2,1,-55,1,-29,1,56,1,-26,1,-17,1,62,1,51,1,33,1,28,1,19,1
311,53,1,2,1,-51,1,-27,1,52,1,-24,1,-17,1,58,1,47,1,31,1,27,1,17,1
312,50,1,2,1,-48,1,-26,1,49,1,-23,1,-16,1,54,1,43,1,28,1,24,1,16,1
313,46,1,2,1,-44,1,-24,1,45,1,-21,1,-14,1,50,1,40,1,25,1,23,1,15,1
314,41,1,1,1,-40,1,-21,1,41,1,-19,1,-13,1,46,1,36,1,23,1,22,1,14,1
315,38,1,1,1,-37,1,-19,1,38,1,-18,1,-13,1,42,1,32,1,21,1,20,1,12,1
316,35,1,1,1,-34,1,-18,1,35,1,-16,1,-12,1,37,1,29,1,18,1,19,1,11,1
317,31,1,1,1,-30,1,-16,1,31,1,-14,1,-12,1,34,1,25,1,15,1,17,1,10,1
318,28,1,1,1,-27,1,-14,1,28,1,-13,1,-10,1,30,1,21,1,14,1,16,1,10,1
319,25,1,2,1,-23,1,-13,1,24,1,-10,1,-9,1,26,1,18,1,11,1,14,1,7,1
320,21,1,2,1,-19,1,-11,1,20,1,-8,1,-9,1,21,1,14,1,9,1,12,1,6,1
321,17,1,2,1,-15,1,-9,1,16,1,-6,1,-7,1,18,1,11,1,6,1,11,1,6,1
322,15,1,2,1,-13,1,-8,1,14,1,-5,1,-6,1,15,1,9,1,5,1,10,1,4,1
323,14,1,3,1,-11,1,-8,1,13,1,-4,1,-5,1,11,1,6,1,4,1,10,1,4,1
324,11,1,3,1,-8,1,-7,1,10,1,-2,1,-5,1,8,1,3,1,2,1,8,1,3,1
325,7,1,2,1,-5,1,-4,1,6,1,-1,1,-5,1,5,1,1,1,1,1,7,1,2,1
326,6,1,2,1,-4,1,-4,1,5,1,-1,1,-4,1,3,1,-1,1,0,1,7,1,1,1
327,4,1,3,1,-1,1,-3,1,3,1,1,1,-4,1,1,1,-1,1,-1,1,6,1,0,1
328,1,1,2,1,1,1,-1,1,0,1,2,1,-3,1,-2,1,-4,1,-2,1,4,1,0,1
329,0,1,2,1,2,1,-1,1,-1,1,2,1,-4,1,-4,1,-6,1,-3,1,3,1,-1,1
330,-1,1,2,1,3,1,0,1,-2,1,2,1,-4,1,-7,1,-8,1,-4,1,3,1,-2,1
331,-4,1,1,1,5,1,1,1,-4,1,3,1,-4,1,-8,1,-9,1,-5,1,2,1,-3,1
332,-5,1,2,1,7,1,1,1,-6,1,4,1,-4,1,-10,1,-11,1,-6,1,1,1,-3,1
333,-4,1,3,1,7,1,0,1,-5,1,5,1,-4,1,-12,1,-12,1,-7,1,1,1,-3,1
334,-7,1,3,1,10,1,2,1,-8,1,6,1,-3,1,-13,1,-13,1,-7,1,1,1,-3,1
335,-7,1,4,1,11,1,1,1,-9,1,7,1,-3,1,-15,1,-14,1,-8,1,0,1,-3,1
336,-9,1,3,1,12,1,3,1,-10,1,7,1,-3,1,-17,1,-15,1,-10,1,0,1,-4,1
337,-9,1,3,1,12,1,3,1,-10,1,7,1,-3,1,-17,1,-15,1,-9,1,1,1,-2,1
338,-10,1,2,1,12,1,4,1,-11,1,7,1,-3,1,-16,1,-16,1,-10,1,0,1,-4,1
339,-10,1,2,1,12,1,4,1,-11,1,7,1,-3,1,-18,1,-17,1,-10,1,-1,1,-4,1
340,-10,1,2,1,12,1,4,1,-11,1,7,1,-3,1,-18,1,-17,1,-11,1,-1,1,-4,1
341,-10,1,2,1,12,1,4,1,-11,1,7,1,-3,1,-20,1,-18,1,-12,1,-2,1,-5,1
342,-13,1,1,1,14,1,6,1,-13,1,7,1,-3,1,-21,1,-20,1,-13,1,-3,1,-7,1
343,-13,1,1,1,14,1,6,1,-13,1,7,1,-2,1,-21,1,-20,1,-13,1,-2,1,-6,1
344,-13,1,2,1,15,1,5,1,-14,1,8,1,-2,1,-21,1,-20,1,-13,1,-2,1,-6,1
345,-13,1,2,1,15,1,5,1,-14,1,8,1,-2,1,-21,1,-21,1,-13,1,-2,1,-6,1
346,-14,1,2,1,16,1,6,1,-15,1,9,1,-2,1,-22,1,-21,1,-14,1,-4,1,-6,1
347,-14,1,2,1,16,1,6,1,-15,1,9,1,-2,1,-22,1,-21,1,-15,1,-4,1,-6,1
348,-15,1,1,1,16,1,7,1,-15,1,8,1,-2,1,-22,1,-22,1,-15,1,-5,1,-7,1
349,-15,1,1,1,16,1,7,1,-15,1,8,1,-2,1,-22,1,-22,1,-16,1,-6,1,-8,1
350,-15,1,1,1,16,1,7,1,-15,1,8,1,-2,1,-23,1,-22,1,-16,1,-6,1,-9,1
351,-16,1,1,1,17,1,7,1,-16,1,9,1,-3,1,-23,1,-22,1,-16,1,-5,1,-9,1
352,-15,1,1,1,16,1,7,1,-15,1,8,1,-3,1,-23,1,-23,1,-17,1,-5,1,-8,1
353,-16,1,1,1,17,1,7,1,-16,1,9,1,-3,1,-23,1,-23,1,-17,1,-5,1,-9,1
354,-15,1,1,1,16,1,7,1,-15,1,8,1,-3,1,-23,1,-23,1,-16,1,-5,1,-9,1
355,-14,1,2,1,16,1,6,1,-15,1,9,1,-3,1,-23,1,-23,1,-16,1,-5,1,-9,1
356,-15,1,2,1,17,1,6,1,-16,1,9,1,-3,1,-23,1,-23,1,-16,1,-4,1,-8,1
357,-16,1,2,1,18,1,7,1,-17,1,10,1,-3,1,-22,1,-22,1,-15,1,-4,1,-8,1
358,-15,1,3,1,18,1,6,1,-16,1,10,1,-2,1,-22,1,-22,1,-14,1,-4,1,-8,1
359,-15,1,3,1,18,1,6,1,-16,1,10,1,-2,1,-21,1,-22,1,-14,1,-3,1,-8,1
360,-15,1,2,1,17,1,6,1,-16,1,9,1,-2,1,-22,1,-23,1,-15,1,-4,1,-8,1
361,-14,1,2,1,16,1,6,1,-15,1,9,1,-3,1,-24,1,-24,1,-16,1,-4,1,-8,1
362,-16,1,3,1,19,1,6,1,-17,1,11,1,-2,1,-23,1,-24,1,-16,1,-4,1,-8,1
363,-16,1,3,1,19,1,6,1,-17,1,11,1,-3,1,-24,1,-24,1,-17,1,-4,1,-9,1
364,-16,1,3,1,19,1,6,1,-17,1,11,1,-1,1,-22,1,-23,1,-16,1,-4,1,-8,1
365,-16,1,3,1,19,1,6,1,-17,1,11,1,-1,1,-22,1,-23,1,-16,1,-4,1,-7,1
366,-15,1,3,1,18,1,6,1,-16,1,10,1,0,1,-22,1,-22,1,-15,1,-4,1,-7,1
367,-15,1,3,1,18,1,6,1,-16,1,10,1,0,1,-22,1,-22,1,-16,1,-4,1,-7,1
368,-15,1,3,1,18,1,6,1,-16,1,10,1,0,1,-21,1,-22,1,-16,1,-3,1,-6,1
369,-15,1,3,1,18,1,6,1,-16,1,10,1,-1,1,-21,1,-23,1,-15,1,-3,1,-6,1
370,-14,1,4,1,18,1,5,1,-16,1,11,1,-1,1,-21,1,-22,1,-16,1,-3,1,-5,1
371,-16,1,3,1,19,1,6,1,-17,1,11,1,-2,1,-22,1,-23,1,-17,1,-4,1,-6,1
372,-16,1,3,1,19,1,6,1,-17,1,11,1,-2,1,-21,1,-22,1,-16,1,-4,1,-6,1
373,-15,1,4,1,19,1,5,1,-17,1,11,1,-1,1,-20,1,-21,1,-16,1,-4,1,-6,1
374,-16,1,4,1,20,1,6,1,-18,1,12,1,0,1,-19,1,-21,1,-16,1,-3,1,-6,1
375,-17,1,3,1,20,1,7,1,-18,1,11,1,0,1,-19,1,-21,1,-16,1,-3,1,-5,1
376,-15,1,4,1,19,1,5,1,-17,1,11,1,0,1,-19,1,-21,1,-16,1,-3,1,-5,1
377,-15,1,3,1,18,1,6,1,-16,1,10,1,-1,1,-19,1,-21,1,-16,1,-3,1,-5,1
378,-14,1,3,1,17,1,5,1,-15,1,10,1,-1,1,-19,1,-21,1,-16,1,-2,1,-5,1
379,-14,1,4,1,18,1,5,1,-16,1,11,1,-1,1,-19,1,-21,1,-15,1,-2,1,-5,1
380,-16,1,4,1,20,1,6,1,-18,1,12,1,0,1,-19,1,-21,1,-15,1,-2,1,-5,1
381,-14,1,4,1,18,1,5,1,-16,1,11,1,-2,1,-20,1,-22,1,-15,1,-2,1,-6,1
382,-15,1,4,1,19,1,5,1,-17,1,11,1,-1,1,-20,1,-22,1,-15,1,-2,1,-6,1
383,-15,1,3,1,18,1,6,1,-16,1,10,1,0,1,-20,1,-21,1,-14,1,-2,1,-6,1
384,-15,1,3,1,18,1,6,1,-16,1,10,1,0,1,-19,1,-21,1,-13,1,-2,1,-6,1
385,-15,1,3,1,18,1,6,1,-16,1,10,1,0,1,-19,1,-21,1,-14,1,-2,1,-6,1
386,-15,1,3,1,18,1,6,1,-16,1,10,1,0,1,-20,1,-22,1,-15,1,-2,1,-6,1
387,-15,1,4,1,19,1,5,1,-17,1,11,1,0,1,-20,1,-22,1,-15,1,-3,1,-6,1
388,-16,1,3,1,19,1,6,1,-17,1,11,1,0,1,-21,1,-22,1,-15,1,-3,1,-6,1
389,-16,1,4,1,20,1,6,1,-18,1,12,1,1,1,-20,1,-22,1,-15,1,-2,1,-6,1
390,-14,1,4,1,18,1,5,1,-16,1,11,1,0,1,-21,1,-22,1,-15,1,-2,1,-6,1
391,-16,1,3,1,19,1,6,1,-17,1,11,1,-2,1,-21,1,-22,1,-15,1,-2,1,-6,1
392,-17,1,3,1,20,1,7,1,-18,1,11,1,-1,1,-21,1,-21,1,-15,1,-1,1,-5,1
393,-15,1,4,1,19,1,5,1,-17,1,11,1,-1,1,-21,1,-21,1,-14,1,-1,1,-5,1
394,-15,1,5,1,20,1,5,1,-17,1,12,1,-2,1,-22,1,-23,1,-15,1,-2,1,-6,1
395,-16,1,5,1,21,1,5,1,-18,1,13,1,-1,1,-22,1,-22,1,-15,1,-1,1,-5,1
396,-16,1,5,1,21,1,5,1,-18,1,13,1,-1,1,-23,1,-22,1,-15,1,-2,1,-5,1
397,-16,1,4,1,20,1,6,1,-18,1,12,1,-1,1,-23,1,-22,1,-15,1,-2,1,-5,1
398,-17,1,3,1,20,1,7,1,-18,1,11,1,-2,1,-24,1,-23,1,-17,1,-2,1,-5,1
399,-16,1,3,1,19,1,6,1,-17,1,11,1,-1,1,-24,1,-23,1,-16,1,-2,1,-6,1
400,-16,1,4,1,20,1,6,1,-18,1,12,1,-2,1,-23,1,-23,1,-16,1,-2,1,-5,1
401,-16,1,4,1,20,1,6,1,-18,1,12,1,-1,1,-24,1,-24,1,-16,1,-4,1,-6,1
402,-16,1,4,1,20,1,6,1,-18,1,12,1,-1,1,-24,1,-24,1,-17,1,-3,1,-6,1
403,-17,1,3,1,20,1,7,1,-18,1,11,1,-1,1,-24,1,-24,1,-17,1,-3,1,-6,1
404,-18,1,3,1,21,1,7,1,-19,1,12,1,-1,1,-24,1,-24,1,-17,1,-3,1,-6,1
405,-18,1,2,1,20,1,8,1,-19,1,11,1,-1,1,-24,1,-24,1,-17,1,-4,1,-6,1
406,-18,1,2,1,20,1,8,1,-19,1,11,1,-1,1,-25,1,-25,1,-17,1,-4,1,-7,1
407,-18,1,3,1,21,1,7,1,-19,1,12,1,-1,1,-25,1,-25,1,-17,1,-4,1,-7,1
408,-17,1,3,1,20,1,7,1,-18,1,11,1,-1,1,-26,1,-26,1,-18,1,-4,1,-7,1
409,-16,1,4,1,20,1,6,1,-18,1,12,1,-2,1,-26,1,-25,1,-18,1,-4,1,-8,1
410,-18,1,4,1,22,1,7,1,-20,1,13,1,-2,1,-26,1,-25,1,-18,1,-5,1,-8,1
411,-18,1,3,1,21,1,7,1,-19,1,12,1,-2,1,-27,1,-26,1,-18,1,-6,1,-9,1
412,-18,1,3,1,21,1,7,1,-19,1,12,1,-3,1,-27,1,-26,1,-18,1,-7,1,-9,1
413,-18,1,4,1,22,1,7,1,-20,1,13,1,-3,1,-28,1,-27,1,-19,1,-6,1,-9,1
414,-18,1,4,1,22,1,7,1,-20,1,13,1,-3,1,-28,1,-27,1,-19,1,-6,1,-9,1
415,-18,1,4,1,22,1,7,1,-20,1,13,1,-3,1,-29,1,-28,1,-20,1,-7,1,-10,1
416,-18,1,4,1,22,1,7,1,-20,1,13,1,-4,1,-29,1,-28,1,-20,1,-7,1,-10,1
417,-18,1,4,1,22,1,7,1,-20,1,13,1,-3,1,-29,1,-27,1,-20,1,-7,1,-10,1
418,-17,1,3,1,20,1,7,1,-18,1,11,1,-3,1,-30,1,-28,1,-20,1,-7,1,-10,1
419,-18,1,3,1,21,1,7,1,-19,1,12,1,-3,1,-30,1,-28,1,-20,1,-7,1,-10,1
420,-18,1,3,1,21,1,7,1,-19,1,12,1,-3,1,-30,1,-29,1,-20,1,-7,1,-10,1
421,-19,1,3,1,22,1,8,1,-20,1,12,1,-3,1,-30,1,-29,1,-20,1,-7,1,-10,1
422,-19,1,3,1,22,1,8,1,-20,1,12,1,-2,1,-30,1,-29,1,-20,1,-6,1,-10,1
423,-18,1,3,1,21,1,7,1,-19,1,12,1,-4,1,-31,1,-29,1,-20,1,-6,1,-10,1
424,-18,1,2,1,20,1,8,1,-19,1,11,1,-3,1,-32,1,-30,1,-21,1,-8,1,-10,1
425,-18,1,3,1,21,1,7,1,-19,1,12,1,-2,1,-32,1,-30,1,-21,1,-6,1,-9,1
426,-18,1,3,1,21,1,7,1,-19,1,12,1,-2,1,-32,1,-30,1,-21,1,-6,1,-9,1
427,-19,1,2,1,21,1,8,1,-20,1,11,1,-2,1,-33,1,-30,1,-22,1,-8,1,-10,1
428,-20,1,2,1,22,1,9,1,-21,1,12,1,-1,1,-32,1,-30,1,-21,1,-7,1,-11,1
429,-20,1,2,1,22,1,9,1,-21,1,12,1,-1,1,-32,1,-30,1,-21,1,-7,1,-11,1
430,-19,1,2,1,21,1,8,1,-20,1,11,1,-1,1,-32,1,-31,1,-22,1,-6,1,-11,1
431,-19,1,2,1,21,1,8,1,-20,1,11,1,0,1,-32,1,-31,1,-22,1,-6,1,-11,1
432,-19,1,2,1,21,1,8,1,-20,1,11,1,-1,1,-32,1,-31,1,-22,1,-7,1,-11,1
433,-20,1,1,1,21,1,9,1,-20,1,11,1,-2,1,-33,1,-32,1,-22,1,-8,1,-12,1
434,-20,1,1,1,21,1,9,1,-20,1,11,1,-2,1,-33,1,-32,1,-23,1,-8,1,-12,1
435,-20,1,1,1,21,1,9,1,-20,1,11,1,-2,1,-34,1,-33,1,-23,1,-8,1,-11,1
436,-20,1,1,1,21,1,9,1,-20,1,11,1,-3,1,-34,1,-33,1,-23,1,-8,1,-12,1
437,-20,1,1,1,21,1,9,1,-20,1,11,1,-2,1,-34,1,-33,1,-23,1,-7,1,-12,1
438,-20,1,2,1,22,1,9,1,-21,1,12,1,-2,1,-34,1,-33,1,-22,1,-7,1,-11,1
439,-20,1,2,1,22,1,9,1,-21,1,12,1,-2,1,-34,1,-32,1,-22,1,-7,1,-11,1
440,-20,1,2,1,22,1,9,1,-21,1,12,1,-2,1,-34,1,-32,1,-22,1,-7,1,-11,1
441,-21,1,2,1,23,1,9,1,-22,1,12,1,-2,1,-35,1,-33,1,-23,1,-7,1,-11,1
442,-20,1,1,1,21,1,9,1,-20,1,11,1,-3,1,-35,1,-33,1,-24,1,-8,1,-11,1
443,-20,1,1,1,21,1,9,1,-20,1,11,1,-3,1,-35,1,-33,1,-23,1,-8,1,-11,1
444,-19,1,2,1,21,1,8,1,-20,1,11,1,-4,1,-36,1,-33,1,-23,1,-8,1,-11,1
445,-21,1,1,1,22,1,10,1,-21,1,11,1,-4,1,-36,1,-34,1,-24,1,-7,1,-11,1
446,-22,1,0,1,22,1,11,1,-22,1,11,1,-4,1,-37,1,-34,1,-24,1,-8,1,-11,1
447,-21,1,1,1,22,1,10,1,-21,1,11,1,-4,1,-37,1,-34,1,-24,1,-8,1,-12,1
448,-20,1,2,1,22,1,9,1,-21,1,12,1,-4,1,-37,1,-34,1,-23,1,-8,1,-12,1
449,-21,1,1,1,22,1,10,1,-21,1,11,1,-4,1,-38,1,-34,1,-23,1,-8,1,-12,1
450,-20,1,1,1,21,1,9,1,-20,1,11,1,-3,1,-37,1,-34,1,-23,1,-8,1,-12,1
451,-19,1,2,1,21,1,8,1,-20,1,11,1,-3,1,-37,1,-34,1,-22,1,-8,1,-12,1
452,-20,1,2,1,22,1,9,1,-21,1,12,1,-3,1,-37,1,-34,1,-23,1,-8,1,-12,1
453,-20,1,3,1,23,1,8,1,-21,1,13,1,-4,1,-37,1,-35,1,-25,1,-9,1,-12,1
454,-21,1,1,1,22,1,10,1,-21,1,11,1,-5,1,-37,1,-36,1,-25,1,-10,1,-13,1
455,-21,1,1,1,22,1,10,1,-21,1,11,1,-4,1,-37,1,-36,1,-25,1,-10,1,-12,1
456,-20,1,2,1,22,1,9,1,-21,1,12,1,-4,1,-38,1,-35,1,-24,1,-9,1,-11,1
457,-21,1,2,1,23,1,9,1,-22,1,12,1,-3,1,-37,1,-35,1,-25,1,-9,1,-12,1
458,-20,1,2,1,22,1,9,1,-21,1,12,1,-3,1,-36,1,-35,1,-24,1,-9,1,-11,1
459,-21,1,1,1,22,1,10,1,-21,1,11,1,-3,1,-36,1,-35,1,-24,1,-9,1,-11,1
460,-21,1,1,1,22,1,10,1,-21,1,11,1,-3,1,-37,1,-35,1,-25,1,-9,1,-12,1
461,-21,1,1,1,22,1,10,1,-21,1,11,1,-2,1,-36,1,-34,1,-25,1,-8,1,-10,1
462,-20,1,1,1,21,1,9,1,-20,1,11,1,-2,1,-36,1,-34,1,-24,1,-8,1,-10,1
463,-19,1,2,1,21,1,8,1,-20,1,11,1,-4,1,-36,1,-34,1,-24,1,-8,1,-10,1
464,-19,1,3,1,22,1,8,1,-20,1,12,1,-4,1,-37,1,-34,1,-24,1,-8,1,-10,1
465,-19,1,2,1,21,1,8,1,-20,1,11,1,-4,1,-37,1,-34,1,-25,1,-8,1,-10,1
466,-19,1,2,1,21,1,8,1,-20,1,11,1,-4,1,-37,1,-34,1,-24,1,-8,1,-10,1
467,-20,1,2,1,22,1,9,1,-21,1,12,1,-4,1,-37,1,-34,1,-24,1,-8,1,-10,1
468,-21,1,2,1,23,1,9,1,-22,1,12,1,-4,1,-37,1,-34,1,-25,1,-8,1,-10,1
469,-20,1,2,1,22,1,9,1,-21,1,12,1,-3,1,-37,1,-34,1,-24,1,-8,1,-10,1
470,-20,1,3,1,23,1,8,1,-21,1,13,1,-4,1,-38,1,-35,1,-25,1,-7,1,-10,1
471,-20,1,3,1,23,1,8,1,-21,1,13,1,-4,1,-39,1,-36,1,-26,1,-7,1,-10,1
472,-22,1,2,1,24,1,10,1,-23,1,13,1,-5,1,-39,1,-36,1,-25,1,-7,1,-11,1
473,-20,1,3,1,23,1,8,1,-21,1,13,1,-4,1,-39,1,-35,1,-25,1,-7,1,-10,1
474,-21,1,2,1,23,1,9,1,-22,1,12,1,-4,1,-37,1,-35,1,-25,1,-7,1,-10,1
475,-22,1,1,1,23,1,10,1,-22,1,12,1,-4,1,-37,1,-34,1,-24,1,-8,1,-10,1
476,-22,1,0,1,22,1,11,1,-22,1,11,1,-4,1,-37,1,-34,1,-24,1,-8,1,-10,1
477,-21,1,1,1,22,1,10,1,-21,1,11,1,-4,1,-37,1,-35,1,-24,1,-8,1,-9,1
478,-20,1,1,1,21,1,9,1,-20,1,11,1,-4,1,-38,1,-35,1,-25,1,-8,1,-9,1
479,-21,1,0,1,21,1,10,1,-21,1,10,1,-4,1,-38,1,-35,1,-25,1,-8,1,-9,1
480,-22,1,0,1,22,1,11,1,-22,1,11,1,-5,1,-38,1,-35,1,-26,1,-9,1,-10,1
481,-21,1,0,1,21,1,10,1,-21,1,10,1,-4,1,-38,1,-35,1,-25,1,-10,1,-10,1
482,-20,1,1,1,21,1,9,1,-20,1,11,1,-4,1,-38,1,-35,1,-25,1,-10,1,-9,1
483,-21,1,1,1,22,1,10,1,-21,1,11,1,-5,1,-38,1,-35,1,-25,1,-9,1,-9,1
484,-21,1,0,1,21,1,10,1,-21,1,10,1,-5,1,-38,1,-36,1,-26,1,-9,1,-9,1
485,-21,1,0,1,21,1,10,1,-21,1,10,1,-5,1,-38,1,-36,1,-25,1,-9,1,-10,1
486,-22,1,1,1,23,1,10,1,-22,1,12,1,-5,1,-39,1,-36,1,-25,1,-9,1,-10,1
487,-22,1,1,1,23,1,10,1,-22,1,12,1,-4,1,-39,1,-36,1,-26,1,-9,1,-9,1
488,-22,1,1,1,23,1,10,1,-22,1,12,1,-4,1,-39,1,-36,1,-25,1,-9,1,-9,1
489,-20,1,2,1,22,1,9,1,-21,1,12,1,-5,1,-39,1,-35,1,-25,1,-9,1,-10,1
490,-20,1,1,1,21,1,9,1,-20,1,11,1,-4,1,-39,1,-35,1,-25,1,-8,1,-9,1
491,-19,1,1,1,20,1,9,1,-19,1,10,1,-3,1,-38,1,-35,1,-25,1,-8,1,-9,1
492,-20,1,1,1,21,1,9,1,-20,1,11,1,-3,1,-38,1,-35,1,-25,1,-8,1,-9,1
493,-20,1,0,1,20,1,10,1,-20,1,10,1,-2,1,-38,1,-35,1,-24,1,-8,1,-10,1
494,-21,1,0,1,21,1,10,1,-21,1,10,1,-2,1,-38,1,-35,1,-24,1,-8,1,-10,1
495,-22,1,-1,1,21,1,11,1,-22,1,10,1,-3,1,-39,1,-35,1,-24,1,-9,1,-11,1
496,-22,1,0,1,22,1,11,1,-22,1,11,1,-4,1,-39,1,-35,1,-24,1,-9,1,-11,1
497,-21,1,0,1,21,1,10,1,-21,1,10,1,-4,1,-38,1,-35,1,-24,1,-8,1,-11,1
498,-22,1,0,1,22,1,11,1,-22,1,11,1,-4,1,-37,1,-35,1,-24,1,-8,1,-11,1
499,-21,1,0,1,21,1,10,1,-21,1,10,1,-4,1,-37,1,-35,1,-24,1,-9,1,-12,1
500,-21,1,1,1,22,1,10,1,-21,1,11,1,-4,1,-37,1,-35,1,-24,1,-8,1,-11,1
501,-22,1,1,1,23,1,10,1,-22,1,12,1,-5,1,-38,1,-36,1,-24,1,-9,1,-12,1
502,-21,1,1,1,22,1,10,1,-21,1,11,1,-4,1,-38,1,-36,1,-25,1,-9,1,-12,1
503,-21,1,1,1,22,1,10,1,-21,1,11,1,-4,1,-38,1,-35,1,-25,1,-9,1,-12,1
504,-21,1,2,1,23,1,9,1,-22,1,12,1,-4,1,-38,1,-36,1,-25,1,-8,1,-11,1
505,-20,1,2,1,22,1,9,1,-21,1,12,1,-3,1,-38,1,-35,1,-25,1,-8,1,-10,1
506,-21,1,2,1,23,1,9,1,-22,1,12,1,-4,1,-39,1,-36,1,-25,1,-8,1,-11,1
507,-23,1,1,1,24,1,11,1,-23,1,12,1,-4,1,-39,1,-36,1,-25,1,-8,1,-11,1
508,-23,1,0,1,23,1,11,1,-23,1,11,1,-5,1,-39,1,-36,1,-25,1,-9,1,-11,1
509,-21,1,1,1,22,1,10,1,-21,1,11,1,-4,1,-39,1,-36,1,-26,1,-8,1,-10,1
510,-23,1,0,1,23,1,11,1,-23,1,11,1,-3,1,-38,1,-36,1,-25,1,-8,1,-10,1
511,-23,1,0,1,23,1,11,1,-23,1,11,1,-3,1,-38,1,-35,1,-24,1,-7,1,-10,1
512,-22,1,0,1,22,1,11,1,-22,1,11,1,-3,1,-38,1,-34,1,-24,1,-7,1,-10,1
513,-21,1,0,1,21,1,10,1,-21,1,10,1,-3,1,-38,1,-34,1,-24,1,-7,1,-10,1
514,-22,1,0,1,22,1,11,1,-22,1,11,1,-2,1,-37,1,-35,1,-23,1,-7,1,-11,1
515,-21,1,0,1,21,1,10,1,-21,1,10,1,-2,1,-37,1,-35,1,-24,1,-7,1,-11,1
516,-20,1,1,1,21,1,9,1,-20,1,11,1,-3,1,-38,1,-35,1,-24,1,-7,1,-11,1
517,-21,1,1,1,22,1,10,1,-21,1,11,1,-4,1,-39,1,-36,1,-24,1,-7,1,-11,1
518,-23,1,1,1,24,1,11,1,-23,1,12,1,-3,1,-38,1,-36,1,-24,1,-7,1,-11,1
519,-23,1,1,1,24,1,11,1,-23,1,12,1,-3,1,-38,1,-36,1,-24,1,-7,1,-10,1
520,-23,1,1,1,24,1,11,1,-23,1,12,1,-3,1,-37,1,-35,1,-23,1,-7,1,-10,1
521,-23,1,0,1,23,1,11,1,-23,1,11,1,-4,1,-37,1,-34,1,-23,1,-7,1,-10,1
522,-22,1,0,1,22,1,11,1,-22,1,11,1,-3,1,-37,1,-34,1,-24,1,-7,1,-10,1
523,-21,1,0,1,21,1,10,1,-21,1,10,1,-4,1,-37,1,-35,1,-24,1,-7,1,-11,1
524,-23,1,-1,1,22,1,12,1,-23,1,10,1,-4,1,-38,1,-36,1,-24,1,-7,1,-11,1
525,-22,1,-1,1,21,1,11,1,-22,1,10,1,-3,1,-38,1,-36,1,-24,1,-7,1,-11,1
526,-22,1,-1,1,21,1,11,1,-22,1,10,1,-3,1,-38,1,-36,1,-24,1,-7,1,-11,1
527,-22,1,-1,1,21,1,11,1,-22,1,10,1,-4,1,-38,1,-36,1,-25,1,-7,1,-11,1
528,-24,1,-1,1,23,1,12,1,-24,1,11,1,-4,1,-39,1,-37,1,-25,1,-8,1,-11,1
529,-23,1,-1,1,22,1,12,1,-23,1,10,1,-4,1,-39,1,-37,1,-26,1,-8,1,-12,1
530,-22,1,-1,1,21,1,11,1,-22,1,10,1,-4,1,-39,1,-36,1,-25,1,-8,1,-12,1
531,-23,1,-1,1,22,1,12,1,-23,1,10,1,-2,1,-39,1,-35,1,-25,1,-7,1,-12,1
532,-22,1,-1,1,21,1,11,1,-22,1,10,1,-3,1,-39,1,-34,1,-24,1,-7,1,-11,1
533,-22,1,-1,1,21,1,11,1,-22,1,10,1,-2,1,-38,1,-34,1,-24,1,-7,1,-11,1
534,-23,1,-2,1,21,1,12,1,-22,1,9,1,-2,1,-38,1,-35,1,-25,1,-7,1,-11,1
535,-22,1,-2,1,20,1,12,1,-21,1,9,1,-3,1,-39,1,-35,1,-25,1,-7,1,-11,1
536,-22,1,-2,1,20,1,12,1,-21,1,9,1,-3,1,-40,1,-36,1,-25,1,-7,1,-11,1
537,-22,1,-2,1,20,1,12,1,-21,1,9,1,-5,1,-41,1,-37,1,-25,1,-8,1,-11,1
538,-23,1,-2,1,21,1,12,1,-22,1,9,1,-5,1,-40,1,-36,1,-24,1,-7,1,-10,1
539,-22,1,-1,1,21,1,11,1,-22,1,10,1,-4,1,-39,1,-36,1,-23,1,-7,1,-10,1
540,-21,1,-1,1,20,1,11,1,-21,1,9,1,-4,1,-39,1,-36,1,-23,1,-7,1,-10,1
541,-20,1,0,1,20,1,10,1,-20,1,10,1,-5,1,-39,1,-36,1,-23,1,-7,1,-10,1
542,-21,1,0,1,21,1,10,1,-21,1,10,1,-5,1,-39,1,-36,1,-24,1,-7,1,-10,1
543,-23,1,-1,1,22,1,12,1,-23,1,10,1,-6,1,-39,1,-36,1,-24,1,-8,1,-10,1
544,-21,1,0,1,21,1,10,1,-21,1,10,1,-4,1,-38,1,-35,1,-24,1,-7,1,-9,1
545,-22,1,0,1,22,1,11,1,-22,1,11,1,-4,1,-38,1,-35,1,-23,1,-7,1,-9,1
546,-21,1,0,1,21,1,10,1,-21,1,10,1,-4,1,-38,1,-35,1,-24,1,-7,1,-9,1
547,-21,1,1,1,22,1,10,1,-21,1,11,1,-5,1,-39,1,-35,1,-24,1,-7,1,-9,1
548,-22,1,0,1,22,1,11,1,-22,1,11,1,-5,1,-39,1,-36,1,-24,1,-7,1,-10,1
549,-21,1,0,1,21,1,10,1,-21,1,10,1,-5,1,-39,1,-36,1,-24,1,-7,1,-9,1
550,-22,1,0,1,22,1,11,1,-22,1,11,1,-4,1,-39,1,-36,1,-24,1,-7,1,-9,1
551,-23,1,0,1,23,1,11,1,-23,1,11,1,-3,1,-39,1,-36,1,-24,1,-7,1,-9,1
552,-22,1,0,1,22,1,11,1,-22,1,11,1,-3,1,-39,1,-36,1,-24,1,-7,1,-9,1
553,-22,1,0,1,22,1,11,1,-22,1,11,1,-4,1,-39,1,-36,1,-25,1,-7,1,-9,1
554,-22,1,0,1,22,1,11,1,-22,1,11,1,-3,1,-40,1,-36,1,-25,1,-6,1,-9,1
555,-21,1,0,1,21,1,10,1,-21,1,10,1,-3,1,-39,1,-36,1,-24,1,-6,1,-8,1
556,-21,1,-1,1,20,1,11,1,-21,1,9,1,-3,1,-39,1,-36,1,-25,1,-6,1,-9,1
557,-22,1,-1,1,21,1,11,1,-22,1,10,1,-2,1,-38,1,-34,1,-23,1,-5,1,-8,1
558,-21,1,-1,1,20,1,11,1,-21,1,9,1,-3,1,-39,1,-36,1,-23,1,-5,1,-9,1
559,-21,1,-1,1,20,1,11,1,-21,1,9,1,-4,1,-40,1,-37,1,-23,1,-7,1,-10,1
560,-21,1,0,1,21,1,10,1,-21,1,10,1,-5,1,-39,1,-36,1,-23,1,-8,1,-9,1
561,-21,1,0,1,21,1,10,1,-21,1,10,1,-5,1,-39,1,-36,1,-23,1,-8,1,-9,1
562,-22,1,-1,1,21,1,11,1,-22,1,10,1,-5,1,-39,1,-36,1,-24,1,-8,1,-10,1
563,-21,1,0,1,21,1,10,1,-21,1,10,1,-5,1,-38,1,-35,1,-23,1,-7,1,-8,1
564,-21,1,0,1,21,1,10,1,-21,1,10,1,-4,1,-38,1,-35,1,-23,1,-8,1,-9,1
565,-22,1,0,1,22,1,11,1,-22,1,11,1,-3,1,-40,1,-37,1,-24,1,-9,1,-9,1
566,-21,1,0,1,21,1,10,1,-21,1,10,1,-3,1,-39,1,-37,1,-25,1,-9,1,-9,1
567,-23,1,-1,1,22,1,12,1,-23,1,10,1,-3,1,-39,1,-37,1,-25,1,-9,1,-10,1
568,-24,1,-1,1,23,1,12,1,-24,1,11,1,-2,1,-39,1,-36,1,-26,1,-8,1,-9,1
569,-23,1,-1,1,22,1,12,1,-23,1,10,1,-2,1,-39,1,-36,1,-24,1,-7,1,-9,1
570,-22,1,-1,1,21,1,11,1,-22,1,10,1,-2,1,-38,1,-36,1,-24,1,-7,1,-8,1
571,-21,1,-1,1,20,1,11,1,-21,1,9,1,-2,1,-38,1,-36,1,-24,1,-7,1,-9,1
572,-19,1,-1,1,18,1,10,1,-19,1,8,1,-2,1,-38,1,-36,1,-24,1,-6,1,-8,1
573,-21,1,-2,1,19,1,11,1,-20,1,8,1,-2,1,-39,1,-36,1,-25,1,-7,1,-10,1
574,-22,1,-2,1,20,1,12,1,-21,1,9,1,-2,1,-37,1,-36,1,-24,1,-8,1,-10,1
575,-20,1,0,1,20,1,10,1,-20,1,10,1,-3,1,-38,1,-35,1,-24,1,-8,1,-10,1
576,-19,1,0,1,19,1,9,1,-19,1,9,1,-2,1,-38,1,-35,1,-24,1,-7,1,-10,1
577,-18,1,1,1,19,1,8,1,-18,1,10,1,-3,1,-37,1,-34,1,-24,1,-7,1,-9,1
578,-19,1,1,1,20,1,9,1,-19,1,10,1,-2,1,-37,1,-34,1,-24,1,-7,1,-9,1
579,-19,1,2,1,21,1,8,1,-20,1,11,1,-3,1,-37,1,-34,1,-24,1,-7,1,-9,1
580,-17,1,3,1,20,1,7,1,-18,1,11,1,-3,1,-37,1,-34,1,-23,1,-7,1,-9,1
581,-17,1,5,1,22,1,6,1,-19,1,13,1,-3,1,-36,1,-33,1,-23,1,-6,1,-8,1
582,-17,1,4,1,21,1,6,1,-19,1,12,1,-1,1,-35,1,-31,1,-22,1,-6,1,-8,1
583,-16,1,4,1,20,1,6,1,-18,1,12,1,0,1,-33,1,-29,1,-20,1,-4,1,-7,1
584,-16,1,4,1,20,1,6,1,-18,1,12,1,2,1,-31,1,-29,1,-19,1,-4,1,-7,1
585,-15,1,4,1,19,1,5,1,-17,1,11,1,3,1,-30,1,-29,1,-19,1,-3,1,-6,1
586,-15,1,5,1,20,1,5,1,-17,1,12,1,4,1,-29,1,-28,1,-19,1,-2,1,-5,1
587,-14,1,6,1,20,1,4,1,-17,1,13,1,4,1,-29,1,-28,1,-17,1,-1,1,-4,1
588,-14,1,7,1,21,1,3,1,-17,1,14,1,2,1,-30,1,-28,1,-18,1,-1,1,-5,1
589,-15,1,5,1,20,1,5,1,-17,1,12,1,2,1,-30,1,-28,1,-19,1,-1,1,-6,1
590,-16,1,5,1,21,1,5,1,-18,1,13,1,3,1,-30,1,-28,1,-18,1,-1,1,-5,1
591,-15,1,4,1,19,1,5,1,-17,1,11,1,2,1,-30,1,-28,1,-18,1,-1,1,-5,1
592,-14,1,4,1,18,1,5,1,-16,1,11,1,2,1,-29,1,-28,1,-19,1,-2,1,-6,1
593,-13,1,3,1,16,1,5,1,-14,1,9,1,1,1,-30,1,-28,1,-18,1,-2,1,-6,1
594,-14,1,3,1,17,1,5,1,-15,1,10,1,1,1,-30,1,-28,1,-19,1,-2,1,-7,1
595,-13,1,3,1,16,1,5,1,-14,1,9,1,0,1,-30,1,-29,1,-19,1,-3,1,-7,1
596,-12,1,4,1,16,1,4,1,-14,1,10,1,-1,1,-31,1,-29,1,-19,1,-3,1,-7,1
597,-12,1,4,1,16,1,4,1,-14,1,10,1,-3,1,-32,1,-29,1,-19,1,-2,1,-8,1
598,-12,1,5,1,17,1,3,1,-14,1,11,1,-4,1,-32,1,-28,1,-17,1,-1,1,-5,1
599,-10,1,9,1,19,1,0,1,-14,1,14,1,-6,1,-32,1,-26,1,-16,1,0,1,-3,1
600,-7,1,11,1,18,1,-2,1,-12,1,14,1,-8,1,-32,1,-26,1,-15,1,2,1,-3,1
601,-7,1,12,1,19,1,-2,1,-13,1,15,1,-8,1,-33,1,-25,1,-14,1,3,1,-2,1
602,-7,1,11,1,18,1,-2,1,-12,1,14,1,-9,1,-34,1,-26,1,-15,1,2,1,-3,1
603,-7,1,11,1,18,1,-2,1,-12,1,14,1,-9,1,-35,1,-28,1,-16,1,1,1,-3,1
604,-8,1,9,1,17,1,0,1,-12,1,13,1,-10,1,-36,1,-28,1,-16,1,1,1,-4,1
605,-8,1,8,1,16,1,0,1,-12,1,12,1,-9,1,-36,1,-29,1,-17,1,0,1,-5,1
606,-7,1,7,1,14,1,0,1,-10,1,10,1,-11,1,-39,1,-31,1,-19,1,-1,1,-6,1
607,-7,1,6,1,13,1,0,1,-10,1,9,1,-11,1,-38,1,-32,1,-19,1,-1,1,-6,1
608,-9,1,6,1,15,1,1,1,-12,1,10,1,-10,1,-38,1,-32,1,-19,1,-2,1,-7,1
609,-7,1,7,1,14,1,0,1,-10,1,10,1,-10,1,-38,1,-33,1,-20,1,-2,1,-7,1
610,-8,1,6,1,14,1,1,1,-11,1,10,1,-10,1,-38,1,-33,1,-20,1,-2,1,-7,1
611,-6,1,6,1,12,1,0,1,-9,1,9,1,-11,1,-38,1,-34,1,-21,1,-2,1,-6,1
612,-6,1,6,1,12,1,0,1,-9,1,9,1,-12,1,-41,1,-35,1,-22,1,-3,1,-7,1
613,-6,1,6,1,12,1,0,1,-9,1,9,1,-12,1,-41,1,-35,1,-22,1,-3,1,-6,1
614,-5,1,6,1,11,1,0,1,-8,1,8,1,-10,1,-40,1,-33,1,-21,1,-2,1,-6,1
615,-6,1,3,1,9,1,1,1,-7,1,6,1,-10,1,-40,1,-33,1,-21,1,-3,1,-6,1
616,-5,1,3,1,8,1,1,1,-6,1,5,1,-8,1,-38,1,-33,1,-21,1,-2,1,-5,1
617,-6,1,1,1,7,1,2,1,-6,1,4,1,-8,1,-38,1,-32,1,-21,1,-2,1,-5,1
618,-9,1,1,1,10,1,4,1,-9,1,5,1,-7,1,-38,1,-32,1,-20,1,-2,1,-5,1
619,-8,1,1,1,9,1,3,1,-8,1,5,1,-7,1,-39,1,-33,1,-20,1,-2,1,-6,1
620,-7,1,2,1,9,1,2,1,-8,1,5,1,-8,1,-40,1,-35,1,-21,1,-2,1,-6,1
621,-9,1,2,1,11,1,3,1,-10,1,6,1,-8,1,-41,1,-35,1,-22,1,-3,1,-6,1
622,-10,1,2,1,12,1,4,1,-11,1,7,1,-8,1,-41,1,-36,1,-22,1,-3,1,-6,1
623,-13,1,0,1,13,1,6,1,-13,1,6,1,-7,1,-41,1,-37,1,-23,1,-4,1,-7,1
624,-14,1,0,1,14,1,7,1,-14,1,7,1,-5,1,-41,1,-37,1,-23,1,-5,1,-9,1
625,-16,1,-1,1,15,1,8,1,-16,1,7,1,-5,1,-40,1,-37,1,-25,1,-6,1,-9,1
626,-19,1,-3,1,16,1,11,1,-18,1,6,1,-7,1,-41,1,-38,1,-27,1,-8,1,-11,1
627,-20,1,-3,1,17,1,11,1,-19,1,7,1,-8,1,-42,1,-39,1,-26,1,-9,1,-12,1
628,-20,1,-3,1,17,1,11,1,-19,1,7,1,-8,1,-43,1,-39,1,-26,1,-9,1,-12,1
629,-22,1,-5,1,17,1,13,1,-20,1,6,1,-7,1,-43,1,-39,1,-27,1,-9,1,-13,1
630,-23,1,-5,1,18,1,14,1,-21,1,6,1,-6,1,-43,1,-39,1,-27,1,-10,1,-13,1
631,-25,1,-7,1,18,1,16,1,-22,1,5,1,-5,1,-43,1,-40,1,-29,1,-12,1,-13,1
632,-24,1,-7,1,17,1,15,1,-21,1,5,1,-5,1,-43,1,-42,1,-30,1,-13,1,-14,1
633,-23,1,-5,1,18,1,14,1,-21,1,6,1,-6,1,-44,1,-42,1,-29,1,-12,1,-13,1
634,-23,1,-5,1,18,1,14,1,-21,1,6,1,-5,1,-43,1,-42,1,-29,1,-12,1,-13,1
635,-24,1,-5,1,19,1,14,1,-22,1,7,1,-5,1,-43,1,-42,1,-29,1,-12,1,-12,1
636,-24,1,-6,1,18,1,15,1,-21,1,6,1,-5,1,-44,1,-42,1,-30,1,-12,1,-12,1
637,-23,1,-6,1,17,1,14,1,-20,1,5,1,-4,1,-44,1,-42,1,-29,1,-11,1,-12,1
638,-23,1,-5,1,18,1,14,1,-21,1,6,1,-4,1,-44,1,-42,1,-29,1,-11,1,-12,1
639,-24,1,-6,1,18,1,15,1,-21,1,6,1,-4,1,-43,1,-42,1,-29,1,-12,1,-13,1
640,-22,1,-5,1,17,1,13,1,-20,1,6,1,-4,1,-42,1,-39,1,-29,1,-11,1,-13,1
641,-24,1,-6,1,18,1,15,1,-21,1,6,1,-4,1,-42,1,-40,1,-29,1,-12,1,-13,1
642,-23,1,-7,1,16,1,15,1,-20,1,4,1,-4,1,-42,1,-40,1,-29,1,-12,1,-14,1
643,-24,1,-7,1,17,1,15,1,-21,1,5,1,-5,1,-43,1,-41,1,-30,1,-13,1,-14,1
644,-26,1,-7,1,19,1,16,1,-23,1,6,1,-5,1,-43,1,-41,1,-30,1,-13,1,-14,1
645,-25,1,-6,1,19,1,15,1,-22,1,6,1,-4,1,-43,1,-41,1,-29,1,-12,1,-13,1
646,-24,1,-6,1,18,1,15,1,-21,1,6,1,-3,1,-42,1,-41,1,-30,1,-12,1,-13,1
647,-26,1,-6,1,20,1,16,1,-23,1,7,1,-3,1,-43,1,-41,1,-29,1,-12,1,-14,1
648,-26,1,-7,1,19,1,16,1,-23,1,6,1,-4,1,-43,1,-40,1,-29,1,-12,1,-14,1
649,-24,1,-6,1,18,1,15,1,-21,1,6,1,-3,1,-42,1,-39,1,-28,1,-11,1,-13,1
650,-25,1,-6,1,19,1,15,1,-22,1,6,1,-3,1,-42,1,-39,1,-28,1,-11,1,-13,1
651,-25,1,-5,1,20,1,15,1,-23,1,7,1,-4,1,-42,1,-39,1,-28,1,-11,1,-13,1
652,-27,1,-6,1,21,1,16,1,-24,1,7,1,-3,1,-42,1,-40,1,-29,1,-11,1,-13,1
653,-26,1,-5,1,21,1,15,1,-24,1,8,1,-3,1,-42,1,-40,1,-28,1,-10,1,-13,1
654,-26,1,-6,1,20,1,16,1,-23,1,7,1,-3,1,-41,1,-40,1,-28,1,-11,1,-13,1
655,-25,1,-7,1,18,1,16,1,-22,1,5,1,-3,1,-41,1,-40,1,-28,1,-11,1,-13,1
656,-25,1,-7,1,18,1,16,1,-22,1,5,1,-3,1,-41,1,-40,1,-28,1,-11,1,-13,1
657,-26,1,-7,1,19,1,16,1,-23,1,6,1,-3,1,-41,1,-40,1,-28,1,-12,1,-14,1
658,-26,1,-7,1,19,1,16,1,-23,1,6,1,-2,1,-41,1,-40,1,-28,1,-12,1,-14,1
659,-28,1,-5,1,23,1,16,1,-26,1,9,1,1,1,-38,1,-37,1,-27,1,-11,1,-14,1
660,-31,1,-4,1,27,1,17,1,-29,1,11,1,5,1,-36,1,-36,1,-27,1,-12,1,-15,1
661,-36,1,-5,1,31,1,20,1,-34,1,13,1,9,1,-31,1,-35,1,-28,1,-14,1,-18,1
662,-41,1,-7,1,34,1,24,1,-38,1,13,1,16,1,-26,1,-34,1,-30,1,-17,1,-21,1
663,-43,1,-10,1,33,1,26,1,-38,1,11,1,24,1,-14,1,-30,1,-31,1,-20,1,-24,1
664,-45,1,-14,1,31,1,29,1,-38,1,8,1,34,1,1,1,-23,1,-30,1,-22,1,-28,1
665,-44,1,-19,1,25,1,31,1,-35,1,3,1,41,1,17,1,-14,1,-27,1,-23,1,-31,1
666,-42,1,-26,1,16,1,34,1,-29,1,-5,1,47,1,36,1,-3,1,-23,1,-23,1,-34,1
667,-38,1,-31,1,7,1,34,1,-23,1,-12,1,54,1,55,1,10,1,-15,1,-20,1,-35,1
668,-29,1,-35,1,-6,1,32,1,-12,1,-21,1,58,1,75,1,25,1,-3,1,-13,1,-31,1
669,-16,1,-38,1,-22,1,27,1,3,1,-30,1,61,1,109,1,51,1,15,1,-2,1,-26,1
670,8,1,-38,1,-46,1,15,1,27,1,-42,1,61,1,143,1,82,1,40,1,16,1,-15,1
671,43,1,-33,1,-76,1,-5,1,59,1,-54,1,51,1,169,1,116,1,72,1,42,1,3,1
672,82,1,-21,1,-103,1,-30,1,92,1,-62,1,34,1,181,1,151,1,110,1,73,1,27,1
673,126,1,-4,1,-130,1,-61,1,128,1,-67,1,6,1,171,1,188,1,158,1,112,1,57,1
674,172,1,15,1,-157,1,-93,1,165,1,-71,1,-33,1,139,1,217,1,205,1,154,1,88,1
675,216,1,34,1,-182,1,-125,1,199,1,-74,1,-69,1,107,1,241,1,250,1,193,1,117,1
676,245,1,51,1,-194,1,-148,1,220,1,-71,1,-98,1,74,1,259,1,290,1,229,1,144,1
677,262,1,70,1,-192,1,-166,1,227,1,-61,1,-122,1,43,1,275,1,328,1,262,1,168,1
678,267,1,86,1,-181,1,-176,1,224,1,-47,1,-138,1,11,1,278,1,348,1,284,1,187,1
679,257,1,99,1,-158,1,-178,1,208,1,-29,1,-141,1,-22,1,260,1,337,1,284,1,192,1
680,238,1,107,1,-131,1,-172,1,185,1,-12,1,-145,1,-60,1,231,1,312,1,272,1,190,1
681,207,1,108,1,-99,1,-157,1,153,1,5,1,-139,1,-91,1,198,1,275,1,245,1,177,1
682,173,1,92,1,-81,1,-132,1,127,1,6,1,-123,1,-99,1,168,1,227,1,201,1,148,1
683,141,1,71,1,-70,1,-106,1,106,1,1,1,-110,1,-103,1,133,1,173,1,148,1,111,1
684,112,1,51,1,-61,1,-81,1,87,1,-5,1,-104,1,-118,1,81,1,114,1,102,1,81,1
685,84,1,34,1,-50,1,-59,1,67,1,-8,1,-102,1,-145,1,16,1,53,1,60,1,53,1
686,52,1,16,1,-36,1,-34,1,44,1,-10,1,-94,1,-168,1,-52,1,-6,1,20,1,27,1
687,17,1,0,1,-17,1,-8,1,17,1,-8,1,-82,1,-182,1,-110,1,-59,1,-14,1,4,1
688,-2,1,-12,1,-10,1,7,1,4,1,-11,1,-73,1,-177,1,-130,1,-81,1,-33,1,-11,1
689,-10,1,-20,1,-10,1,15,1,0,1,-15,1,-67,1,-161,1,-123,1,-79,1,-37,1,-20,1
690,-14,1,-26,1,-12,1,20,1,-1,1,-19,1,-61,1,-152,1,-120,1,-80,1,-39,1,-24,1
691,-19,1,-30,1,-11,1,24,1,-4,1,-21,1,-55,1,-145,1,-116,1,-78,1,-41,1,-29,1
692,-26,1,-32,1,-6,1,29,1,-10,1,-19,1,-50,1,-137,1,-109,1,-76,1,-43,1,-31,1
693,-29,1,-34,1,-5,1,31,1,-12,1,-20,1,-49,1,-129,1,-104,1,-74,1,-43,1,-33,1
694,-29,1,-35,1,-6,1,32,1,-12,1,-21,1,-43,1,-120,1,-100,1,-72,1,-42,1,-33,1
695,-27,1,-31,1,-4,1,29,1,-12,1,-18,1,-39,1,-109,1,-91,1,-66,1,-38,1,-31,1
696,-25,1,-25,1,0,1,25,1,-13,1,-13,1,-35,1,-97,1,-79,1,-58,1,-32,1,-27,1
697,-23,1,-20,1,3,1,21,1,-13,1,-9,1,-29,1,-83,1,-68,1,-49,1,-26,1,-23,1
698,-20,1,-17,1,3,1,18,1,-12,1,-7,1,-21,1,-67,1,-55,1,-41,1,-21,1,-21,1
699,-18,1,-13,1,5,1,15,1,-12,1,-4,1,-13,1,-51,1,-43,1,-33,1,-16,1,-17,1
700,-16,1,-8,1,8,1,12,1,-12,1,0,1,-8,1,-40,1,-36,1,-28,1,-13,1,-15,1
701,-14,1,-5,1,9,1,9,1,-12,1,2,1,-5,1,-34,1,-31,1,-24,1,-11,1,-14,1
702,-15,1,-4,1,11,1,9,1,-13,1,3,1,-1,1,-29,1,-28,1,-23,1,-9,1,-13,1
703,-18,1,-5,1,13,1,11,1,-16,1,4,1,0,1,-27,1,-28,1,-23,1,-10,1,-13,1
704,-18,1,-5,1,13,1,11,1,-16,1,4,1,1,1,-26,1,-28,1,-23,1,-9,1,-13,1
705,-19,1,-5,1,14,1,12,1,-17,1,4,1,3,1,-25,1,-27,1,-22,1,-9,1,-12,1
706,-20,1,-6,1,14,1,13,1,-17,1,4,1,4,1,-24,1,-28,1,-22,1,-9,1,-12,1
707,-20,1,-6,1,14,1,13,1,-17,1,4,1,4,1,-23,1,-28,1,-23,1,-9,1,-13,1
708,-19,1,-6,1,13,1,12,1,-16,1,3,1,5,1,-22,1,-26,1,-23,1,-9,1,-13,1
709,-19,1,-6,1,13,1,12,1,-16,1,3,1,5,1,-21,1,-25,1,-24,1,-10,1,-14,1
710,-20,1,-5,1,15,1,12,1,-18,1,5,1,5,1,-20,1,-25,1,-24,1,-10,1,-14,1
711,-20,1,-5,1,15,1,12,1,-18,1,5,1,5,1,-20,1,-25,1,-24,1,-10,1,-14,1
712,-20,1,-5,1,15,1,12,1,-18,1,5,1,5,1,-20,1,-25,1,-23,1,-10,1,-14,1
713,-20,1,-4,1,16,1,12,1,-18,1,6,1,6,1,-19,1,-25,1,-23,1,-9,1,-15,1
714,-20,1,-4,1,16,1,12,1,-18,1,6,1,7,1,-18,1,-24,1,-23,1,-9,1,-14,1
715,-20,1,-4,1,16,1,12,1,-18,1,6,1,7,1,-19,1,-25,1,-22,1,-9,1,-14,1
716,-21,1,-4,1,17,1,12,1,-19,1,6,1,6,1,-18,1,-24,1,-21,1,-9,1,-13,1
717,-20,1,-4,1,16,1,12,1,-18,1,6,1,7,1,-18,1,-22,1,-20,1,-8,1,-13,1
718,-18,1,-3,1,15,1,10,1,-17,1,6,1,7,1,-17,1,-22,1,-20,1,-8,1,-12,1
719,-19,1,-4,1,15,1,11,1,-17,1,5,1,8,1,-15,1,-20,1,-20,1,-7,1,-12,1
720,-20,1,-4,1,16,1,12,1,-18,1,6,1,9,1,-15,1,-20,1,-20,1,-7,1,-12,1
721,-19,1,-4,1,15,1,11,1,-17,1,5,1,9,1,-15,1,-21,1,-20,1,-8,1,-12,1
722,-20,1,-4,1,16,1,12,1,-18,1,6,1,8,1,-15,1,-20,1,-20,1,-7,1,-12,1
723,-19,1,-3,1,16,1,11,1,-18,1,6,1,9,1,-15,1,-20,1,-19,1,-7,1,-12,1
724,-17,1,-3,1,14,1,10,1,-16,1,5,1,7,1,-14,1,-20,1,-19,1,-7,1,-12,1
725,-17,1,-3,1,14,1,10,1,-16,1,5,1,7,1,-14,1,-19,1,-19,1,-6,1,-12,1
726,-17,1,-2,1,15,1,9,1,-16,1,6,1,7,1,-14,1,-19,1,-18,1,-5,1,-11,1
727,-17,1,-2,1,15,1,9,1,-16,1,6,1,7,1,-14,1,-19,1,-18,1,-5,1,-11,1
728,-17,1,-2,1,15,1,9,1,-16,1,6,1,7,1,-12,1,-18,1,-19,1,-7,1,-12,1
729,-17,1,-2,1,15,1,9,1,-16,1,6,1,6,1,-12,1,-17,1,-18,1,-6,1,-11,1
730,-16,1,-1,1,15,1,8,1,-16,1,7,1,6,1,-11,1,-17,1,-17,1,-6,1,-10,1
731,-15,1,-1,1,14,1,8,1,-15,1,6,1,6,1,-11,1,-17,1,-17,1,-5,1,-10,1
732,-17,1,-2,1,15,1,9,1,-16,1,6,1,6,1,-11,1,-17,1,-18,1,-4,1,-10,1
733,-18,1,-3,1,15,1,10,1,-17,1,6,1,6,1,-11,1,-17,1,-17,1,-5,1,-10,1
734,-17,1,-3,1,14,1,10,1,-16,1,5,1,6,1,-9,1,-16,1,-16,1,-5,1,-9,1
735,-15,1,-2,1,13,1,8,1,-14,1,5,1,6,1,-8,1,-15,1,-15,1,-4,1,-9,1
736,-15,1,-2,1,13,1,8,1,-14,1,5,1,7,1,-7,1,-14,1,-15,1,-3,1,-8,1
737,-14,1,-1,1,13,1,7,1,-14,1,6,1,7,1,-6,1,-14,1,-14,1,-2,1,-7,1
738,-14,1,-2,1,12,1,8,1,-13,1,5,1,7,1,-6,1,-13,1,-12,1,-2,1,-7,1
739,-14,1,-2,1,12,1,8,1,-13,1,5,1,8,1,-6,1,-11,1,-12,1,-1,1,-7,1
740,-13,1,-1,1,12,1,7,1,-13,1,5,1,7,1,-5,1,-12,1,-12,1,-2,1,-7,1
741,-13,1,-1,1,12,1,7,1,-13,1,5,1,7,1,-4,1,-11,1,-12,1,-2,1,-7,1
742,-13,1,-1,1,12,1,7,1,-13,1,5,1,7,1,-3,1,-11,1,-12,1,-2,1,-8,1
743,-12,1,-1,1,11,1,6,1,-12,1,5,1,7,1,-5,1,-11,1,-12,1,-2,1,-8,1
744,-13,1,-1,1,12,1,7,1,-13,1,5,1,6,1,-5,1,-11,1,-11,1,-2,1,-9,1
745,-13,1,0,1,13,1,6,1,-13,1,6,1,6,1,-5,1,-10,1,-11,1,-2,1,-8,1
746,-13,1,0,1,13,1,6,1,-13,1,6,1,6,1,-3,1,-8,1,-10,1,0,1,-8,1
747,-11,1,1,1,12,1,5,1,-11,1,6,1,7,1,-1,1,-7,1,-10,1,0,1,-6,1
748,-11,1,-1,1,10,1,6,1,-11,1,4,1,6,1,-1,1,-7,1,-11,1,-1,1,-7,1
749,-13,1,-1,1,12,1,7,1,-13,1,5,1,8,1,0,1,-6,1,-10,1,0,1,-6,1
750,-11,1,-1,1,10,1,6,1,-11,1,4,1,7,1,2,1,-6,1,-9,1,0,1,-6,1
751,-10,1,-1,1,9,1,5,1,-10,1,4,1,7,1,2,1,-6,1,-9,1,0,1,-5,1
752,-11,1,-1,1,10,1,6,1,-11,1,4,1,7,1,2,1,-6,1,-8,1,0,1,-5,1
753,-9,1,0,1,9,1,4,1,-9,1,4,1,6,1,2,1,-5,1,-8,1,0,1,-5,1
754,-10,1,-1,1,9,1,5,1,-10,1,4,1,6,1,3,1,-4,1,-7,1,1,1,-5,1
755,-8,1,0,1,8,1,4,1,-8,1,4,1,6,1,4,1,-3,1,-7,1,2,1,-5,1
756,-7,1,0,1,7,1,3,1,-7,1,3,1,4,1,3,1,-1,1,-6,1,2,1,-6,1
757,-6,1,0,1,6,1,3,1,-6,1,3,1,4,1,4,1,0,1,-5,1,2,1,-6,1
758,-7,1,-1,1,6,1,4,1,-7,1,2,1,4,1,5,1,0,1,-5,1,2,1,-6,1
759,-6,1,0,1,6,1,3,1,-6,1,3,1,5,1,7,1,0,1,-5,1,2,1,-7,1
760,-5,1,0,1,5,1,2,1,-5,1,2,1,5,1,8,1,1,1,-5,1,2,1,-7,1
761,-5,1,0,1,5,1,2,1,-5,1,2,1,5,1,8,1,1,1,-5,1,1,1,-7,1
762,-4,1,0,1,4,1,2,1,-4,1,2,1,5,1,9,1,2,1,-4,1,2,1,-6,1
763,-2,1,1,1,3,1,0,1,-2,1,2,1,5,1,11,1,4,1,-2,1,4,1,-4,1
764,-1,1,3,1,4,1,-1,1,-2,1,3,1,4,1,12,1,4,1,-2,1,4,1,-4,1
765,-1,1,3,1,4,1,-1,1,-2,1,3,1,4,1,13,1,5,1,-1,1,4,1,-4,1
766,-1,1,2,1,3,1,0,1,-2,1,2,1,4,1,14,1,6,1,0,1,5,1,-4,1
767,-1,1,1,1,2,1,0,1,-1,1,1,1,4,1,16,1,8,1,0,1,6,1,-4,1
768,0,1,1,1,1,1,0,1,0,1,1,1,4,1,17,1,9,1,1,1,6,1,-3,1
769,0,1,0,1,0,1,0,1,0,1,0,1,4,1,18,1,9,1,2,1,7,1,-3,1
770,1,1,0,1,-1,1,0,1,1,1,0,1,3,1,20,1,10,1,2,1,7,1,-2,1
771,3,1,1,1,-2,1,-2,1,3,1,0,1,3,1,21,1,12,1,3,1,7,1,-3,1
772,2,1,1,1,-1,1,-1,1,2,1,0,1,2,1,22,1,13,1,3,1,6,1,-3,1
773,5,1,2,1,-3,1,-3,1,4,1,0,1,1,1,23,1,14,1,4,1,7,1,-3,1
774,6,1,2,1,-4,1,-4,1,5,1,-1,1,3,1,26,1,16,1,6,1,9,1,-2,1
775,7,1,2,1,-5,1,-4,1,6,1,-1,1,2,1,27,1,17,1,6,1,9,1,-2,1
776,8,1,2,1,-6,1,-5,1,7,1,-2,1,3,1,29,1,20,1,8,1,10,1,-2,1
777,8,1,2,1,-6,1,-5,1,7,1,-2,1,3,1,30,1,21,1,8,1,10,1,-2,1
778,10,1,2,1,-8,1,-6,1,9,1,-3,1,1,1,31,1,21,1,9,1,11,1,-1,1
779,11,1,3,1,-8,1,-7,1,10,1,-2,1,2,1,34,1,23,1,10,1,13,1,0,1
780,12,1,3,1,-9,1,-7,1,11,1,-3,1,2,1,36,1,26,1,13,1,14,1,1,1
781,12,1,3,1,-9,1,-7,1,11,1,-3,1,3,1,38,1,29,1,14,1,15,1,1,1
782,12,1,2,1,-10,1,-7,1,11,1,-4,1,2,1,39,1,29,1,14,1,15,1,0,1
783,14,1,2,1,-12,1,-8,1,13,1,-5,1,3,1,43,1,31,1,15,1,16,1,3,1
784,16,1,2,1,-14,1,-9,1,15,1,-6,1,2,1,44,1,33,1,17,1,17,1,4,1
785,18,1,3,1,-15,1,-10,1,17,1,-6,1,3,1,47,1,37,1,20,1,19,1,6,1
786,19,1,4,1,-15,1,-11,1,17,1,-5,1,2,1,49,1,38,1,20,1,20,1,6,1
787,20,1,4,1,-16,1,-12,1,18,1,-6,1,1,1,50,1,40,1,21,1,19,1,6,1
788,21,1,4,1,-17,1,-12,1,19,1,-6,1,1,1,52,1,42,1,23,1,20,1,7,1
789,22,1,3,1,-19,1,-12,1,21,1,-8,1,1,1,55,1,45,1,25,1,22,1,9,1
790,25,1,4,1,-21,1,-14,1,23,1,-8,1,1,1,58,1,47,1,27,1,23,1,10,1
791,28,1,5,1,-23,1,-16,1,26,1,-9,1,-1,1,60,1,49,1,29,1,25,1,11,1
792,29,1,5,1,-24,1,-17,1,27,1,-9,1,-1,1,63,1,52,1,30,1,25,1,12,1
793,29,1,5,1,-24,1,-17,1,27,1,-9,1,-1,1,65,1,54,1,32,1,26,1,13,1
794,31,1,5,1,-26,1,-18,1,29,1,-10,1,-1,1,66,1,55,1,32,1,27,1,13,1
795,34,1,6,1,-28,1,-20,1,31,1,-11,1,-1,1,70,1,59,1,34,1,28,1,14,1
796,37,1,6,1,-31,1,-21,1,34,1,-12,1,-1,1,73,1,61,1,34,1,29,1,14,1
797,38,1,6,1,-32,1,-22,1,35,1,-13,1,-2,1,75,1,63,1,37,1,30,1,16,1
798,38,1,6,1,-32,1,-22,1,35,1,-13,1,-1,1,79,1,66,1,39,1,32,1,16,1
799,41,1,6,1,-35,1,-23,1,38,1,-14,1,-3,1,81,1,68,1,41,1,34,1,18,1
800,42,1,6,1,-36,1,-24,1,39,1,-15,1,-3,1,81,1,71,1,43,1,35,1,18,1
801,43,1,5,1,-38,1,-24,1,41,1,-16,1,-5,1,83,1,72,1,44,1,35,1,17,1
802,46,1,7,1,-39,1,-26,1,43,1,-16,1,-7,1,86,1,73,1,45,1,35,1,18,1
803,49,1,9,1,-40,1,-29,1,45,1,-15,1,-8,1,88,1,76,1,47,1,38,1,19,1
804,51,1,8,1,-43,1,-29,1,47,1,-17,1,-8,1,91,1,78,1,50,1,39,1,20,1
805,53,1,8,1,-45,1,-30,1,49,1,-18,1,-8,1,93,1,81,1,51,1,40,1,20,1
806,55,1,9,1,-46,1,-32,1,51,1,-18,1,-6,1,97,1,83,1,52,1,42,1,22,1
807,56,1,8,1,-48,1,-32,1,52,1,-20,1,-6,1,98,1,85,1,53,1,42,1,23,1
808,58,1,7,1,-51,1,-32,1,55,1,-22,1,-7,1,100,1,87,1,55,1,43,1,24,1
809,60,1,7,1,-53,1,-33,1,57,1,-23,1,-7,1,102,1,88,1,57,1,45,1,25,1
810,62,1,6,1,-56,1,-34,1,59,1,-25,1,-8,1,103,1,91,1,58,1,46,1,27,1
811,63,1,6,1,-57,1,-34,1,60,1,-25,1,-10,1,103,1,92,1,59,1,47,1,27,1
812,65,1,6,1,-59,1,-35,1,62,1,-26,1,-12,1,105,1,93,1,60,1,48,1,28,1
813,66,1,5,1,-61,1,-35,1,64,1,-28,1,-12,1,106,1,95,1,62,1,49,1,29,1
814,68,1,5,1,-63,1,-36,1,66,1,-29,1,-13,1,106,1,95,1,62,1,49,1,29,1
815,71,1,6,1,-65,1,-38,1,68,1,-29,1,-14,1,107,1,96,1,63,1,49,1,29,1
816,73,1,7,1,-66,1,-40,1,70,1,-29,1,-14,1,108,1,98,1,64,1,50,1,29,1
817,74,1,7,1,-67,1,-40,1,71,1,-30,1,-13,1,109,1,100,1,66,1,51,1,30,1
818,74,1,5,1,-69,1,-39,1,72,1,-32,1,-14,1,110,1,100,1,66,1,50,1,30,1
819,72,1,4,1,-68,1,-38,1,70,1,-32,1,-15,1,110,1,100,1,66,1,52,1,30,1
820,75,1,4,1,-71,1,-39,1,73,1,-33,1,-15,1,109,1,100,1,66,1,51,1,30,1
821,76,1,6,1,-70,1,-41,1,73,1,-32,1,-16,1,108,1,100,1,66,1,52,1,30,1
822,76,1,5,1,-71,1,-40,1,74,1,-33,1,-16,1,108,1,100,1,66,1,52,1,31,1
823,77,1,4,1,-73,1,-40,1,75,1,-34,1,-17,1,107,1,100,1,66,1,52,1,31,1
824,77,1,4,1,-73,1,-40,1,75,1,-34,1,-15,1,107,1,100,1,67,1,52,1,31,1
825,77,1,3,1,-74,1,-40,1,76,1,-35,1,-16,1,105,1,98,1,65,1,51,1,32,1
826,77,1,3,1,-74,1,-40,1,76,1,-35,1,-17,1,104,1,97,1,65,1,51,1,32,1
827,77,1,3,1,-74,1,-40,1,76,1,-35,1,-17,1,102,1,95,1,64,1,51,1,31,1
828,76,1,3,1,-73,1,-39,1,75,1,-35,1,-17,1,99,1,93,1,61,1,50,1,31,1
829,74,1,1,1,-73,1,-37,1,74,1,-36,1,-17,1,95,1,89,1,59,1,48,1,29,1
830,72,1,1,1,-71,1,-36,1,72,1,-35,1,-17,1,93,1,88,1,59,1,48,1,29,1
831,69,1,1,1,-68,1,-35,1,69,1,-33,1,-17,1,89,1,85,1,56,1,45,1,27,1
832,68,1,1,1,-67,1,-34,1,68,1,-33,1,-16,1,85,1,82,1,53,1,43,1,26,1
833,68,1,1,1,-67,1,-34,1,68,1,-33,1,-17,1,82,1,78,1,50,1,42,1,24,1
834,66,1,1,1,-65,1,-33,1,66,1,-32,1,-16,1,78,1,75,1,49,1,41,1,23,1
835,61,1,1,1,-60,1,-31,1,61,1,-29,1,-17,1,73,1,71,1,47,1,40,1,22,1
836,57,1,0,1,-57,1,-28,1,57,1,-28,1,-17,1,68,1,67,1,44,1,37,1,20,1
837,55,1,1,1,-54,1,-28,1,55,1,-26,1,-16,1,64,1,63,1,41,1,36,1,20,1
838,51,1,0,1,-51,1,-25,1,51,1,-25,1,-15,1,59,1,59,1,39,1,34,1,18,1
839,48,1,0,1,-48,1,-24,1,48,1,-24,1,-14,1,54,1,55,1,35,1,33,1,16,1
840,44,1,0,1,-44,1,-22,1,44,1,-22,1,-13,1,50,1,51,1,31,1,29,1,14,1
841,41,1,0,1,-41,1,-20,1,41,1,-20,1,-12,1,46,1,47,1,29,1,27,1,12,1
842,38,1,0,1,-38,1,-19,1,38,1,-19,1,-11,1,41,1,42,1,27,1,25,1,11,1
843,34,1,0,1,-34,1,-17,1,34,1,-17,1,-9,1,37,1,38,1,24,1,23,1,11,1
844,30,1,0,1,-30,1,-15,1,30,1,-15,1,-9,1,32,1,33,1,21,1,21,1,10,1
845,26,1,1,1,-25,1,-13,1,26,1,-12,1,-8,1,29,1,31,1,19,1,20,1,9,1
846,23,1,0,1,-23,1,-11,1,23,1,-11,1,-8,1,24,1,26,1,15,1,17,1,6,1
847,19,1,0,1,-19,1,-9,1,19,1,-9,1,-7,1,19,1,22,1,12,1,15,1,4,1
848,16,1,0,1,-16,1,-8,1,16,1,-8,1,-5,1,15,1,18,1,11,1,14,1,3,1
849,13,1,1,1,-12,1,-7,1,13,1,-5,1,-5,1,11,1,15,1,8,1,13,1,2,1
850,10,1,1,1,-9,1,-5,1,10,1,-4,1,-4,1,9,1,11,1,6,1,11,1,2,1
851,9,1,1,1,-8,1,-5,1,9,1,-3,1,-4,1,5,1,8,1,3,1,10,1,1,1
852,7,1,1,1,-6,1,-4,1,7,1,-2,1,-3,1,1,1,6,1,2,1,9,1,0,1
853,3,1,1,1,-2,1,-2,1,3,1,0,1,-3,1,-1,1,3,1,0,1,8,1,-1,1
854,2,1,1,1,-1,1,-1,1,2,1,0,1,-2,1,-4,1,0,1,-1,1,6,1,-2,1
855,0,1,1,1,1,1,0,1,0,1,1,1,-1,1,-6,1,0,1,-2,1,6,1,-2,1
856,-2,1,1,1,3,1,0,1,-2,1,2,1,-1,1,-7,1,-2,1,-4,1,5,1,-2,1
857,-4,1,0,1,4,1,2,1,-4,1,2,1,-1,1,-10,1,-4,1,-6,1,3,1,-3,1
858,-4,1,0,1,4,1,2,1,-4,1,2,1,-1,1,-12,1,-6,1,-7,1,3,1,-5,1
859,-6,1,0,1,6,1,3,1,-6,1,3,1,-1,1,-13,1,-7,1,-8,1,3,1,-4,1
860,-7,1,0,1,7,1,3,1,-7,1,3,1,-1,1,-15,1,-9,1,-8,1,2,1,-5,1
861,-6,1,2,1,8,1,2,1,-7,1,5,1,-2,1,-16,1,-10,1,-9,1,2,1,-5,1
862,-8,1,2,1,10,1,3,1,-9,1,6,1,-2,1,-18,1,-12,1,-10,1,2,1,-5,1
863,-9,1,1,1,10,1,4,1,-9,1,5,1,-2,1,-20,1,-13,1,-11,1,0,1,-6,1
864,-10,1,1,1,11,1,4,1,-10,1,6,1,-1,1,-20,1,-13,1,-12,1,0,1,-6,1
865,-11,1,1,1,12,1,5,1,-11,1,6,1,-1,1,-21,1,-15,1,-14,1,-1,1,-7,1
866,-10,1,1,1,11,1,4,1,-10,1,6,1,-1,1,-23,1,-16,1,-15,1,-2,1,-8,1
867,-13,1,0,1,13,1,6,1,-13,1,6,1,-1,1,-25,1,-18,1,-15,1,-3,1,-8,1
868,-14,1,0,1,14,1,7,1,-14,1,7,1,-1,1,-26,1,-19,1,-15,1,-3,1,-9,1
869,-16,1,1,1,17,1,7,1,-16,1,9,1,-1,1,-26,1,-19,1,-16,1,-4,1,-9,1
870,-14,1,2,1,16,1,6,1,-15,1,9,1,-2,1,-26,1,-20,1,-16,1,-5,1,-9,1
871,-16,1,2,1,18,1,7,1,-17,1,10,1,-1,1,-27,1,-19,1,-16,1,-4,1,-10,1
872,-16,1,2,1,18,1,7,1,-17,1,10,1,-1,1,-27,1,-20,1,-16,1,-4,1,-10,1
873,-16,1,2,1,18,1,7,1,-17,1,10,1,-2,1,-28,1,-20,1,-17,1,-5,1,-10,1
874,-16,1,3,1,19,1,6,1,-17,1,11,1,-2,1,-28,1,-21,1,-17,1,-5,1,-10,1
875,-15,1,3,1,18,1,6,1,-16,1,10,1,-2,1,-29,1,-21,1,-16,1,-5,1,-9,1
876,-16,1,3,1,19,1,6,1,-17,1,11,1,-2,1,-29,1,-22,1,-17,1,-5,1,-10,1
877,-15,1,4,1,19,1,5,1,-17,1,11,1,-2,1,-28,1,-21,1,-17,1,-5,1,-10,1
878,-14,1,5,1,19,1,4,1,-16,1,12,1,0,1,-28,1,-22,1,-17,1,-4,1,-9,1
879,-13,1,6,1,19,1,3,1,-16,1,12,1,0,1,-28,1,-21,1,-16,1,-4,1,-7,1
880,-13,1,6,1,19,1,3,1,-16,1,12,1,0,1,-28,1,-21,1,-17,1,-4,1,-7,1
881,-13,1,6,1,19,1,3,1,-16,1,12,1,-1,1,-28,1,-22,1,-17,1,-4,1,-8,1
882,-13,1,6,1,19,1,3,1,-16,1,12,1,0,1,-28,1,-24,1,-18,1,-4,1,-9,1
883,-11,1,8,1,19,1,1,1,-15,1,13,1,0,1,-28,1,-24,1,-17,1,-3,1,-8,1
884,-13,1,7,1,20,1,3,1,-16,1,13,1,0,1,-26,1,-23,1,-16,1,-3,1,-7,1
885,-14,1,7,1,21,1,3,1,-17,1,14,1,1,1,-27,1,-23,1,-16,1,-3,1,-7,1
886,-14,1,6,1,20,1,4,1,-17,1,13,1,1,1,-27,1,-25,1,-17,1,-4,1,-7,1
887,-14,1,6,1,20,1,4,1,-17,1,13,1,2,1,-27,1,-24,1,-16,1,-3,1,-7,1
888,-15,1,6,1,21,1,4,1,-18,1,13,1,1,1,-26,1,-24,1,-16,1,-3,1,-7,1
889,-12,1,6,1,18,1,3,1,-15,1,12,1,1,1,-25,1,-24,1,-16,1,-3,1,-6,1
890,-12,1,6,1,18,1,3,1,-15,1,12,1,0,1,-25,1,-24,1,-16,1,-3,1,-6,1
891,-12,1,7,1,19,1,2,1,-15,1,13,1,0,1,-25,1,-24,1,-16,1,-3,1,-7,1
892,-12,1,7,1,19,1,2,1,-15,1,13,1,0,1,-25,1,-24,1,-17,1,-4,1,-7,1
893,-11,1,8,1,19,1,1,1,-15,1,13,1,0,1,-26,1,-26,1,-17,1,-4,1,-8,1
894,-12,1,8,1,20,1,2,1,-16,1,14,1,1,1,-26,1,-26,1,-17,1,-4,1,-7,1
895,-13,1,8,1,21,1,2,1,-17,1,14,1,1,1,-26,1,-25,1,-17,1,-4,1,-7,1
896,-13,1,8,1,21,1,2,1,-17,1,14,1,1,1,-25,1,-25,1,-16,1,-4,1,-7,1
897,-13,1,7,1,20,1,3,1,-16,1,13,1,2,1,-25,1,-25,1,-16,1,-3,1,-6,1
898,-13,1,7,1,20,1,3,1,-16,1,13,1,2,1,-24,1,-25,1,-15,1,-3,1,-5,1
899,-12,1,7,1,19,1,2,1,-15,1,13,1,2,1,-24,1,-25,1,-16,1,-3,1,-5,1
900,-11,1,7,1,18,1,2,1,-14,1,12,1,2,1,-25,1,-25,1,-16,1,-3,1,-5,1
901,-12,1,7,1,19,1,2,1,-15,1,13,1,1,1,-25,1,-25,1,-16,1,-4,1,-5,1
902,-12,1,7,1,19,1,2,1,-15,1,13,1,1,1,-25,1,-25,1,-16,1,-4,1,-5,1
903,-13,1,6,1,19,1,3,1,-16,1,12,1,1,1,-25,1,-25,1,-16,1,-4,1,-4,1
904,-15,1,6,1,21,1,4,1,-18,1,13,1,2,1,-24,1,-24,1,-15,1,-3,1,-4,1
905,-13,1,6,1,19,1,3,1,-16,1,12,1,0,1,-25,1,-25,1,-17,1,-5,1,-5,1
906,-13,1,6,1,19,1,3,1,-16,1,12,1,0,1,-24,1,-24,1,-17,1,-4,1,-5,1
907,-13,1,6,1,19,1,3,1,-16,1,12,1,1,1,-23,1,-24,1,-17,1,-4,1,-5,1
908,-14,1,6,1,20,1,4,1,-17,1,13,1,1,1,-24,1,-25,1,-17,1,-3,1,-4,1
909,-12,1,8,1,20,1,2,1,-16,1,14,1,0,1,-24,1,-24,1,-16,1,-2,1,-4,1
910,-12,1,8,1,20,1,2,1,-16,1,14,1,-1,1,-25,1,-25,1,-16,1,-3,1,-4,1
911,-11,1,9,1,20,1,1,1,-15,1,14,1,-1,1,-24,1,-24,1,-16,1,-2,1,-3,1
912,-12,1,9,1,21,1,1,1,-16,1,15,1,-1,1,-25,1,-25,1,-17,1,-2,1,-3,1
913,-11,1,9,1,20,1,1,1,-15,1,14,1,0,1,-24,1,-23,1,-15,1,-2,1,-3,1
914,-10,1,9,1,19,1,0,1,-14,1,14,1,0,1,-24,1,-23,1,-15,1,-2,1,-3,1
915,-10,1,9,1,19,1,0,1,-14,1,14,1,0,1,-24,1,-24,1,-16,1,-2,1,-3,1
916,-12,1,8,1,20,1,2,1,-16,1,14,1,0,1,-24,1,-24,1,-16,1,-2,1,-3,1
917,-12,1,7,1,19,1,2,1,-15,1,13,1,1,1,-25,1,-24,1,-16,1,-2,1,-3,1
918,-11,1,7,1,18,1,2,1,-14,1,12,1,1,1,-24,1,-24,1,-16,1,-2,1,-4,1
919,-12,1,7,1,19,1,2,1,-15,1,13,1,1,1,-24,1,-24,1,-16,1,-2,1,-4,1
920,-12,1,7,1,19,1,2,1,-15,1,13,1,0,1,-26,1,-24,1,-16,1,-3,1,-4,1
921,-11,1,8,1,19,1,1,1,-15,1,13,1,1,1,-24,1,-24,1,-16,1,-2,1,-5,1
922,-12,1,8,1,20,1,2,1,-16,1,14,1,0,1,-24,1,-24,1,-16,1,-2,1,-5,1
923,-11,1,8,1,19,1,1,1,-15,1,13,1,1,1,-23,1,-24,1,-15,1,-2,1,-5,1
924,-11,1,9,1,20,1,1,1,-15,1,14,1,0,1,-24,1,-24,1,-15,1,-3,1,-5,1
925,-12,1,8,1,20,1,2,1,-16,1,14,1,0,1,-24,1,-24,1,-15,1,-3,1,-6,1
926,-12,1,8,1,20,1,2,1,-16,1,14,1,0,1,-24,1,-24,1,-16,1,-3,1,-5,1
927,-12,1,8,1,20,1,2,1,-16,1,14,1,0,1,-25,1,-25,1,-16,1,-3,1,-5,1
928,-12,1,8,1,20,1,2,1,-16,1,14,1,0,1,-25,1,-25,1,-16,1,-3,1,-5,1
929,-13,1,8,1,21,1,2,1,-17,1,14,1,0,1,-25,1,-25,1,-16,1,-3,1,-5,1
930,-12,1,8,1,20,1,2,1,-16,1,14,1,0,1,-26,1,-25,1,-16,1,-3,1,-4,1
931,-12,1,8,1,20,1,2,1,-16,1,14,1,0,1,-26,1,-26,1,-17,1,-3,1,-4,1
932,-12,1,8,1,20,1,2,1,-16,1,14,1,0,1,-27,1,-26,1,-17,1,-4,1,-4,1
933,-13,1,8,1,21,1,2,1,-17,1,14,1,0,1,-28,1,-26,1,-17,1,-4,1,-4,1
934,-13,1,8,1,21,1,2,1,-17,1,14,1,-1,1,-27,1,-26,1,-17,1,-5,1,-5,1
935,-13,1,8,1,21,1,2,1,-17,1,14,1,-1,1,-27,1,-27,1,-17,1,-4,1,-5,1
936,-12,1,8,1,20,1,2,1,-16,1,14,1,-1,1,-28,1,-26,1,-17,1,-4,1,-5,1
937,-12,1,6,1,18,1,3,1,-15,1,12,1,-1,1,-28,1,-27,1,-18,1,-4,1,-5,1
938,-13,1,6,1,19,1,3,1,-16,1,12,1,-1,1,-29,1,-28,1,-18,1,-4,1,-5,1
939,-13,1,6,1,19,1,3,1,-16,1,12,1,-1,1,-29,1,-28,1,-18,1,-4,1,-6,1
940,-14,1,7,1,21,1,3,1,-17,1,14,1,-1,1,-29,1,-27,1,-18,1,-4,1,-6,1
941,-14,1,7,1,21,1,3,1,-17,1,14,1,-1,1,-29,1,-27,1,-19,1,-4,1,-7,1
942,-14,1,7,1,21,1,3,1,-17,1,14,1,-1,1,-29,1,-28,1,-20,1,-4,1,-7,1
943,-15,1,6,1,21,1,4,1,-18,1,13,1,-1,1,-30,1,-29,1,-20,1,-5,1,-7,1
944,-14,1,7,1,21,1,3,1,-17,1,14,1,0,1,-30,1,-28,1,-20,1,-5,1,-7,1
945,-15,1,6,1,21,1,4,1,-18,1,13,1,-1,1,-30,1,-29,1,-20,1,-5,1,-8,1
946,-16,1,6,1,22,1,5,1,-19,1,14,1,-1,1,-31,1,-29,1,-21,1,-5,1,-8,1
947,-16,1,6,1,22,1,5,1,-19,1,14,1,-1,1,-30,1,-30,1,-21,1,-5,1,-8,1
948,-16,1,6,1,22,1,5,1,-19,1,14,1,-2,1,-31,1,-31,1,-21,1,-5,1,-9,1
949,-15,1,6,1,21,1,4,1,-18,1,13,1,-3,1,-32,1,-31,1,-21,1,-5,1,-9,1
950,-15,1,7,1,22,1,4,1,-18,1,14,1,-3,1,-32,1,-31,1,-21,1,-6,1,-10,1
951,-15,1,7,1,22,1,4,1,-18,1,14,1,-3,1,-32,1,-31,1,-20,1,-5,1,-9,1
952,-16,1,7,1,23,1,4,1,-19,1,15,1,-4,1,-32,1,-32,1,-21,1,-6,1,-10,1
953,-16,1,7,1,23,1,4,1,-19,1,15,1,-3,1,-32,1,-31,1,-21,1,-6,1,-10,1
954,-15,1,7,1,22,1,4,1,-18,1,14,1,-3,1,-31,1,-31,1,-21,1,-6,1,-10,1
955,-14,1,7,1,21,1,3,1,-17,1,14,1,-2,1,-31,1,-31,1,-21,1,-7,1,-10,1
956,-14,1,7,1,21,1,3,1,-17,1,14,1,-3,1,-32,1,-32,1,-22,1,-7,1,-10,1
957,-15,1,6,1,21,1,4,1,-18,1,13,1,-3,1,-32,1,-32,1,-22,1,-7,1,-11,1
958,-15,1,6,1,21,1,4,1,-18,1,13,1,-3,1,-32,1,-32,1,-22,1,-7,1,-11,1
959,-15,1,6,1,21,1,4,1,-18,1,13,1,-2,1,-32,1,-31,1,-21,1,-7,1,-10,1
960,-16,1,7,1,23,1,4,1,-19,1,15,1,-2,1,-32,1,-31,1,-21,1,-6,1,-10,1
961,-16,1,7,1,23,1,4,1,-19,1,15,1,-2,1,-34,1,-32,1,-23,1,-7,1,-12,1
962,-16,1,6,1,22,1,5,1,-19,1,14,1,-1,1,-35,1,-32,1,-23,1,-7,1,-11,1
963,-17,1,6,1,23,1,5,1,-20,1,14,1,-2,1,-34,1,-33,1,-23,1,-7,1,-11,1
964,-15,1,7,1,22,1,4,1,-18,1,14,1,-1,1,-34,1,-32,1,-22,1,-7,1,-10,1
965,-15,1,8,1,23,1,3,1,-19,1,15,1,-1,1,-35,1,-32,1,-22,1,-7,1,-10,1
966,-15,1,7,1,22,1,4,1,-18,1,14,1,-1,1,-34,1,-32,1,-22,1,-7,1,-10,1
967,-16,1,6,1,22,1,5,1,-19,1,14,1,-1,1,-35,1,-33,1,-22,1,-7,1,-10,1
968,-17,1,4,1,21,1,6,1,-19,1,12,1,-1,1,-35,1,-33,1,-23,1,-8,1,-11,1
969,-17,1,4,1,21,1,6,1,-19,1,12,1,-2,1,-36,1,-33,1,-23,1,-9,1,-12,1
970,-16,1,5,1,21,1,5,1,-18,1,13,1,-2,1,-36,1,-33,1,-23,1,-8,1,-12,1
971,-16,1,5,1,21,1,5,1,-18,1,13,1,-3,1,-36,1,-34,1,-23,1,-9,1,-12,1
972,-16,1,5,1,21,1,5,1,-18,1,13,1,-3,1,-35,1,-33,1,-23,1,-8,1,-12,1
973,-14,1,7,1,21,1,3,1,-17,1,14,1,-3,1,-35,1,-33,1,-23,1,-9,1,-12,1
974,-14,1,7,1,21,1,3,1,-17,1,14,1,-2,1,-35,1,-33,1,-21,1,-8,1,-12,1
975,-14,1,8,1,22,1,3,1,-18,1,15,1,-2,1,-35,1,-33,1,-21,1,-8,1,-11,1
976,-15,1,7,1,22,1,4,1,-18,1,14,1,-2,1,-35,1,-33,1,-21,1,-8,1,-11,1
977,-15,1,6,1,21,1,4,1,-18,1,13,1,-2,1,-35,1,-33,1,-23,1,-8,1,-12,1
978,-16,1,5,1,21,1,5,1,-18,1,13,1,-2,1,-36,1,-34,1,-23,1,-9,1,-12,1
979,-17,1,6,1,23,1,5,1,-20,1,14,1,-2,1,-35,1,-34,1,-23,1,-9,1,-11,1
980,-17,1,5,1,22,1,6,1,-19,1,13,1,-2,1,-35,1,-34,1,-24,1,-8,1,-11,1
981,-17,1,5,1,22,1,6,1,-19,1,13,1,-2,1,-35,1,-34,1,-24,1,-8,1,-11,1
982,-17,1,5,1,22,1,6,1,-19,1,13,1,-2,1,-35,1,-34,1,-24,1,-9,1,-11,1
983,-17,1,5,1,22,1,6,1,-19,1,13,1,-2,1,-35,1,-33,1,-23,1,-8,1,-11,1
984,-16,1,5,1,21,1,5,1,-18,1,13,1,-2,1,-35,1,-33,1,-23,1,-8,1,-10,1
985,-16,1,4,1,20,1,6,1,-18,1,12,1,-2,1,-35,1,-34,1,-23,1,-8,1,-10,1
986,-17,1,4,1,21,1,6,1,-19,1,12,1,-2,1,-35,1,-34,1,-24,1,-9,1,-10,1
987,-16,1,3,1,19,1,6,1,-17,1,11,1,-2,1,-35,1,-34,1,-24,1,-8,1,-10,1
988,-18,1,3,1,21,1,7,1,-19,1,12,1,-2,1,-35,1,-34,1,-24,1,-8,1,-9,1
989,-17,1,4,1,21,1,6,1,-19,1,12,1,-2,1,-35,1,-34,1,-24,1,-8,1,-9,1
990,-17,1,4,1,21,1,6,1,-19,1,12,1,-3,1,-36,1,-34,1,-24,1,-8,1,-10,1
991,-18,1,4,1,22,1,7,1,-20,1,13,1,-3,1,-36,1,-34,1,-24,1,-8,1,-9,1
992,-17,1,5,1,22,1,6,1,-19,1,13,1,-4,1,-36,1,-34,1,-24,1,-8,1,-10,1
993,-17,1,4,1,21,1,6,1,-19,1,12,1,-4,1,-37,1,-34,1,-25,1,-8,1,-10,1
994,-17,1,5,1,22,1,6,1,-19,1,13,1,-4,1,-37,1,-35,1,-25,1,-8,1,-9,1
995,-17,1,5,1,22,1,6,1,-19,1,13,1,-4,1,-37,1,-35,1,-24,1,-8,1,-9,1
996,-17,1,5,1,22,1,6,1,-19,1,13,1,-4,1,-37,1,-35,1,-24,1,-8,1,-8,1
997,-17,1,5,1,22,1,6,1,-19,1,13,1,-4,1,-37,1,-35,1,-24,1,-8,1,-8,1
998,-17,1,5,1,22,1,6,1,-19,1,13,1,-3,1,-37,1,-35,1,-24,1,-8,1,-7,1
999,-18,1,4,1,22,1,7,1,-20,1,13,1,-2,1,-37,1,-35,1,-23,1,-8,1,-8,1
1000,-17,1,5,1,22,1,6,1,-19,1,13,1,-3,1,-36,1,-35,1,-22,1,-7,1,-8,1
1001,-18,1,3,1,21,1,7,1,-19,1,12,1,-3,1,-36,1,-35,1,-22,1,-7,1,-8,1
1002,-18,1,4,1,22,1,7,1,-20,1,13,1,-3,1,-37,1,-36,1,-23,1,-7,1,-8,1
1003,-18,1,4,1,22,1,7,1,-20,1,13,1,-2,1,-36,1,-35,1,-23,1,-7,1,-8,1
1004,-18,1,4,1,22,1,7,1,-20,1,13,1,-2,1,-36,1,-35,1,-23,1,-7,1,-8,1
1005,-18,1,4,1,22,1,7,1,-20,1,13,1,-3,1,-36,1,-35,1,-23,1,-8,1,-8,1
1006,-19,1,4,1,23,1,7,1,-21,1,13,1,-3,1,-36,1,-35,1,-23,1,-9,1,-9,1
1007,-18,1,4,1,22,1,7,1,-20,1,13,1,-3,1,-36,1,-35,1,-23,1,-9,1,-8,1
1008,-18,1,4,1,22,1,7,1,-20,1,13,1,-2,1,-35,1,-35,1,-24,1,-9,1,-8,1
1009,-19,1,5,1,24,1,7,1,-21,1,14,1,-2,1,-35,1,-35,1,-24,1,-9,1,-8,1
1010,-20,1,4,1,24,1,8,1,-22,1,14,1,-2,1,-35,1,-35,1,-23,1,-9,1,-8,1
1011,-18,1,4,1,22,1,7,1,-20,1,13,1,-2,1,-35,1,-35,1,-24,1,-9,1,-8,1
1012,-17,1,5,1,22,1,6,1,-19,1,13,1,-3,1,-36,1,-35,1,-24,1,-9,1,-9,1
1013,-18,1,5,1,23,1,6,1,-20,1,14,1,-3,1,-35,1,-35,1,-24,1,-9,1,-8,1
1014,-20,1,3,1,23,1,8,1,-21,1,13,1,-3,1,-35,1,-35,1,-24,1,-9,1,-8,1
1015,-19,1,3,1,22,1,8,1,-20,1,12,1,-4,1,-35,1,-35,1,-24,1,-9,1,-9,1
1016,-18,1,3,1,21,1,7,1,-19,1,12,1,-3,1,-35,1,-34,1,-23,1,-8,1,-8,1
1017,-17,1,4,1,21,1,6,1,-19,1,12,1,-3,1,-35,1,-34,1,-23,1,-7,1,-8,1
1018,-17,1,4,1,21,1,6,1,-19,1,12,1,-3,1,-34,1,-34,1,-23,1,-8,1,-8,1
1019,-18,1,4,1,22,1,7,1,-20,1,13,1,-3,1,-34,1,-34,1,-23,1,-8,1,-7,1
1020,-18,1,3,1,21,1,7,1,-19,1,12,1,-4,1,-35,1,-35,1,-24,1,-8,1,-8,1
1021,-18,1,3,1,21,1,7,1,-19,1,12,1,-4,1,-36,1,-35,1,-24,1,-8,1,-9,1
1022,-20,1,1,1,21,1,9,1,-20,1,11,1,-4,1,-36,1,-35,1,-24,1,-9,1,-9,1
1023,-20,1,2,1,22,1,9,1,-21,1,12,1,-4,1,-36,1,-35,1,-24,1,-9,1,-9,1
1024,-18,1,3,1,21,1,7,1,-19,1,12,1,-4,1,-36,1,-35,1,-23,1,-9,1,-9,1
1025,-18,1,4,1,22,1,7,1,-20,1,13,1,-4,1,-36,1,-34,1,-23,1,-9,1,-9,1
1026,-20,1,3,1,23,1,8,1,-21,1,13,1,-4,1,-37,1,-35,1,-23,1,-9,1,-9,1
1027,-19,1,3,1,22,1,8,1,-20,1,12,1,-4,1,-37,1,-35,1,-23,1,-9,1,-10,1
1028,-19,1,3,1,22,1,8,1,-20,1,12,1,-5,1,-37,1,-35,1,-23,1,-10,1,-10,1
1029,-19,1,3,1,22,1,8,1,-20,1,12,1,-4,1,-37,1,-35,1,-23,1,-10,1,-10,1
1030,-18,1,4,1,22,1,7,1,-20,1,13,1,-4,1,-37,1,-34,1,-23,1,-9,1,-10,1
1031,-18,1,4,1,22,1,7,1,-20,1,13,1,-4,1,-37,1,-34,1,-22,1,-9,1,-10,1
1032,-20,1,4,1,24,1,8,1,-22,1,14,1,-4,1,-37,1,-34,1,-22,1,-9,1,-9,1
1033,-18,1,4,1,22,1,7,1,-20,1,13,1,-4,1,-36,1,-34,1,-22,1,-9,1,-9,1
1034,-19,1,3,1,22,1,8,1,-20,1,12,1,-4,1,-36,1,-35,1,-22,1,-8,1,-8,1
1035,-19,1,3,1,22,1,8,1,-20,1,12,1,-4,1,-36,1,-35,1,-22,1,-8,1,-8,1
1036,-18,1,4,1,22,1,7,1,-20,1,13,1,-4,1,-35,1,-35,1,-23,1,-8,1,-9,1
1037,-18,1,3,1,21,1,7,1,-19,1,12,1,-4,1,-35,1,-34,1,-22,1,-8,1,-9,1
1038,-19,1,3,1,22,1,8,1,-20,1,12,1,-3,1,-35,1,-34,1,-22,1,-8,1,-9,1
1039,-18,1,3,1,21,1,7,1,-19,1,12,1,-3,1,-35,1,-34,1,-23,1,-8,1,-9,1
1040,-18,1,3,1,21,1,7,1,-19,1,12,1,-3,1,-35,1,-34,1,-23,1,-8,1,-10,1
1041,-18,1,3,1,21,1,7,1,-19,1,12,1,-3,1,-35,1,-33,1,-23,1,-8,1,-10,1
1042,-18,1,3,1,21,1,7,1,-19,1,12,1,-3,1,-35,1,-33,1,-23,1,-9,1,-11,1
1043,-17,1,3,1,20,1,7,1,-18,1,11,1,-3,1,-35,1,-33,1,-23,1,-9,1,-11,1
1044,-17,1,4,1,21,1,6,1,-19,1,12,1,-3,1,-35,1,-33,1,-24,1,-9,1,-11,1
1045,-18,1,4,1,22,1,7,1,-20,1,13,1,-3,1,-34,1,-33,1,-24,1,-9,1,-10,1
1046,-18,1,4,1,22,1,7,1,-20,1,13,1,-4,1,-34,1,-33,1,-24,1,-10,1,-10,1
1047,-18,1,3,1,21,1,7,1,-19,1,12,1,-4,1,-35,1,-33,1,-24,1,-9,1,-10,1
1048,-17,1,3,1,20,1,7,1,-18,1,11,1,-4,1,-35,1,-33,1,-24,1,-9,1,-10,1
1049,-17,1,3,1,20,1,7,1,-18,1,11,1,-3,1,-35,1,-33,1,-24,1,-9,1,-10,1
1050,-19,1,3,1,22,1,8,1,-20,1,12,1,-3,1,-35,1,-33,1,-23,1,-9,1,-10,1
1051,-19,1,3,1,22,1,8,1,-20,1,12,1,-3,1,-34,1,-33,1,-22,1,-9,1,-10,1
1052,-17,1,3,1,20,1,7,1,-18,1,11,1,-3,1,-34,1,-33,1,-22,1,-9,1,-10,1
1053,-16,1,4,1,20,1,6,1,-18,1,12,1,-3,1,-35,1,-32,1,-22,1,-9,1,-10,1
1054,-16,1,4,1,20,1,6,1,-18,1,12,1,-3,1,-35,1,-33,1,-22,1,-9,1,-10,1
1055,-17,1,3,1,20,1,7,1,-18,1,11,1,-3,1,-35,1,-33,1,-22,1,-8,1,-9,1
1056,-17,1,3,1,20,1,7,1,-18,1,11,1,-4,1,-36,1,-33,1,-23,1,-8,1,-9,1
1057,-17,1,4,1,21,1,6,1,-19,1,12,1,-3,1,-36,1,-33,1,-23,1,-9,1,-9,1
1058,-17,1,4,1,21,1,6,1,-19,1,12,1,-3,1,-35,1,-33,1,-23,1,-9,1,-10,1
1059,-18,1,3,1,21,1,7,1,-19,1,12,1,-4,1,-36,1,-33,1,-22,1,-9,1,-9,1
1060,-18,1,3,1,21,1,7,1,-19,1,12,1,-6,1,-36,1,-33,1,-22,1,-9,1,-9,1
1061,-17,1,3,1,20,1,7,1,-18,1,11,1,-5,1,-36,1,-33,1,-22,1,-9,1,-9,1
1062,-17,1,3,1,20,1,7,1,-18,1,11,1,-5,1,-36,1,-33,1,-23,1,-9,1,-9,1
1063,-18,1,2,1,20,1,8,1,-19,1,11,1,-4,1,-35,1,-32,1,-23,1,-9,1,-9,1
1064,-18,1,2,1,20,1,8,1,-19,1,11,1,-3,1,-34,1,-32,1,-23,1,-8,1,-8,1
1065,-18,1,2,1,20,1,8,1,-19,1,11,1,-3,1,-34,1,-32,1,-22,1,-8,1,-8,1
1066,-18,1,2,1,20,1,8,1,-19,1,11,1,-2,1,-34,1,-32,1,-22,1,-9,1,-8,1
1067,-17,1,2,1,19,1,7,1,-18,1,10,1,-3,1,-34,1,-32,1,-22,1,-8,1,-8,1
1068,-18,1,2,1,20,1,8,1,-19,1,11,1,-1,1,-33,1,-31,1,-22,1,-8,1,-8,1
1069,-20,1,2,1,22,1,9,1,-21,1,12,1,-2,1,-33,1,-31,1,-22,1,-9,1,-7,1
1070,-17,1,2,1,19,1,7,1,-18,1,10,1,-1,1,-33,1,-32,1,-21,1,-9,1,-7,1
1071,-16,1,4,1,20,1,6,1,-18,1,12,1,-1,1,-32,1,-30,1,-21,1,-8,1,-6,1
1072,-17,1,3,1,20,1,7,1,-18,1,11,1,-2,1,-32,1,-30,1,-21,1,-8,1,-6,1
1073,-16,1,4,1,20,1,6,1,-18,1,12,1,-2,1,-32,1,-31,1,-21,1,-8,1,-7,1
1074,-16,1,3,1,19,1,6,1,-17,1,11,1,-2,1,-32,1,-31,1,-21,1,-7,1,-6,1
1075,-16,1,3,1,19,1,6,1,-17,1,11,1,-2,1,-32,1,-30,1,-20,1,-7,1,-6,1
1076,-16,1,5,1,21,1,5,1,-18,1,13,1,-1,1,-31,1,-29,1,-20,1,-6,1,-6,1
1077,-14,1,6,1,20,1,4,1,-17,1,13,1,-1,1,-31,1,-29,1,-20,1,-6,1,-6,1
1078,-13,1,6,1,19,1,3,1,-16,1,12,1,0,1,-29,1,-28,1,-19,1,-6,1,-6,1
1079,-14,1,6,1,20,1,4,1,-17,1,13,1,1,1,-28,1,-27,1,-18,1,-6,1,-5,1
1080,-15,1,6,1,21,1,4,1,-18,1,13,1,3,1,-27,1,-26,1,-17,1,-5,1,-5,1
1081,-14,1,8,1,22,1,3,1,-18,1,15,1,3,1,-26,1,-26,1,-17,1,-5,1,-5,1
1082,-13,1,9,1,22,1,2,1,-17,1,15,1,3,1,-26,1,-26,1,-17,1,-6,1,-5,1
1083,-11,1,11,1,22,1,0,1,-16,1,16,1,3,1,-26,1,-26,1,-17,1,-5,1,-5,1
1084,-11,1,12,1,23,1,0,1,-17,1,17,1,2,1,-26,1,-25,1,-16,1,-4,1,-4,1
1085,-12,1,11,1,23,1,0,1,-17,1,17,1,2,1,-26,1,-25,1,-16,1,-4,1,-4,1
1086,-12,1,10,1,22,1,1,1,-17,1,16,1,2,1,-26,1,-25,1,-16,1,-5,1,-5,1
1087,-11,1,9,1,20,1,1,1,-15,1,14,1,3,1,-25,1,-24,1,-16,1,-5,1,-5,1
1088,-10,1,9,1,19,1,0,1,-14,1,14,1,2,1,-25,1,-23,1,-16,1,-5,1,-5,1
1089,-10,1,9,1,19,1,0,1,-14,1,14,1,1,1,-25,1,-24,1,-16,1,-5,1,-5,1
1090,-10,1,8,1,18,1,1,1,-14,1,13,1,1,1,-25,1,-24,1,-16,1,-5,1,-4,1
1091,-11,1,7,1,18,1,2,1,-14,1,12,1,0,1,-26,1,-24,1,-16,1,-5,1,-4,1
1092,-11,1,7,1,18,1,2,1,-14,1,12,1,-1,1,-26,1,-24,1,-16,1,-4,1,-3,1
1093,-9,1,8,1,17,1,0,1,-13,1,12,1,-2,1,-26,1,-24,1,-16,1,-4,1,-3,1
1094,-8,1,9,1,17,1,0,1,-12,1,13,1,-5,1,-28,1,-24,1,-15,1,-3,1,-3,1
1095,-8,1,10,1,18,1,-1,1,-13,1,14,1,-6,1,-27,1,-23,1,-14,1,-2,1,-1,1
1096,-7,1,12,1,19,1,-2,1,-13,1,15,1,-8,1,-27,1,-22,1,-13,1,0,1,0,1
1097,-7,1,13,1,20,1,-3,1,-13,1,16,1,-10,1,-28,1,-22,1,-13,1,0,1,0,1
1098,-5,1,13,1,18,1,-4,1,-11,1,15,1,-10,1,-27,1,-22,1,-12,1,1,1,1,1
1099,-5,1,13,1,18,1,-4,1,-11,1,15,1,-10,1,-28,1,-22,1,-12,1,0,1,1,1
1100,-5,1,12,1,17,1,-3,1,-11,1,14,1,-9,1,-30,1,-24,1,-14,1,-1,1,0,1
1101,-6,1,11,1,17,1,-2,1,-11,1,14,1,-9,1,-30,1,-24,1,-14,1,-1,1,0,1
1102,-6,1,9,1,15,1,-1,1,-10,1,12,1,-10,1,-31,1,-25,1,-16,1,-2,1,-1,1
1103,-4,1,9,1,13,1,-2,1,-8,1,11,1,-11,1,-32,1,-27,1,-17,1,-3,1,-2,1
1104,-4,1,9,1,13,1,-2,1,-8,1,11,1,-11,1,-31,1,-26,1,-16,1,-2,1,-2,1
1105,-4,1,9,1,13,1,-2,1,-8,1,11,1,-9,1,-31,1,-26,1,-16,1,-2,1,-2,1
1106,-4,1,9,1,13,1,-2,1,-8,1,11,1,-9,1,-31,1,-26,1,-16,1,-2,1,-2,1
1107,-4,1,9,1,13,1,-2,1,-8,1,11,1,-9,1,-32,1,-27,1,-17,1,-3,1,-2,1
1108,-4,1,9,1,13,1,-2,1,-8,1,11,1,-11,1,-34,1,-28,1,-18,1,-3,1,-2,1
1109,-2,1,9,1,11,1,-3,1,-6,1,10,1,-12,1,-34,1,-29,1,-19,1,-3,1,-3,1
1110,-2,1,8,1,10,1,-3,1,-6,1,9,1,-12,1,-35,1,-30,1,-19,1,-4,1,-3,1
1111,-3,1,6,1,9,1,-1,1,-6,1,7,1,-10,1,-35,1,-30,1,-19,1,-4,1,-3,1
1112,-3,1,6,1,9,1,-1,1,-6,1,7,1,-10,1,-34,1,-29,1,-18,1,-3,1,-3,1
1113,-3,1,6,1,9,1,-1,1,-6,1,7,1,-10,1,-34,1,-29,1,-18,1,-4,1,-3,1
1114,-4,1,7,1,11,1,-1,1,-7,1,9,1,-9,1,-34,1,-29,1,-18,1,-5,1,-3,1
1115,-5,1,6,1,11,1,0,1,-8,1,8,1,-9,1,-34,1,-29,1,-19,1,-5,1,-3,1
1116,-7,1,6,1,13,1,0,1,-10,1,9,1,-9,1,-35,1,-30,1,-21,1,-7,1,-4,1
1117,-8,1,6,1,14,1,1,1,-11,1,10,1,-9,1,-37,1,-31,1,-21,1,-7,1,-4,1
1118,-9,1,6,1,15,1,1,1,-12,1,10,1,-8,1,-36,1,-31,1,-21,1,-7,1,-4,1
1119,-11,1,6,1,17,1,2,1,-14,1,11,1,-8,1,-37,1,-33,1,-23,1,-8,1,-5,1
1120,-14,1,4,1,18,1,5,1,-16,1,11,1,-6,1,-37,1,-33,1,-22,1,-8,1,-6,1
1121,-15,1,3,1,18,1,6,1,-16,1,10,1,-6,1,-37,1,-33,1,-22,1,-8,1,-6,1
1122,-16,1,2,1,18,1,7,1,-17,1,10,1,-6,1,-38,1,-33,1,-22,1,-9,1,-7,1
1123,-18,1,1,1,19,1,8,1,-18,1,10,1,-6,1,-38,1,-34,1,-23,1,-9,1,-8,1
1124,-19,1,1,1,20,1,9,1,-19,1,10,1,-6,1,-38,1,-34,1,-24,1,-10,1,-10,1
1125,-19,1,1,1,20,1,9,1,-19,1,10,1,-6,1,-38,1,-34,1,-24,1,-10,1,-10,1
1126,-21,1,0,1,21,1,10,1,-21,1,10,1,-6,1,-38,1,-36,1,-26,1,-12,1,-12,1
1127,-21,1,-1,1,20,1,11,1,-21,1,9,1,-7,1,-39,1,-36,1,-27,1,-13,1,-13,1
1128,-22,1,-1,1,21,1,11,1,-22,1,10,1,-7,1,-40,1,-36,1,-27,1,-13,1,-12,1
1129,-21,1,-2,1,19,1,11,1,-20,1,8,1,-7,1,-40,1,-38,1,-28,1,-13,1,-13,1
1130,-21,1,-2,1,19,1,11,1,-20,1,8,1,-7,1,-40,1,-38,1,-28,1,-13,1,-13,1
1131,-20,1,-1,1,19,1,10,1,-20,1,9,1,-6,1,-40,1,-37,1,-27,1,-13,1,-12,1
1132,-20,1,-1,1,19,1,10,1,-20,1,9,1,-6,1,-40,1,-38,1,-28,1,-14,1,-12,1
1133,-21,1,-2,1,19,1,11,1,-20,1,8,1,-6,1,-39,1,-38,1,-28,1,-14,1,-12,1
1134,-22,1,-3,1,19,1,12,1,-21,1,8,1,-6,1,-39,1,-38,1,-28,1,-14,1,-12,1
1135,-22,1,-3,1,19,1,12,1,-21,1,8,1,-6,1,-40,1,-39,1,-27,1,-14,1,-13,1
1136,-23,1,-3,1,20,1,13,1,-22,1,8,1,-5,1,-40,1,-38,1,-27,1,-14,1,-13,1
1137,-22,1,-3,1,19,1,12,1,-21,1,8,1,-5,1,-40,1,-38,1,-27,1,-14,1,-12,1
1138,-23,1,-2,1,21,1,12,1,-22,1,9,1,-6,1,-40,1,-39,1,-28,1,-14,1,-13,1
1139,-22,1,-2,1,20,1,12,1,-21,1,9,1,-5,1,-40,1,-39,1,-28,1,-14,1,-13,1
1140,-22,1,-2,1,20,1,12,1,-21,1,9,1,-5,1,-40,1,-39,1,-28,1,-13,1,-13,1
1141,-24,1,-3,1,21,1,13,1,-23,1,9,1,-6,1,-40,1,-39,1,-28,1,-14,1,-14,1
1142,-22,1,-2,1,20,1,12,1,-21,1,9,1,-5,1,-40,1,-39,1,-28,1,-13,1,-13,1
1143,-22,1,-2,1,20,1,12,1,-21,1,9,1,-4,1,-39,1,-38,1,-28,1,-13,1,-13,1
1144,-23,1,-2,1,21,1,12,1,-22,1,9,1,-4,1,-39,1,-38,1,-27,1,-13,1,-13,1
1145,-23,1,-2,1,21,1,12,1,-22,1,9,1,-5,1,-40,1,-38,1,-28,1,-13,1,-12,1
1146,-23,1,-2,1,21,1,12,1,-22,1,9,1,-4,1,-39,1,-38,1,-28,1,-12,1,-11,1
1147,-23,1,-2,1,21,1,12,1,-22,1,9,1,-4,1,-39,1,-38,1,-27,1,-12,1,-12,1
1148,-23,1,-2,1,21,1,12,1,-22,1,9,1,-4,1,-39,1,-38,1,-27,1,-12,1,-11,1
1149,-22,1,-3,1,19,1,12,1,-21,1,8,1,-4,1,-39,1,-38,1,-27,1,-12,1,-11,1
1150,-22,1,-2,1,20,1,12,1,-21,1,9,1,-5,1,-40,1,-38,1,-27,1,-12,1,-11,1
1151,-23,1,-3,1,20,1,13,1,-22,1,8,1,-3,1,-38,1,-37,1,-27,1,-12,1,-10,1
1152,-23,1,-4,1,19,1,13,1,-21,1,7,1,-3,1,-37,1,-37,1,-27,1,-12,1,-10,1
1153,-23,1,-4,1,19,1,13,1,-21,1,7,1,-3,1,-37,1,-37,1,-27,1,-13,1,-10,1
1154,-23,1,-4,1,19,1,13,1,-21,1,7,1,-3,1,-37,1,-36,1,-27,1,-13,1,-10,1
1155,-25,1,-4,1,21,1,14,1,-23,1,8,1,-2,1,-36,1,-36,1,-27,1,-14,1,-11,1
1156,-26,1,-4,1,22,1,15,1,-24,1,9,1,-1,1,-36,1,-36,1,-27,1,-15,1,-12,1
1157,-29,1,-3,1,26,1,16,1,-28,1,11,1,3,1,-32,1,-34,1,-27,1,-15,1,-13,1
1158,-34,1,-4,1,30,1,19,1,-32,1,13,1,10,1,-27,1,-32,1,-28,1,-16,1,-14,1
1159,-38,1,-6,1,32,1,22,1,-35,1,13,1,16,1,-21,1,-31,1,-29,1,-19,1,-17,1
1160,-41,1,-9,1,32,1,25,1,-37,1,11,1,26,1,-8,1,-26,1,-28,1,-21,1,-21,1
1161,-43,1,-14,1,29,1,28,1,-36,1,7,1,35,1,7,1,-18,1,-26,1,-24,1,-25,1
1162,-42,1,-19,1,23,1,30,1,-33,1,2,1,41,1,23,1,-10,1,-24,1,-25,1,-28,1
1163,-41,1,-26,1,15,1,33,1,-28,1,-6,1,49,1,43,1,2,1,-19,1,-25,1,-30,1
1164,-36,1,-31,1,5,1,33,1,-21,1,-13,1,53,1,61,1,16,1,-11,1,-23,1,-31,1
1165,-26,1,-34,1,-8,1,30,1,-9,1,-21,1,57,1,83,1,33,1,2,1,-13,1,-27,1
1166,-12,1,-36,1,-24,1,24,1,6,1,-30,1,62,1,117,1,58,1,20,1,-1,1,-21,1
1167,13,1,-35,1,-48,1,11,1,30,1,-41,1,61,1,152,1,91,1,47,1,18,1,-9,1
1168,48,1,-28,1,-76,1,-10,1,62,1,-52,1,50,1,176,1,125,1,79,1,43,1,8,1
1169,88,1,-15,1,-103,1,-36,1,95,1,-59,1,33,1,187,1,162,1,120,1,77,1,33,1
1170,133,1,2,1,-131,1,-67,1,132,1,-64,1,3,1,175,1,199,1,169,1,117,1,63,1
1171,177,1,21,1,-156,1,-99,1,167,1,-67,1,-34,1,143,1,228,1,216,1,159,1,94,1
1172,216,1,38,1,-178,1,-127,1,197,1,-70,1,-69,1,112,1,252,1,260,1,198,1,124,1
1173,245,1,55,1,-190,1,-150,1,218,1,-67,1,-98,1,80,1,269,1,299,1,232,1,149,1
1174,262,1,75,1,-187,1,-168,1,225,1,-56,1,-122,1,50,1,285,1,338,1,265,1,174,1
1175,263,1,91,1,-172,1,-177,1,218,1,-40,1,-137,1,15,1,282,1,351,1,281,1,190,1
1176,253,1,102,1,-151,1,-177,1,202,1,-24,1,-141,1,-19,1,260,1,337,1,279,1,194,1
1177,232,1,109,1,-123,1,-170,1,178,1,-7,1,-145,1,-58,1,228,1,309,1,265,1,190,1
1178,202,1,109,1,-93,1,-155,1,148,1,8,1,-138,1,-86,1,196,1,270,1,236,1,174,1
1179,171,1,92,1,-79,1,-131,1,125,1,7,1,-124,1,-94,1,165,1,219,1,188,1,142,1
1180,138,1,70,1,-68,1,-104,1,103,1,1,1,-109,1,-96,1,129,1,165,1,136,1,106,1
1181,110,1,52,1,-58,1,-81,1,84,1,-3,1,-105,1,-113,1,76,1,107,1,90,1,76,1
1182,82,1,33,1,-49,1,-57,1,66,1,-8,1,-102,1,-139,1,11,1,46,1,50,1,50,1
1183,48,1,14,1,-34,1,-31,1,41,1,-10,1,-93,1,-162,1,-59,1,-15,1,10,1,24,1
1184,15,1,-2,1,-17,1,-6,1,16,1,-9,1,-83,1,-175,1,-114,1,-65,1,-22,1,1,1
1185,-1,1,-13,1,-12,1,7,1,5,1,-13,1,-76,1,-167,1,-128,1,-80,1,-36,1,-13,1
1186,-8,1,-21,1,-13,1,14,1,2,1,-17,1,-67,1,-152,1,-121,1,-79,1,-40,1,-19,1
1187,-13,1,-26,1,-13,1,19,1,0,1,-20,1,-61,1,-145,1,-119,1,-80,1,-43,1,-24,1
1188,-18,1,-29,1,-11,1,23,1,-4,1,-20,1,-55,1,-137,1,-114,1,-78,1,-45,1,-27,1
1189,-23,1,-31,1,-8,1,27,1,-8,1,-20,1,-52,1,-130,1,-108,1,-75,1,-45,1,-29,1
1190,-25,1,-32,1,-7,1,28,1,-9,1,-20,1,-50,1,-121,1,-103,1,-72,1,-45,1,-31,1
1191,-25,1,-32,1,-7,1,28,1,-9,1,-20,1,-44,1,-112,1,-99,1,-71,1,-44,1,-29,1
1192,-23,1,-27,1,-4,1,25,1,-10,1,-16,1,-40,1,-101,1,-90,1,-65,1,-39,1,-27,1
1193,-22,1,-23,1,-1,1,22,1,-11,1,-12,1,-37,1,-87,1,-78,1,-56,1,-33,1,-23,1
1194,-22,1,-19,1,3,1,20,1,-13,1,-8,1,-30,1,-73,1,-65,1,-47,1,-27,1,-19,1
1195,-18,1,-14,1,4,1,16,1,-11,1,-5,1,-22,1,-56,1,-52,1,-36,1,-21,1,-16,1
1196,-15,1,-11,1,4,1,13,1,-10,1,-4,1,-14,1,-42,1,-41,1,-29,1,-17,1,-13,1
1197,-13,1,-7,1,6,1,10,1,-10,1,-1,1,-8,1,-32,1,-34,1,-25,1,-13,1,-10,1
1198,-14,1,-5,1,9,1,9,1,-12,1,2,1,-5,1,-27,1,-31,1,-21,1,-12,1,-9,1
1199,-15,1,-3,1,12,1,9,1,-14,1,4,1,-4,1,-25,1,-30,1,-22,1,-12,1,-9,1
1200,-14,1,-2,1,12,1,8,1,-13,1,5,1,-3,1,-22,1,-28,1,-22,1,-12,1,-10,1
1201,-16,1,-2,1,14,1,9,1,-15,1,6,1,-1,1,-22,1,-29,1,-21,1,-12,1,-10,1
1202,-16,1,-2,1,14,1,9,1,-15,1,6,1,-1,1,-21,1,-29,1,-22,1,-12,1,-10,1
1203,-17,1,-2,1,15,1,9,1,-16,1,6,1,-1,1,-20,1,-29,1,-22,1,-13,1,-10,1
1204,-18,1,-3,1,15,1,10,1,-17,1,6,1,0,1,-20,1,-29,1,-23,1,-13,1,-11,1
1205,-18,1,-3,1,15,1,10,1,-17,1,6,1,1,1,-19,1,-28,1,-23,1,-12,1,-11,1
1206,-20,1,-3,1,17,1,11,1,-19,1,7,1,1,1,-18,1,-28,1,-22,1,-12,1,-10,1
1207,-19,1,-3,1,16,1,11,1,-18,1,6,1,2,1,-17,1,-26,1,-22,1,-13,1,-10,1
1208,-17,1,-2,1,15,1,9,1,-16,1,6,1,3,1,-16,1,-26,1,-21,1,-12,1,-10,1
1209,-18,1,-2,1,16,1,10,1,-17,1,7,1,3,1,-16,1,-26,1,-23,1,-12,1,-10,1
1210,-17,1,-2,1,15,1,9,1,-16,1,6,1,4,1,-15,1,-25,1,-21,1,-11,1,-10,1
1211,-18,1,-2,1,16,1,10,1,-17,1,7,1,4,1,-14,1,-25,1,-21,1,-11,1,-9,1
1212,-18,1,-2,1,16,1,10,1,-17,1,7,1,4,1,-14,1,-24,1,-21,1,-11,1,-10,1
1213,-19,1,-2,1,17,1,10,1,-18,1,7,1,5,1,-13,1,-24,1,-20,1,-10,1,-10,1
1214,-19,1,-2,1,17,1,10,1,-18,1,7,1,5,1,-12,1,-23,1,-20,1,-11,1,-10,1
1215,-18,1,-2,1,16,1,10,1,-17,1,7,1,5,1,-12,1,-23,1,-20,1,-11,1,-9,1
1216,-17,1,-1,1,16,1,9,1,-17,1,7,1,5,1,-12,1,-23,1,-19,1,-11,1,-9,1
1217,-16,1,-1,1,15,1,8,1,-16,1,7,1,5,1,-11,1,-23,1,-18,1,-11,1,-9,1
1218,-17,1,-1,1,16,1,9,1,-17,1,7,1,4,1,-11,1,-23,1,-18,1,-10,1,-8,1
1219,-16,1,-1,1,15,1,8,1,-16,1,7,1,4,1,-10,1,-22,1,-18,1,-11,1,-8,1
1220,-15,1,0,1,15,1,7,1,-15,1,7,1,4,1,-10,1,-21,1,-18,1,-10,1,-8,1
1221,-15,1,0,1,15,1,7,1,-15,1,7,1,4,1,-9,1,-20,1,-17,1,-10,1,-9,1
1222,-17,1,-1,1,16,1,9,1,-17,1,7,1,5,1,-8,1,-20,1,-17,1,-10,1,-8,1
1223,-17,1,0,1,17,1,8,1,-17,1,8,1,5,1,-8,1,-20,1,-17,1,-9,1,-8,1
1224,-16,1,1,1,17,1,7,1,-16,1,9,1,5,1,-8,1,-20,1,-16,1,-9,1,-8,1
1225,-16,1,1,1,17,1,7,1,-16,1,9,1,4,1,-8,1,-20,1,-16,1,-10,1,-9,1
1226,-15,1,1,1,16,1,7,1,-15,1,8,1,4,1,-7,1,-20,1,-16,1,-9,1,-8,1
1227,-14,1,1,1,15,1,6,1,-14,1,8,1,4,1,-7,1,-20,1,-16,1,-9,1,-8,1
1228,-14,1,2,1,16,1,6,1,-15,1,9,1,4,1,-7,1,-18,1,-16,1,-7,1,-7,1
1229,-14,1,2,1,16,1,6,1,-15,1,9,1,4,1,-6,1,-18,1,-15,1,-8,1,-7,1
1230,-14,1,2,1,16,1,6,1,-15,1,9,1,4,1,-5,1,-18,1,-15,1,-8,1,-7,1
1231,-14,1,1,1,15,1,6,1,-14,1,8,1,3,1,-5,1,-18,1,-15,1,-7,1,-7,1
1232,-13,1,2,1,15,1,5,1,-14,1,8,1,4,1,-4,1,-17,1,-15,1,-7,1,-6,1
1233,-13,1,2,1,15,1,5,1,-14,1,8,1,5,1,-3,1,-16,1,-15,1,-7,1,-6,1
1234,-13,1,2,1,15,1,5,1,-14,1,8,1,5,1,-2,1,-16,1,-14,1,-6,1,-5,1
1235,-12,1,3,1,15,1,4,1,-13,1,9,1,5,1,-2,1,-16,1,-14,1,-6,1,-5,1
1236,-12,1,3,1,15,1,4,1,-13,1,9,1,5,1,-2,1,-15,1,-14,1,-6,1,-5,1
1237,-12,1,2,1,14,1,5,1,-13,1,8,1,4,1,-2,1,-15,1,-14,1,-6,1,-5,1
1238,-11,1,2,1,13,1,4,1,-12,1,7,1,4,1,-1,1,-13,1,-13,1,-5,1,-5,1
1239,-12,1,2,1,14,1,5,1,-13,1,8,1,5,1,0,1,-13,1,-13,1,-5,1,-5,1
1240,-11,1,2,1,13,1,4,1,-12,1,7,1,4,1,0,1,-14,1,-12,1,-5,1,-4,1
1241,-11,1,2,1,13,1,4,1,-12,1,7,1,4,1,1,1,-13,1,-12,1,-5,1,-4,1
1242,-10,1,2,1,12,1,4,1,-11,1,7,1,4,1,2,1,-12,1,-12,1,-5,1,-4,1
1243,-9,1,2,1,11,1,3,1,-10,1,6,1,5,1,3,1,-11,1,-11,1,-4,1,-3,1
1244,-9,1,2,1,11,1,3,1,-10,1,6,1,4,1,3,1,-10,1,-11,1,-4,1,-3,1
1245,-10,1,1,1,11,1,4,1,-10,1,6,1,5,1,4,1,-9,1,-10,1,-3,1,-2,1
1246,-9,1,2,1,11,1,3,1,-10,1,6,1,5,1,5,1,-8,1,-9,1,-3,1,-2,1
1247,-9,1,2,1,11,1,3,1,-10,1,6,1,5,1,6,1,-8,1,-9,1,-3,1,-2,1
1248,-7,1,2,1,9,1,2,1,-8,1,5,1,4,1,6,1,-7,1,-8,1,-3,1,-2,1
1249,-7,1,2,1,9,1,2,1,-8,1,5,1,5,1,7,1,-6,1,-8,1,-2,1,-2,1
1250,-7,1,3,1,10,1,2,1,-8,1,6,1,4,1,8,1,-6,1,-8,1,-2,1,-3,1
1251,-6,1,3,1,9,1,1,1,-7,1,6,1,4,1,8,1,-5,1,-8,1,-2,1,-3,1
1252,-5,1,3,1,8,1,1,1,-6,1,5,1,3,1,8,1,-5,1,-6,1,-3,1,-3,1
1253,-5,1,3,1,8,1,1,1,-6,1,5,1,3,1,8,1,-4,1,-5,1,-3,1,-4,1
1254,-5,1,3,1,8,1,1,1,-6,1,5,1,3,1,9,1,-3,1,-5,1,-2,1,-4,1
1255,-5,1,4,1,9,1,0,1,-7,1,6,1,4,1,10,1,-2,1,-4,1,-1,1,-3,1
1256,-3,1,4,1,7,1,0,1,-5,1,5,1,3,1,11,1,-2,1,-4,1,-2,1,-3,1
1257,-2,1,5,1,7,1,-1,1,-4,1,6,1,4,1,13,1,0,1,-3,1,-1,1,-2,1
1258,0,1,5,1,5,1,-2,1,-2,1,5,1,3,1,13,1,1,1,-2,1,0,1,-1,1
1259,0,1,6,1,6,1,-3,1,-3,1,6,1,3,1,14,1,1,1,-2,1,0,1,-1,1
1260,0,1,6,1,6,1,-3,1,-3,1,6,1,3,1,15,1,2,1,-2,1,0,1,-2,1
1261,1,1,6,1,5,1,-3,1,-2,1,6,1,3,1,16,1,3,1,-2,1,1,1,-2,1
1262,1,1,6,1,5,1,-3,1,-2,1,6,1,3,1,17,1,4,1,-1,1,1,1,-2,1
1263,1,1,6,1,5,1,-3,1,-2,1,6,1,2,1,19,1,5,1,0,1,2,1,-1,1
1264,2,1,6,1,4,1,-4,1,-1,1,5,1,2,1,20,1,7,1,0,1,2,1,-1,1
1265,2,1,6,1,4,1,-4,1,-1,1,5,1,2,1,21,1,8,1,2,1,2,1,0,1
1266,3,1,6,1,3,1,-4,1,0,1,5,1,3,1,24,1,10,1,3,1,3,1,0,1
1267,3,1,6,1,3,1,-4,1,0,1,5,1,2,1,25,1,11,1,3,1,3,1,0,1
1268,5,1,7,1,2,1,-6,1,2,1,5,1,2,1,25,1,12,1,5,1,4,1,0,1
1269,6,1,7,1,1,1,-6,1,3,1,4,1,2,1,27,1,13,1,5,1,4,1,0,1
1270,7,1,7,1,0,1,-7,1,4,1,4,1,2,1,28,1,15,1,6,1,6,1,1,1
1271,7,1,7,1,0,1,-7,1,4,1,4,1,2,1,31,1,16,1,6,1,6,1,2,1
1272,10,1,9,1,-1,1,-9,1,6,1,4,1,2,1,32,1,17,1,7,1,7,1,2,1
1273,11,1,8,1,-3,1,-9,1,7,1,3,1,2,1,34,1,19,1,9,1,7,1,1,1
1274,11,1,8,1,-3,1,-9,1,7,1,3,1,2,1,35,1,21,1,10,1,9,1,1,1
1275,11,1,7,1,-4,1,-9,1,8,1,2,1,2,1,36,1,21,1,10,1,9,1,1,1
1276,11,1,7,1,-4,1,-9,1,8,1,2,1,1,1,39,1,23,1,12,1,10,1,2,1
1277,14,1,7,1,-7,1,-10,1,11,1,0,1,1,1,41,1,24,1,13,1,11,1,3,1
1278,16,1,8,1,-8,1,-12,1,12,1,0,1,1,1,43,1,25,1,15,1,13,1,4,1
1279,15,1,7,1,-8,1,-11,1,12,1,0,1,1,1,45,1,27,1,16,1,13,1,5,1
1280,16,1,7,1,-9,1,-11,1,13,1,-1,1,1,1,46,1,30,1,17,1,13,1,7,1
1281,18,1,6,1,-12,1,-12,1,15,1,-3,1,1,1,48,1,31,1,18,1,14,1,7,1
1282,20,1,6,1,-14,1,-13,1,17,1,-4,1,1,1,50,1,32,1,19,1,15,1,7,1
1283,21,1,6,1,-15,1,-13,1,18,1,-4,1,1,1,52,1,35,1,21,1,16,1,8,1
1284,23,1,7,1,-16,1,-15,1,20,1,-4,1,0,1,54,1,37,1,22,1,15,1,8,1
1285,24,1,7,1,-17,1,-15,1,21,1,-5,1,0,1,56,1,39,1,23,1,16,1,9,1
1286,27,1,8,1,-19,1,-17,1,23,1,-5,1,-1,1,59,1,41,1,24,1,18,1,10,1
1287,29,1,8,1,-21,1,-18,1,25,1,-6,1,-2,1,61,1,43,1,25,1,19,1,10,1
1288,31,1,9,1,-22,1,-20,1,27,1,-6,1,-2,1,64,1,45,1,27,1,21,1,11,1
1289,32,1,9,1,-23,1,-20,1,28,1,-7,1,-2,1,65,1,47,1,28,1,21,1,11,1
1290,33,1,9,1,-24,1,-21,1,29,1,-7,1,-2,1,67,1,49,1,29,1,22,1,12,1
1291,35,1,9,1,-26,1,-22,1,31,1,-8,1,-3,1,70,1,51,1,31,1,23,1,13,1
1292,36,1,9,1,-27,1,-22,1,32,1,-9,1,-3,1,73,1,53,1,33,1,25,1,14,1
1293,39,1,9,1,-30,1,-24,1,35,1,-10,1,-4,1,75,1,56,1,34,1,25,1,14,1
1294,42,1,10,1,-32,1,-26,1,37,1,-11,1,-4,1,77,1,58,1,36,1,26,1,16,1
1295,43,1,10,1,-33,1,-26,1,38,1,-11,1,-4,1,79,1,60,1,37,1,27,1,16,1
1296,45,1,9,1,-36,1,-27,1,41,1,-13,1,-5,1,82,1,63,1,39,1,29,1,17,1
1297,47,1,9,1,-38,1,-28,1,43,1,-14,1,-7,1,85,1,65,1,39,1,29,1,18,1
1298,49,1,10,1,-39,1,-29,1,44,1,-14,1,-6,1,87,1,67,1,41,1,31,1,20,1
1299,52,1,9,1,-43,1,-30,1,48,1,-17,1,-6,1,90,1,69,1,44,1,32,1,20,1
1300,54,1,9,1,-45,1,-31,1,50,1,-18,1,-7,1,92,1,70,1,45,1,33,1,21,1
1301,56,1,10,1,-46,1,-33,1,51,1,-18,1,-8,1,94,1,73,1,47,1,34,1,21,1
1302,57,1,9,1,-48,1,-33,1,53,1,-19,1,-8,1,96,1,75,1,47,1,35,1,23,1
1303,60,1,9,1,-51,1,-34,1,56,1,-21,1,-9,1,98,1,77,1,50,1,36,1,23,1
1304,63,1,10,1,-53,1,-36,1,58,1,-21,1,-10,1,99,1,79,1,50,1,36,1,24,1
1305,64,1,9,1,-55,1,-36,1,60,1,-23,1,-9,1,101,1,81,1,52,1,38,1,26,1
1306,65,1,9,1,-56,1,-37,1,61,1,-23,1,-10,1,103,1,82,1,53,1,38,1,26,1
1307,67,1,10,1,-57,1,-38,1,62,1,-23,1,-11,1,103,1,83,1,53,1,38,1,26,1
1308,68,1,12,1,-56,1,-40,1,62,1,-22,1,-14,1,103,1,83,1,53,1,37,1,25,1
1309,70,1,10,1,-60,1,-40,1,65,1,-25,1,-13,1,105,1,85,1,55,1,39,1,26,1
1310,71,1,7,1,-64,1,-39,1,68,1,-28,1,-13,1,106,1,86,1,55,1,40,1,27,1
1311,72,1,8,1,-64,1,-40,1,68,1,-28,1,-14,1,107,1,87,1,56,1,40,1,27,1
1312,74,1,8,1,-66,1,-41,1,70,1,-29,1,-16,1,107,1,88,1,57,1,41,1,28,1
1313,75,1,8,1,-67,1,-41,1,71,1,-29,1,-17,1,107,1,88,1,57,1,41,1,28,1
1314,76,1,8,1,-68,1,-42,1,72,1,-30,1,-17,1,108,1,89,1,58,1,42,1,28,1
1315,79,1,9,1,-70,1,-44,1,75,1,-30,1,-17,1,108,1,89,1,58,1,43,1,30,1
1316,79,1,8,1,-71,1,-43,1,75,1,-31,1,-18,1,108,1,89,1,58,1,43,1,31,1
1317,80,1,8,1,-72,1,-44,1,76,1,-32,1,-19,1,108,1,89,1,58,1,43,1,30,1
1318,81,1,8,1,-73,1,-44,1,77,1,-32,1,-19,1,107,1,89,1,58,1,43,1,30,1
1319,82,1,7,1,-75,1,-44,1,79,1,-34,1,-20,1,106,1,88,1,58,1,43,1,31,1
1320,81,1,6,1,-75,1,-43,1,78,1,-34,1,-20,1,105,1,87,1,58,1,42,1,31,1
1321,81,1,6,1,-75,1,-43,1,78,1,-34,1,-21,1,104,1,87,1,56,1,42,1,31,1
1322,82,1,6,1,-76,1,-44,1,79,1,-35,1,-21,1,102,1,85,1,56,1,41,1,31,1
1323,82,1,6,1,-76,1,-44,1,79,1,-35,1,-22,1,100,1,84,1,55,1,41,1,30,1
1324,81,1,6,1,-75,1,-43,1,78,1,-34,1,-22,1,98,1,81,1,53,1,40,1,30,1
1325,79,1,5,1,-74,1,-42,1,77,1,-34,1,-22,1,96,1,79,1,52,1,39,1,29,1
1326,78,1,6,1,-72,1,-42,1,75,1,-33,1,-22,1,92,1,77,1,50,1,38,1,28,1
1327,78,1,8,1,-70,1,-43,1,74,1,-31,1,-22,1,88,1,73,1,48,1,36,1,27,1
1328,75,1,4,1,-71,1,-39,1,73,1,-33,1,-21,1,85,1,71,1,47,1,36,1,27,1
1329,72,1,2,1,-70,1,-37,1,71,1,-34,1,-20,1,82,1,68,1,45,1,34,1,26,1
1330,69,1,3,1,-66,1,-36,1,68,1,-31,1,-20,1,78,1,64,1,42,1,32,1,24,1
1331,65,1,2,1,-63,1,-33,1,64,1,-30,1,-19,1,75,1,61,1,39,1,30,1,23,1
1332,63,1,2,1,-61,1,-32,1,62,1,-29,1,-18,1,70,1,57,1,37,1,29,1,21,1
1333,60,1,1,1,-59,1,-30,1,60,1,-29,1,-18,1,67,1,54,1,35,1,28,1,21,1
1334,57,1,2,1,-55,1,-29,1,56,1,-26,1,-17,1,62,1,50,1,32,1,26,1,19,1
1335,53,1,1,1,-52,1,-27,1,53,1,-25,1,-16,1,59,1,46,1,29,1,24,1,18,1
1336,49,1,1,1,-48,1,-25,1,49,1,-23,1,-14,1,54,1,42,1,27,1,22,1,16,1
1337,46,1,1,1,-45,1,-23,1,46,1,-22,1,-13,1,50,1,38,1,24,1,20,1,16,1
1338,42,1,1,1,-41,1,-21,1,42,1,-20,1,-12,1,46,1,35,1,22,1,19,1,15,1
1339,38,1,1,1,-37,1,-19,1,38,1,-18,1,-11,1,41,1,31,1,20,1,17,1,13,1
1340,34,1,1,1,-33,1,-17,1,34,1,-16,1,-9,1,38,1,27,1,18,1,16,1,12,1
1341,30,1,0,1,-30,1,-15,1,30,1,-15,1,-9,1,33,1,23,1,15,1,13,1,11,1
1342,28,1,0,1,-28,1,-14,1,28,1,-14,1,-8,1,29,1,20,1,12,1,13,1,10,1
1343,25,1,1,1,-24,1,-13,1,25,1,-11,1,-8,1,25,1,17,1,10,1,11,1,9,1
1344,21,1,0,1,-21,1,-10,1,21,1,-10,1,-8,1,22,1,14,1,8,1,10,1,8,1
1345,18,1,-1,1,-19,1,-8,1,18,1,-10,1,-7,1,18,1,10,1,5,1,8,1,6,1
1346,15,1,0,1,-15,1,-7,1,15,1,-7,1,-6,1,15,1,8,1,5,1,8,1,6,1
1347,12,1,0,1,-12,1,-6,1,12,1,-6,1,-5,1,11,1,5,1,3,1,6,1,5,1
1348,10,1,0,1,-10,1,-5,1,10,1,-5,1,-5,1,9,1,2,1,1,1,5,1,4,1
1349,7,1,-1,1,-8,1,-3,1,7,1,-4,1,-4,1,6,1,1,1,1,1,4,1,4,1
1350,7,1,0,1,-7,1,-3,1,7,1,-3,1,-4,1,3,1,-1,1,0,1,4,1,2,1
1351,6,1,1,1,-5,1,-3,1,6,1,-2,1,-3,1,1,1,-3,1,-2,1,3,1,2,1
1352,3,1,1,1,-2,1,-2,1,3,1,0,1,-2,1,-2,1,-5,1,-3,1,3,1,2,1
1353,1,1,1,1,0,1,-1,1,1,1,1,1,-2,1,-4,1,-6,1,-5,1,1,1,0,1
1354,0,1,1,1,1,1,0,1,0,1,1,1,-3,1,-6,1,-9,1,-7,1,0,1,-1,1
1355,-1,1,1,1,2,1,0,1,-1,1,1,1,-2,1,-7,1,-10,1,-7,1,0,1,-1,1
1356,-4,1,1,1,5,1,1,1,-4,1,3,1,-2,1,-9,1,-11,1,-7,1,-1,1,-1,1
1357,-4,1,1,1,5,1,1,1,-4,1,3,1,-2,1,-12,1,-13,1,-9,1,-2,1,-2,1
1358,-5,1,1,1,6,1,2,1,-5,1,3,1,-1,1,-12,1,-13,1,-9,1,-1,1,-2,1
1359,-5,1,1,1,6,1,2,1,-5,1,3,1,-1,1,-14,1,-15,1,-9,1,-2,1,-3,1
1360,-6,1,0,1,6,1,3,1,-6,1,3,1,-2,1,-16,1,-15,1,-10,1,-3,1,-4,1
1361,-8,1,0,1,8,1,4,1,-8,1,4,1,-2,1,-17,1,-17,1,-12,1,-4,1,-4,1
1362,-9,1,1,1,10,1,4,1,-9,1,5,1,-2,1,-17,1,-17,1,-12,1,-4,1,-4,1
1363,-9,1,2,1,11,1,3,1,-10,1,6,1,-2,1,-18,1,-18,1,-13,1,-5,1,-5,1
1364,-9,1,2,1,11,1,3,1,-10,1,6,1,-2,1,-19,1,-18,1,-13,1,-4,1,-5,1
1365,-10,1,1,1,11,1,4,1,-10,1,6,1,-2,1,-19,1,-19,1,-13,1,-4,1,-5,1
1366,-10,1,1,1,11,1,4,1,-10,1,6,1,-2,1,-20,1,-19,1,-13,1,-4,1,-5,1
1367,-9,1,0,1,9,1,4,1,-9,1,4,1,-2,1,-20,1,-19,1,-15,1,-5,1,-5,1
1368,-11,1,0,1,11,1,5,1,-11,1,5,1,-3,1,-21,1,-20,1,-15,1,-5,1,-6,1
1369,-11,1,0,1,11,1,5,1,-11,1,5,1,-3,1,-21,1,-20,1,-15,1,-6,1,-6,1
1370,-11,1,0,1,11,1,5,1,-11,1,5,1,-3,1,-21,1,-21,1,-15,1,-6,1,-6,1
1371,-11,1,0,1,11,1,5,1,-11,1,5,1,-3,1,-22,1,-21,1,-15,1,-6,1,-7,1
1372,-12,1,0,1,12,1,6,1,-12,1,6,1,-3,1,-22,1,-22,1,-16,1,-6,1,-7,1
1373,-12,1,-1,1,11,1,6,1,-12,1,5,1,-2,1,-21,1,-22,1,-16,1,-7,1,-6,1
1374,-12,1,-1,1,11,1,6,1,-12,1,5,1,-1,1,-20,1,-21,1,-16,1,-6,1,-6,1
1375,-14,1,-1,1,13,1,7,1,-14,1,6,1,-1,1,-21,1,-22,1,-16,1,-7,1,-6,1
1376,-12,1,0,1,12,1,6,1,-12,1,6,1,-1,1,-21,1,-22,1,-16,1,-7,1,-6,1
1377,-12,1,0,1,12,1,6,1,-12,1,6,1,-1,1,-21,1,-21,1,-16,1,-7,1,-6,1
1378,-13,1,-1,1,12,1,7,1,-13,1,5,1,-1,1,-22,1,-22,1,-16,1,-7,1,-6,1
1379,-12,1,0,1,12,1,6,1,-12,1,6,1,-1,1,-21,1,-22,1,-16,1,-7,1,-6,1
1380,-12,1,0,1,12,1,6,1,-12,1,6,1,0,1,-21,1,-22,1,-16,1,-6,1,-6,1
1381,-12,1,0,1,12,1,6,1,-12,1,6,1,0,1,-21,1,-22,1,-16,1,-6,1,-6,1
1382,-12,1,0,1,12,1,6,1,-12,1,6,1,0,1,-22,1,-22,1,-15,1,-6,1,-6,1
1383,-12,1,0,1,12,1,6,1,-12,1,6,1,0,1,-23,1,-22,1,-16,1,-5,1,-6,1
1384,-13,1,0,1,13,1,6,1,-13,1,6,1,0,1,-23,1,-22,1,-15,1,-6,1,-6,1
1385,-13,1,0,1,13,1,6,1,-13,1,6,1,0,1,-23,1,-22,1,-15,1,-6,1,-6,1
1386,-14,1,0,1,14,1,7,1,-14,1,7,1,0,1,-23,1,-22,1,-16,1,-6,1,-6,1
1387,-14,1,0,1,14,1,7,1,-14,1,7,1,1,1,-22,1,-22,1,-16,1,-6,1,-6,1
1388,-12,1,0,1,12,1,6,1,-12,1,6,1,1,1,-22,1,-22,1,-17,1,-6,1,-5,1
1389,-12,1,0,1,12,1,6,1,-12,1,6,1,0,1,-22,1,-22,1,-16,1,-6,1,-5,1
1390,-13,1,0,1,13,1,6,1,-13,1,6,1,0,1,-21,1,-22,1,-16,1,-6,1,-5,1
1391,-13,1,0,1,13,1,6,1,-13,1,6,1,0,1,-21,1,-22,1,-16,1,-6,1,-5,1
1392,-13,1,0,1,13,1,6,1,-13,1,6,1,0,1,-21,1,-22,1,-17,1,-6,1,-5,1
1393,-13,1,0,1,13,1,6,1,-13,1,6,1,0,1,-21,1,-22,1,-17,1,-6,1,-5,1
1394,-13,1,1,1,14,1,6,1,-13,1,7,1,0,1,-21,1,-22,1,-16,1,-6,1,-5,1
1395,-13,1,1,1,14,1,6,1,-13,1,7,1,-1,1,-21,1,-22,1,-16,1,-6,1,-5,1
1396,-12,1,1,1,13,1,5,1,-12,1,7,1,0,1,-20,1,-22,1,-16,1,-5,1,-5,1
1397,-12,1,1,1,13,1,5,1,-12,1,7,1,0,1,-20,1,-23,1,-15,1,-5,1,-5,1
1398,-12,1,1,1,13,1,5,1,-12,1,7,1,0,1,-20,1,-23,1,-15,1,-5,1,-4,1
1399,-12,1,1,1,13,1,5,1,-12,1,7,1,0,1,-19,1,-22,1,-15,1,-4,1,-4,1
1400,-13,1,1,1,14,1,6,1,-13,1,7,1,0,1,-19,1,-22,1,-15,1,-4,1,-3,1
1401,-14,1,1,1,15,1,6,1,-14,1,8,1,0,1,-20,1,-22,1,-15,1,-4,1,-3,1
1402,-14,1,1,1,15,1,6,1,-14,1,8,1,0,1,-20,1,-22,1,-14,1,-4,1,-3,1
1403,-14,1,1,1,15,1,6,1,-14,1,8,1,0,1,-20,1,-22,1,-14,1,-4,1,-3,1
1404,-13,1,2,1,15,1,5,1,-14,1,8,1,0,1,-19,1,-21,1,-14,1,-4,1,-3,1
1405,-14,1,2,1,16,1,6,1,-15,1,9,1,0,1,-19,1,-21,1,-14,1,-4,1,-3,1
1406,-14,1,1,1,15,1,6,1,-14,1,8,1,0,1,-20,1,-21,1,-14,1,-4,1,-3,1
1407,-14,1,2,1,16,1,6,1,-15,1,9,1,0,1,-20,1,-21,1,-14,1,-4,1,-3,1
1408,-15,1,1,1,16,1,7,1,-15,1,8,1,0,1,-19,1,-20,1,-14,1,-4,1,-2,1
1409,-13,1,2,1,15,1,5,1,-14,1,8,1,0,1,-19,1,-20,1,-15,1,-4,1,-2,1
1410,-13,1,2,1,15,1,5,1,-14,1,8,1,0,1,-19,1,-20,1,-14,1,-4,1,-2,1
1411,-12,1,3,1,15,1,4,1,-13,1,9,1,1,1,-19,1,-20,1,-14,1,-3,1,-2,1
1412,-12,1,3,1,15,1,4,1,-13,1,9,1,0,1,-19,1,-20,1,-14,1,-3,1,-2,1
1413,-13,1,2,1,15,1,5,1,-14,1,8,1,0,1,-19,1,-21,1,-15,1,-3,1,-2,1
1414,-13,1,2,1,15,1,5,1,-14,1,8,1,0,1,-20,1,-21,1,-15,1,-3,1,-2,1
1415,-14,1,2,1,16,1,6,1,-15,1,9,1,0,1,-20,1,-21,1,-15,1,-3,1,-2,1
1416,-15,1,1,1,16,1,7,1,-15,1,8,1,-1,1,-19,1,-20,1,-15,1,-3,1,-2,1
1417,-14,1,1,1,15,1,6,1,-14,1,8,1,-1,1,-19,1,-20,1,-15,1,-3,1,-1,1
1418,-12,1,1,1,13,1,5,1,-12,1,7,1,-1,1,-19,1,-21,1,-14,1,-3,1,-1,1
1419,-13,1,1,1,14,1,6,1,-13,1,7,1,-1,1,-19,1,-21,1,-15,1,-3,1,-1,1
1420,-13,1,1,1,14,1,6,1,-13,1,7,1,-2,1,-19,1,-21,1,-13,1,-3,1,-1,1
1421,-12,1,2,1,14,1,5,1,-13,1,8,1,-2,1,-19,1,-20,1,-13,1,-2,1,0,1
1422,-13,1,1,1,14,1,6,1,-13,1,7,1,-2,1,-19,1,-20,1,-13,1,-2,1,0,1
1423,-14,1,0,1,14,1,7,1,-14,1,7,1,-1,1,-20,1,-21,1,-14,1,-3,1,-1,1
1424,-14,1,1,1,15,1,6,1,-14,1,8,1,-1,1,-20,1,-21,1,-14,1,-3,1,-1,1
1425,-14,1,1,1,15,1,6,1,-14,1,8,1,-2,1,-20,1,-21,1,-14,1,-3,1,-1,1
1426,-14,1,1,1,15,1,6,1,-14,1,8,1,-1,1,-20,1,-21,1,-14,1,-3,1,-1,1
1427,-13,1,1,1,14,1,6,1,-13,1,7,1,-1,1,-20,1,-21,1,-14,1,-3,1,0,1
1428,-13,1,1,1,14,1,6,1,-13,1,7,1,-1,1,-20,1,-21,1,-14,1,-3,1,0,1
1429,-15,1,0,1,15,1,7,1,-15,1,7,1,-1,1,-20,1,-22,1,-15,1,-3,1,-1,1
1430,-14,1,0,1,14,1,7,1,-14,1,7,1,-1,1,-21,1,-22,1,-15,1,-3,1,-1,1
1431,-13,1,1,1,14,1,6,1,-13,1,7,1,-1,1,-21,1,-23,1,-16,1,-4,1,-1,1
1432,-14,1,1,1,15,1,6,1,-14,1,8,1,-1,1,-22,1,-23,1,-16,1,-4,1,-1,1
1433,-14,1,1,1,15,1,6,1,-14,1,8,1,-1,1,-22,1,-23,1,-16,1,-4,1,-1,1
1434,-14,1,1,1,15,1,6,1,-14,1,8,1,-1,1,-22,1,-23,1,-16,1,-4,1,-2,1
1435,-15,1,1,1,16,1,7,1,-15,1,8,1,-1,1,-22,1,-23,1,-16,1,-4,1,-2,1
1436,-16,1,1,1,17,1,7,1,-16,1,9,1,-1,1,-23,1,-24,1,-16,1,-4,1,-3,1
1437,-14,1,1,1,15,1,6,1,-14,1,8,1,-2,1,-23,1,-24,1,-16,1,-5,1,-3,1
1438,-14,1,1,1,15,1,6,1,-14,1,8,1,-2,1,-24,1,-25,1,-16,1,-6,1,-3,1
1439,-16,1,1,1,17,1,7,1,-16,1,9,1,-2,1,-24,1,-25,1,-17,1,-7,1,-4,1
1440,-16,1,1,1,17,1,7,1,-16,1,9,1,-1,1,-24,1,-24,1,-16,1,-6,1,-4,1
1441,-15,1,1,1,16,1,7,1,-15,1,8,1,-1,1,-24,1,-24,1,-16,1,-7,1,-4,1
1442,-16,1,1,1,17,1,7,1,-16,1,9,1,-2,1,-25,1,-26,1,-18,1,-7,1,-5,1
1443,-16,1,1,1,17,1,7,1,-16,1,9,1,-2,1,-25,1,-26,1,-17,1,-7,1,-5,1
1444,-15,1,1,1,16,1,7,1,-15,1,8,1,-3,1,-25,1,-26,1,-18,1,-8,1,-5,1
1445,-16,1,1,1,17,1,7,1,-16,1,9,1,-3,1,-25,1,-26,1,-18,1,-7,1,-6,1
1446,-15,1,1,1,16,1,7,1,-15,1,8,1,-3,1,-25,1,-26,1,-17,1,-7,1,-5,1
1447,-15,1,1,1,16,1,7,1,-15,1,8,1,-3,1,-25,1,-26,1,-17,1,-7,1,-5,1
1448,-16,1,0,1,16,1,8,1,-16,1,8,1,-3,1,-26,1,-26,1,-18,1,-7,1,-5,1
1449,-15,1,0,1,15,1,7,1,-15,1,7,1,-3,1,-26,1,-26,1,-18,1,-7,1,-5,1
1450,-16,1,0,1,16,1,8,1,-16,1,8,1,-3,1,-27,1,-27,1,-19,1,-7,1,-6,1
1451,-16,1,0,1,16,1,8,1,-16,1,8,1,-2,1,-27,1,-27,1,-19,1,-7,1,-5,1
1452,-15,1,1,1,16,1,7,1,-15,1,8,1,-2,1,-27,1,-27,1,-19,1,-7,1,-5,1
1453,-15,1,1,1,16,1,7,1,-15,1,8,1,-2,1,-27,1,-27,1,-18,1,-7,1,-6,1
1454,-17,1,0,1,17,1,8,1,-17,1,8,1,-2,1,-27,1,-27,1,-19,1,-7,1,-6,1
1455,-16,1,0,1,16,1,8,1,-16,1,8,1,-3,1,-28,1,-28,1,-19,1,-7,1,-7,1
1456,-17,1,0,1,17,1,8,1,-17,1,8,1,-3,1,-28,1,-28,1,-19,1,-8,1,-7,1
1457,-18,1,0,1,18,1,9,1,-18,1,9,1,-2,1,-27,1,-28,1,-19,1,-8,1,-6,1
1458,-18,1,0,1,18,1,9,1,-18,1,9,1,-2,1,-27,1,-28,1,-19,1,-8,1,-6,1
1459,-17,1,0,1,17,1,8,1,-17,1,8,1,-2,1,-28,1,-28,1,-19,1,-8,1,-7,1
1460,-17,1,0,1,17,1,8,1,-17,1,8,1,-2,1,-28,1,-29,1,-19,1,-8,1,-7,1
1461,-18,1,0,1,18,1,9,1,-18,1,9,1,-2,1,-28,1,-29,1,-18,1,-8,1,-7,1
1462,-17,1,0,1,17,1,8,1,-17,1,8,1,-2,1,-28,1,-29,1,-18,1,-8,1,-7,1
1463,-17,1,0,1,17,1,8,1,-17,1,8,1,-2,1,-28,1,-29,1,-19,1,-8,1,-7,1
1464,-18,1,0,1,18,1,9,1,-18,1,9,1,-2,1,-28,1,-29,1,-19,1,-8,1,-7,1
1465,-19,1,-1,1,18,1,10,1,-19,1,8,1,-3,1,-28,1,-30,1,-19,1,-8,1,-8,1
1466,-18,1,0,1,18,1,9,1,-18,1,9,1,-2,1,-28,1,-30,1,-19,1,-8,1,-8,1
1467,-17,1,0,1,17,1,8,1,-17,1,8,1,-2,1,-28,1,-30,1,-20,1,-8,1,-8,1
1468,-17,1,0,1,17,1,8,1,-17,1,8,1,-3,1,-29,1,-30,1,-20,1,-9,1,-8,1
1469,-18,1,-1,1,17,1,9,1,-18,1,8,1,-3,1,-30,1,-30,1,-21,1,-9,1,-9,1
1470,-19,1,-1,1,18,1,10,1,-19,1,8,1,-2,1,-29,1,-30,1,-20,1,-8,1,-9,1
1471,-18,1,-2,1,16,1,10,1,-17,1,7,1,-2,1,-29,1,-30,1,-21,1,-8,1,-9,1
1472,-19,1,0,1,19,1,9,1,-19,1,9,1,-3,1,-30,1,-30,1,-21,1,-8,1,-9,1
1473,-19,1,0,1,19,1,9,1,-19,1,9,1,-2,1,-30,1,-30,1,-20,1,-8,1,-8,1
1474,-18,1,0,1,18,1,9,1,-18,1,9,1,-2,1,-30,1,-30,1,-20,1,-8,1,-8,1
1475,-18,1,0,1,18,1,9,1,-18,1,9,1,-2,1,-31,1,-31,1,-21,1,-9,1,-8,1
1476,-18,1,0,1,18,1,9,1,-18,1,9,1,-2,1,-31,1,-31,1,-20,1,-9,1,-7,1
1477,-17,1,0,1,17,1,8,1,-17,1,8,1,-2,1,-31,1,-30,1,-20,1,-9,1,-7,1
1478,-19,1,-1,1,18,1,10,1,-19,1,8,1,-2,1,-31,1,-31,1,-20,1,-9,1,-8,1
1479,-19,1,0,1,19,1,9,1,-19,1,9,1,-3,1,-32,1,-32,1,-21,1,-10,1,-8,1
1480,-19,1,0,1,19,1,9,1,-19,1,9,1,-2,1,-32,1,-31,1,-21,1,-9,1,-8,1
1481,-19,1,0,1,19,1,9,1,-19,1,9,1,-2,1,-32,1,-31,1,-21,1,-10,1,-8,1
1482,-19,1,0,1,19,1,9,1,-19,1,9,1,-3,1,-32,1,-31,1,-21,1,-10,1,-8,1
1483,-19,1,0,1,19,1,9,1,-19,1,9,1,-3,1,-33,1,-31,1,-21,1,-10,1,-8,1
1484,-20,1,0,1,20,1,10,1,-20,1,10,1,-3,1,-33,1,-32,1,-21,1,-9,1,-8,1
1485,-19,1,0,1,19,1,9,1,-19,1,9,1,-3,1,-33,1,-32,1,-21,1,-9,1,-8,1
1486,-19,1,0,1,19,1,9,1,-19,1,9,1,-3,1,-33,1,-32,1,-22,1,-9,1,-8,1
1487,-19,1,0,1,19,1,9,1,-19,1,9,1,-3,1,-33,1,-32,1,-22,1,-9,1,-8,1
1488,-19,1,0,1,19,1,9,1,-19,1,9,1,-4,1,-34,1,-33,1,-22,1,-9,1,-8,1
1489,-19,1,0,1,19,1,9,1,-19,1,9,1,-4,1,-35,1,-33,1,-23,1,-9,1,-8,1
1490,-19,1,1,1,20,1,9,1,-19,1,10,1,-5,1,-35,1,-33,1,-23,1,-9,1,-8,1
1491,-19,1,1,1,20,1,9,1,-19,1,10,1,-5,1,-35,1,-33,1,-23,1,-9,1,-9,1
1492,-20,1,0,1,20,1,10,1,-20,1,10,1,-5,1,-35,1,-33,1,-23,1,-10,1,-9,1
1493,-19,1,0,1,19,1,9,1,-19,1,9,1,-4,1,-34,1,-33,1,-23,1,-10,1,-8,1
1494,-19,1,1,1,20,1,9,1,-19,1,10,1,-5,1,-34,1,-33,1,-23,1,-10,1,-8,1
1495,-19,1,1,1,20,1,9,1,-19,1,10,1,-5,1,-34,1,-33,1,-23,1,-10,1,-8,1
1496,-19,1,1,1,20,1,9,1,-19,1,10,1,-5,1,-34,1,-33,1,-22,1,-10,1,-8,1
1497,-19,1,1,1,20,1,9,1,-19,1,10,1,-4,1,-34,1,-33,1,-21,1,-9,1,-8,1
1498,-21,1,0,1,21,1,10,1,-21,1,10,1,-4,1,-34,1,-32,1,-21,1,-9,1,-8,1
1499,-20,1,0,1,20,1,10,1,-20,1,10,1,-5,1,-34,1,-33,1,-22,1,-9,1,-8,1
1500,-19,1,1,1,20,1,9,1,-19,1,10,1,-5,1,-36,1,-34,1,-22,1,-10,1,-8,1
1501,-19,1,1,1,20,1,9,1,-19,1,10,1,-5,1,-35,1,-33,1,-22,1,-10,1,-8,1
1502,-20,1,1,1,21,1,9,1,-20,1,11,1,-4,1,-35,1,-33,1,-22,1,-10,1,-7,1
1503,-18,1,1,1,19,1,8,1,-18,1,10,1,-4,1,-35,1,-33,1,-22,1,-10,1,-7,1
1504,-18,1,2,1,20,1,8,1,-19,1,11,1,-4,1,-35,1,-33,1,-23,1,-10,1,-7,1
1505,-19,1,1,1,20,1,9,1,-19,1,10,1,-4,1,-35,1,-33,1,-23,1,-10,1,-7,1
1506,-19,1,1,1,20,1,9,1,-19,1,10,1,-4,1,-36,1,-33,1,-23,1,-10,1,-7,1
1507,-19,1,1,1,20,1,9,1,-19,1,10,1,-4,1,-35,1,-33,1,-23,1,-10,1,-7,1
1508,-19,1,1,1,20,1,9,1,-19,1,10,1,-4,1,-35,1,-33,1,-23,1,-10,1,-7,1
1509,-19,1,1,1,20,1,9,1,-19,1,10,1,-4,1,-35,1,-32,1,-23,1,-10,1,-7,1
1510,-20,1,1,1,21,1,9,1,-20,1,11,1,-4,1,-36,1,-33,1,-24,1,-10,1,-7,1
1511,-18,1,1,1,19,1,8,1,-18,1,10,1,-3,1,-35,1,-32,1,-23,1,-10,1,-7,1
1512,-18,1,2,1,20,1,8,1,-19,1,11,1,-3,1,-34,1,-32,1,-22,1,-10,1,-7,1
1513,-19,1,2,1,21,1,8,1,-20,1,11,1,-3,1,-35,1,-33,1,-23,1,-11,1,-8,1
1514,-19,1,2,1,21,1,8,1,-20,1,11,1,-3,1,-35,1,-33,1,-23,1,-11,1,-8,1
1515,-20,1,1,1,21,1,9,1,-20,1,11,1,-5,1,-36,1,-34,1,-23,1,-12,1,-9,1
1516,-20,1,1,1,21,1,9,1,-20,1,11,1,-6,1,-36,1,-33,1,-23,1,-12,1,-9,1
1517,-20,1,1,1,21,1,9,1,-20,1,11,1,-6,1,-36,1,-33,1,-23,1,-12,1,-9,1
1518,-20,1,1,1,21,1,9,1,-20,1,11,1,-6,1,-36,1,-33,1,-23,1,-11,1,-9,1
1519,-20,1,1,1,21,1,9,1,-20,1,11,1,-5,1,-36,1,-33,1,-23,1,-11,1,-9,1
1520,-19,1,1,1,20,1,9,1,-19,1,10,1,-5,1,-36,1,-33,1,-23,1,-11,1,-9,1
1521,-18,1,3,1,21,1,7,1,-19,1,12,1,-4,1,-35,1,-34,1,-22,1,-11,1,-8,1
1522,-19,1,3,1,22,1,8,1,-20,1,12,1,-4,1,-35,1,-34,1,-23,1,-11,1,-8,1
1523,-19,1,1,1,20,1,9,1,-19,1,10,1,-5,1,-35,1,-34,1,-24,1,-11,1,-8,1
1524,-21,1,1,1,22,1,10,1,-21,1,11,1,-5,1,-36,1,-35,1,-24,1,-12,1,-8,1
1525,-19,1,1,1,20,1,9,1,-19,1,10,1,-6,1,-36,1,-34,1,-24,1,-11,1,-8,1
1526,-19,1,1,1,20,1,9,1,-19,1,10,1,-5,1,-35,1,-34,1,-23,1,-11,1,-8,1
1527,-21,1,1,1,22,1,10,1,-21,1,11,1,-5,1,-36,1,-34,1,-24,1,-12,1,-10,1
1528,-20,1,1,1,21,1,9,1,-20,1,11,1,-5,1,-35,1,-34,1,-24,1,-11,1,-9,1
1529,-20,1,1,1,21,1,9,1,-20,1,11,1,-5,1,-35,1,-35,1,-24,1,-11,1,-9,1
1530,-22,1,0,1,22,1,11,1,-22,1,11,1,-5,1,-36,1,-35,1,-24,1,-11,1,-9,1
1531,-21,1,0,1,21,1,10,1,-21,1,10,1,-5,1,-36,1,-35,1,-24,1,-11,1,-9,1
1532,-20,1,0,1,20,1,10,1,-20,1,10,1,-5,1,-35,1,-35,1,-23,1,-11,1,-9,1
1533,-21,1,0,1,21,1,10,1,-21,1,10,1,-5,1,-35,1,-35,1,-23,1,-11,1,-9,1
1534,-21,1,0,1,21,1,10,1,-21,1,10,1,-5,1,-36,1,-34,1,-23,1,-12,1,-9,1
1535,-21,1,0,1,21,1,10,1,-21,1,10,1,-5,1,-36,1,-34,1,-23,1,-11,1,-9,1
1536,-21,1,0,1,21,1,10,1,-21,1,10,1,-5,1,-35,1,-34,1,-22,1,-11,1,-9,1
1537,-21,1,0,1,21,1,10,1,-21,1,10,1,-5,1,-35,1,-34,1,-22,1,-11,1,-9,1
1538,-21,1,0,1,21,1,10,1,-21,1,10,1,-4,1,-35,1,-34,1,-22,1,-11,1,-9,1
1539,-20,1,0,1,20,1,10,1,-20,1,10,1,-4,1,-35,1,-34,1,-23,1,-11,1,-10,1
1540,-21,1,0,1,21,1,10,1,-21,1,10,1,-5,1,-35,1,-34,1,-23,1,-11,1,-9,1
1541,-20,1,0,1,20,1,10,1,-20,1,10,1,-6,1,-35,1,-34,1,-23,1,-10,1,-9,1
1542,-21,1,0,1,21,1,10,1,-21,1,10,1,-6,1,-35,1,-34,1,-23,1,-10,1,-9,1
1543,-21,1,0,1,21,1,10,1,-21,1,10,1,-5,1,-35,1,-34,1,-23,1,-11,1,-9,1
1544,-20,1,0,1,20,1,10,1,-20,1,10,1,-5,1,-35,1,-33,1,-23,1,-10,1,-9,1
1545,-20,1,0,1,20,1,10,1,-20,1,10,1,-6,1,-35,1,-33,1,-23,1,-10,1,-9,1
1546,-21,1,0,1,21,1,10,1,-21,1,10,1,-6,1,-35,1,-34,1,-23,1,-10,1,-9,1
1547,-20,1,0,1,20,1,10,1,-20,1,10,1,-5,1,-35,1,-34,1,-23,1,-10,1,-9,1
1548,-21,1,0,1,21,1,10,1,-21,1,10,1,-5,1,-35,1,-34,1,-23,1,-10,1,-9,1
1549,-21,1,0,1,21,1,10,1,-21,1,10,1,-5,1,-35,1,-33,1,-23,1,-11,1,-9,1
1550,-20,1,0,1,20,1,10,1,-20,1,10,1,-5,1,-35,1,-33,1,-22,1,-12,1,-9,1
1551,-21,1,-1,1,20,1,11,1,-21,1,9,1,-5,1,-35,1,-33,1,-22,1,-11,1,-9,1
1552,-21,1,-1,1,20,1,11,1,-21,1,9,1,-5,1,-35,1,-33,1,-22,1,-11,1,-9,1
1553,-21,1,-1,1,20,1,11,1,-21,1,9,1,-5,1,-35,1,-33,1,-22,1,-11,1,-9,1
1554,-21,1,-1,1,20,1,11,1,-21,1,9,1,-4,1,-35,1,-33,1,-22,1,-12,1,-9,1
1555,-21,1,-1,1,20,1,11,1,-21,1,9,1,-4,1,-35,1,-33,1,-22,1,-11,1,-9,1
1556,-21,1,-1,1,20,1,11,1,-21,1,9,1,-5,1,-35,1,-33,1,-23,1,-11,1,-9,1
1557,-21,1,0,1,21,1,10,1,-21,1,10,1,-4,1,-35,1,-32,1,-23,1,-11,1,-9,1
1558,-21,1,0,1,21,1,10,1,-21,1,10,1,-3,1,-34,1,-32,1,-23,1,-11,1,-9,1
1559,-21,1,0,1,21,1,10,1,-21,1,10,1,-3,1,-33,1,-32,1,-23,1,-11,1,-9,1
1560,-20,1,0,1,20,1,10,1,-20,1,10,1,-3,1,-34,1,-32,1,-23,1,-12,1,-10,1
1561,-21,1,0,1,21,1,10,1,-21,1,10,1,-3,1,-34,1,-32,1,-23,1,-11,1,-10,1
1562,-21,1,0,1,21,1,10,1,-21,1,10,1,-3,1,-34,1,-32,1,-23,1,-11,1,-9,1
1563,-20,1,1,1,21,1,9,1,-20,1,11,1,-4,1,-34,1,-32,1,-23,1,-11,1,-10,1
1564,-19,1,1,1,20,1,9,1,-19,1,10,1,-4,1,-35,1,-33,1,-22,1,-11,1,-10,1
1565,-20,1,2,1,22,1,9,1,-21,1,12,1,-4,1,-34,1,-32,1,-22,1,-11,1,-9,1
1566,-21,1,1,1,22,1,10,1,-21,1,11,1,-4,1,-35,1,-33,1,-22,1,-11,1,-10,1
1567,-21,1,1,1,22,1,10,1,-21,1,11,1,-6,1,-35,1,-33,1,-23,1,-11,1,-11,1
1568,-22,1,1,1,23,1,10,1,-22,1,12,1,-6,1,-36,1,-33,1,-23,1,-11,1,-10,1
1569,-21,1,2,1,23,1,9,1,-22,1,12,1,-6,1,-35,1,-33,1,-23,1,-11,1,-9,1
1570,-20,1,2,1,22,1,9,1,-21,1,12,1,-6,1,-36,1,-33,1,-23,1,-11,1,-9,1
1571,-19,1,3,1,22,1,8,1,-20,1,12,1,-6,1,-35,1,-33,1,-23,1,-11,1,-8,1
1572,-20,1,2,1,22,1,9,1,-21,1,12,1,-6,1,-35,1,-32,1,-23,1,-11,1,-8,1
1573,-20,1,2,1,22,1,9,1,-21,1,12,1,-6,1,-36,1,-32,1,-23,1,-11,1,-9,1
1574,-20,1,2,1,22,1,9,1,-21,1,12,1,-6,1,-35,1,-32,1,-22,1,-10,1,-8,1
1575,-21,1,2,1,23,1,9,1,-22,1,12,1,-5,1,-36,1,-33,1,-23,1,-11,1,-9,1
1576,-21,1,2,1,23,1,9,1,-22,1,12,1,-5,1,-35,1,-32,1,-22,1,-10,1,-8,1
1577,-22,1,1,1,23,1,10,1,-22,1,12,1,-6,1,-36,1,-34,1,-23,1,-10,1,-8,1
1578,-21,1,1,1,22,1,10,1,-21,1,11,1,-6,1,-35,1,-33,1,-23,1,-10,1,-8,1
1579,-20,1,1,1,21,1,9,1,-20,1,11,1,-6,1,-35,1,-33,1,-23,1,-10,1,-8,1
1580,-20,1,1,1,21,1,9,1,-20,1,11,1,-5,1,-35,1,-33,1,-23,1,-10,1,-8,1
1581,-20,1,1,1,21,1,9,1,-20,1,11,1,-5,1,-35,1,-33,1,-23,1,-10,1,-8,1
1582,-20,1,1,1,21,1,9,1,-20,1,11,1,-5,1,-35,1,-32,1,-22,1,-10,1,-7,1
1583,-20,1,1,1,21,1,9,1,-20,1,11,1,-5,1,-35,1,-33,1,-22,1,-10,1,-7,1
1584,-21,1,1,1,22,1,10,1,-21,1,11,1,-5,1,-35,1,-33,1,-22,1,-10,1,-8,1
1585,-20,1,1,1,21,1,9,1,-20,1,11,1,-5,1,-35,1,-33,1,-22,1,-10,1,-8,1
1586,-20,1,1,1,21,1,9,1,-20,1,11,1,-4,1,-35,1,-32,1,-21,1,-10,1,-7,1
1587,-20,1,2,1,22,1,9,1,-21,1,12,1,-4,1,-34,1,-32,1,-21,1,-11,1,-7,1
1588,-19,1,2,1,21,1,8,1,-20,1,11,1,-5,1,-35,1,-32,1,-21,1,-10,1,-7,1
1589,-19,1,2,1,21,1,8,1,-20,1,11,1,-4,1,-35,1,-33,1,-22,1,-11,1,-8,1
1590,-19,1,2,1,21,1,8,1,-20,1,11,1,-4,1,-34,1,-32,1,-22,1,-11,1,-8,1
1591,-19,1,2,1,21,1,8,1,-20,1,11,1,-4,1,-34,1,-31,1,-22,1,-11,1,-7,1
1592,-19,1,1,1,20,1,9,1,-19,1,10,1,-3,1,-34,1,-31,1,-22,1,-11,1,-7,1
1593,-20,1,1,1,21,1,9,1,-20,1,11,1,-4,1,-33,1,-32,1,-23,1,-11,1,-8,1
1594,-20,1,2,1,22,1,9,1,-21,1,12,1,-4,1,-33,1,-31,1,-22,1,-11,1,-8,1
1595,-18,1,2,1,20,1,8,1,-19,1,11,1,-4,1,-32,1,-31,1,-21,1,-10,1,-7,1
1596,-17,1,2,1,19,1,7,1,-18,1,10,1,-4,1,-32,1,-30,1,-20,1,-10,1,-7,1
1597,-16,1,3,1,19,1,6,1,-17,1,11,1,-4,1,-31,1,-29,1,-21,1,-10,1,-7,1
1598,-16,1,4,1,20,1,6,1,-18,1,12,1,-4,1,-31,1,-29,1,-21,1,-10,1,-7,1
1599,-16,1,4,1,20,1,6,1,-18,1,12,1,-4,1,-31,1,-29,1,-20,1,-9,1,-7,1
1600,-15,1,4,1,19,1,5,1,-17,1,11,1,-4,1,-30,1,-28,1,-20,1,-9,1,-6,1
1601,-12,1,5,1,17,1,3,1,-14,1,11,1,-3,1,-29,1,-28,1,-19,1,-8,1,-6,1
1602,-13,1,5,1,18,1,4,1,-15,1,11,1,-3,1,-29,1,-28,1,-18,1,-7,1,-5,1
1603,-12,1,5,1,17,1,3,1,-14,1,11,1,-1,1,-28,1,-26,1,-17,1,-7,1,-5,1
1604,-13,1,5,1,18,1,4,1,-15,1,11,1,0,1,-25,1,-25,1,-16,1,-6,1,-5,1
1605,-12,1,7,1,19,1,2,1,-15,1,13,1,1,1,-25,1,-23,1,-15,1,-5,1,-4,1
1606,-12,1,8,1,20,1,2,1,-16,1,14,1,2,1,-24,1,-23,1,-15,1,-4,1,-3,1
1607,-12,1,9,1,21,1,1,1,-16,1,15,1,3,1,-24,1,-23,1,-15,1,-4,1,-2,1
1608,-11,1,10,1,21,1,0,1,-16,1,15,1,2,1,-23,1,-23,1,-15,1,-3,1,-2,1
1609,-10,1,10,1,20,1,0,1,-15,1,15,1,2,1,-25,1,-24,1,-15,1,-4,1,-3,1
1610,-13,1,8,1,21,1,2,1,-17,1,14,1,2,1,-25,1,-24,1,-16,1,-4,1,-4,1
1611,-11,1,8,1,19,1,1,1,-15,1,13,1,2,1,-24,1,-24,1,-15,1,-4,1,-4,1
1612,-11,1,8,1,19,1,1,1,-15,1,13,1,1,1,-23,1,-23,1,-15,1,-4,1,-4,1
1613,-11,1,7,1,18,1,2,1,-14,1,12,1,0,1,-24,1,-24,1,-15,1,-4,1,-4,1
1614,-11,1,6,1,17,1,2,1,-14,1,11,1,0,1,-24,1,-24,1,-15,1,-4,1,-3,1
1615,-10,1,6,1,16,1,2,1,-13,1,11,1,-2,1,-25,1,-24,1,-15,1,-4,1,-4,1
1616,-11,1,6,1,17,1,2,1,-14,1,11,1,-3,1,-25,1,-24,1,-15,1,-4,1,-3,1
1617,-9,1,6,1,15,1,1,1,-12,1,10,1,-5,1,-26,1,-24,1,-15,1,-4,1,-3,1
1618,-7,1,8,1,15,1,0,1,-11,1,11,1,-8,1,-27,1,-23,1,-14,1,-2,1,-1,1
1619,-5,1,10,1,15,1,-2,1,-10,1,12,1,-10,1,-27,1,-22,1,-11,1,-1,1,0,1
1620,-4,1,13,1,17,1,-4,1,-10,1,15,1,-12,1,-27,1,-22,1,-10,1,0,1,1,1
1621,-4,1,13,1,17,1,-4,1,-10,1,15,1,-13,1,-28,1,-22,1,-10,1,0,1,1,1
1622,-4,1,13,1,17,1,-4,1,-10,1,15,1,-13,1,-28,1,-22,1,-10,1,0,1,1,1
1623,-5,1,11,1,16,1,-3,1,-10,1,13,1,-12,1,-29,1,-23,1,-12,1,0,1,0,1
1624,-4,1,11,1,15,1,-3,1,-9,1,13,1,-12,1,-30,1,-24,1,-13,1,-1,1,0,1
1625,-4,1,9,1,13,1,-2,1,-8,1,11,1,-12,1,-31,1,-25,1,-13,1,-2,1,0,1
1626,-3,1,8,1,11,1,-2,1,-7,1,9,1,-13,1,-32,1,-26,1,-16,1,-4,1,-1,1
1627,-4,1,6,1,10,1,-1,1,-7,1,8,1,-13,1,-33,1,-28,1,-16,1,-4,1,-2,1
1628,-4,1,5,1,9,1,0,1,-6,1,7,1,-12,1,-33,1,-29,1,-16,1,-5,1,-2,1
1629,-4,1,6,1,10,1,-1,1,-7,1,8,1,-12,1,-33,1,-29,1,-16,1,-5,1,-2,1
1630,-4,1,6,1,10,1,-1,1,-7,1,8,1,-12,1,-33,1,-29,1,-17,1,-5,1,-4,1
1631,-3,1,7,1,10,1,-2,1,-6,1,8,1,-13,1,-34,1,-30,1,-17,1,-5,1,-4,1
1632,-2,1,7,1,9,1,-2,1,-5,1,8,1,-13,1,-35,1,-31,1,-17,1,-6,1,-4,1
1633,-3,1,7,1,10,1,-2,1,-6,1,8,1,-13,1,-36,1,-32,1,-18,1,-6,1,-4,1
1634,-3,1,6,1,9,1,-1,1,-6,1,7,1,-14,1,-36,1,-32,1,-19,1,-7,1,-6,1
1635,-1,1,6,1,7,1,-2,1,-4,1,6,1,-14,1,-36,1,-32,1,-19,1,-7,1,-6,1
1636,-2,1,4,1,6,1,-1,1,-4,1,5,1,-12,1,-34,1,-30,1,-18,1,-6,1,-5,1
1637,-2,1,4,1,6,1,-1,1,-4,1,5,1,-12,1,-34,1,-30,1,-18,1,-6,1,-5,1
1638,-2,1,5,1,7,1,-1,1,-4,1,6,1,-12,1,-35,1,-31,1,-19,1,-6,1,-5,1
1639,-3,1,5,1,8,1,-1,1,-5,1,6,1,-13,1,-35,1,-32,1,-21,1,-6,1,-5,1
1640,-4,1,5,1,9,1,0,1,-6,1,7,1,-12,1,-36,1,-33,1,-21,1,-6,1,-5,1
1641,-5,1,5,1,10,1,0,1,-7,1,7,1,-12,1,-37,1,-34,1,-21,1,-7,1,-5,1
1642,-6,1,5,1,11,1,0,1,-8,1,8,1,-12,1,-37,1,-33,1,-21,1,-6,1,-5,1
1643,-8,1,4,1,12,1,2,1,-10,1,8,1,-11,1,-37,1,-33,1,-21,1,-6,1,-5,1
1644,-12,1,3,1,15,1,4,1,-13,1,9,1,-10,1,-37,1,-34,1,-22,1,-7,1,-7,1
1645,-14,1,2,1,16,1,6,1,-15,1,9,1,-9,1,-37,1,-34,1,-22,1,-8,1,-8,1
1646,-16,1,0,1,16,1,8,1,-16,1,8,1,-9,1,-37,1,-34,1,-23,1,-9,1,-9,1
1647,-16,1,0,1,16,1,8,1,-16,1,8,1,-9,1,-37,1,-35,1,-23,1,-9,1,-9,1
1648,-17,1,0,1,17,1,8,1,-17,1,8,1,-10,1,-37,1,-35,1,-24,1,-10,1,-9,1
1649,-17,1,0,1,17,1,8,1,-17,1,8,1,-11,1,-39,1,-37,1,-25,1,-11,1,-11,1
1650,-20,1,-1,1,19,1,10,1,-20,1,9,1,-9,1,-39,1,-38,1,-25,1,-11,1,-10,1
1651,-20,1,-1,1,19,1,10,1,-20,1,9,1,-9,1,-39,1,-38,1,-25,1,-12,1,-10,1
1652,-20,1,-2,1,18,1,11,1,-19,1,8,1,-9,1,-41,1,-39,1,-27,1,-14,1,-12,1
1653,-21,1,-3,1,18,1,12,1,-20,1,7,1,-9,1,-41,1,-39,1,-27,1,-14,1,-11,1
1654,-21,1,-3,1,18,1,12,1,-20,1,7,1,-9,1,-41,1,-39,1,-28,1,-14,1,-11,1
1655,-20,1,-2,1,18,1,11,1,-19,1,8,1,-10,1,-42,1,-40,1,-29,1,-14,1,-12,1
1656,-20,1,-2,1,18,1,11,1,-19,1,8,1,-9,1,-41,1,-40,1,-29,1,-14,1,-12,1
1657,-21,1,-2,1,19,1,11,1,-20,1,8,1,-8,1,-41,1,-40,1,-29,1,-14,1,-12,1
1658,-20,1,-2,1,18,1,11,1,-19,1,8,1,-8,1,-41,1,-39,1,-29,1,-14,1,-12,1
1659,-20,1,-2,1,18,1,11,1,-19,1,8,1,-8,1,-41,1,-40,1,-28,1,-14,1,-12,1
1660,-21,1,-2,1,19,1,11,1,-20,1,8,1,-7,1,-40,1,-39,1,-28,1,-15,1,-12,1
1661,-21,1,-2,1,19,1,11,1,-20,1,8,1,-6,1,-39,1,-39,1,-28,1,-16,1,-12,1
1662,-21,1,-2,1,19,1,11,1,-20,1,8,1,-6,1,-39,1,-39,1,-28,1,-15,1,-13,1
1663,-21,1,-3,1,18,1,12,1,-20,1,7,1,-7,1,-39,1,-39,1,-28,1,-15,1,-13,1
1664,-22,1,-3,1,19,1,12,1,-21,1,8,1,-6,1,-39,1,-39,1,-28,1,-15,1,-13,1
1665,-22,1,-3,1,19,1,12,1,-21,1,8,1,-6,1,-39,1,-39,1,-28,1,-15,1,-14,1
1666,-22,1,-2,1,20,1,12,1,-21,1,9,1,-6,1,-40,1,-38,1,-27,1,-15,1,-14,1
1667,-21,1,-1,1,20,1,11,1,-21,1,9,1,-7,1,-39,1,-38,1,-26,1,-14,1,-12,1
1668,-20,1,-1,1,19,1,10,1,-20,1,9,1,-7,1,-39,1,-38,1,-26,1,-14,1,-12,1
1669,-22,1,-2,1,20,1,12,1,-21,1,9,1,-7,1,-40,1,-38,1,-26,1,-14,1,-13,1
1670,-22,1,-2,1,20,1,12,1,-21,1,9,1,-7,1,-39,1,-38,1,-27,1,-14,1,-13,1
1671,-22,1,-2,1,20,1,12,1,-21,1,9,1,-6,1,-39,1,-38,1,-27,1,-14,1,-13,1
1672,-22,1,-2,1,20,1,12,1,-21,1,9,1,-6,1,-40,1,-37,1,-27,1,-14,1,-12,1
1673,-23,1,-3,1,20,1,13,1,-22,1,8,1,-6,1,-39,1,-37,1,-28,1,-15,1,-14,1
1674,-22,1,-2,1,20,1,12,1,-21,1,9,1,-6,1,-39,1,-36,1,-27,1,-14,1,-12,1
1675,-22,1,-2,1,20,1,12,1,-21,1,9,1,-6,1,-40,1,-37,1,-28,1,-14,1,-12,1
1676,-22,1,-2,1,20,1,12,1,-21,1,9,1,-6,1,-39,1,-36,1,-27,1,-14,1,-12,1
1677,-22,1,-2,1,20,1,12,1,-21,1,9,1,-5,1,-38,1,-37,1,-27,1,-14,1,-12,1
1678,-23,1,-3,1,20,1,13,1,-22,1,8,1,-6,1,-38,1,-37,1,-27,1,-14,1,-12,1
1679,-24,1,-3,1,21,1,13,1,-23,1,9,1,-4,1,-38,1,-36,1,-26,1,-14,1,-13,1
1680,-27,1,-1,1,26,1,14,1,-27,1,12,1,0,1,-34,1,-34,1,-26,1,-14,1,-13,1
1681,-30,1,-1,1,29,1,15,1,-30,1,14,1,4,1,-30,1,-32,1,-26,1,-14,1,-13,1
1682,-35,1,-3,1,32,1,19,1,-34,1,14,1,11,1,-25,1,-31,1,-27,1,-16,1,-15,1
1683,-39,1,-6,1,33,1,22,1,-36,1,13,1,19,1,-16,1,-28,1,-27,1,-19,1,-18,1
1684,-42,1,-10,1,32,1,26,1,-37,1,11,1,29,1,-1,1,-21,1,-25,1,-20,1,-21,1
1685,-45,1,-15,1,30,1,30,1,-38,1,7,1,36,1,15,1,-14,1,-23,1,-22,1,-25,1
1686,-42,1,-21,1,21,1,31,1,-32,1,0,1,41,1,33,1,-5,1,-21,1,-22,1,-27,1
1687,-40,1,-27,1,13,1,33,1,-27,1,-7,1,50,1,52,1,7,1,-16,1,-21,1,-29,1
1688,-33,1,-32,1,1,1,32,1,-17,1,-16,1,53,1,70,1,20,1,-6,1,-17,1,-30,1
1689,-22,1,-34,1,-12,1,28,1,-5,1,-23,1,57,1,100,1,41,1,9,1,-7,1,-24,1
1690,-2,1,-35,1,-33,1,18,1,15,1,-34,1,59,1,134,1,69,1,29,1,5,1,-16,1
1691,31,1,-31,1,-62,1,0,1,46,1,-46,1,52,1,160,1,99,1,55,1,25,1,-3,1
1692,73,1,-19,1,-92,1,-27,1,82,1,-55,1,34,1,170,1,130,1,90,1,54,1,18,1
1693,117,1,-5,1,-122,1,-56,1,119,1,-63,1,9,1,167,1,167,1,134,1,90,1,43,1
1694,163,1,12,1,-151,1,-87,1,157,1,-69,1,-25,1,149,1,204,1,182,1,129,1,72,1
1695,209,1,30,1,-179,1,-119,1,194,1,-74,1,-61,1,119,1,229,1,224,1,167,1,101,1
1696,245,1,45,1,-200,1,-145,1,223,1,-77,1,-93,1,84,1,248,1,264,1,202,1,128,1
1697,269,1,63,1,-206,1,-166,1,238,1,-71,1,-120,1,50,1,263,1,300,1,235,1,152,1
1698,283,1,82,1,-201,1,-182,1,242,1,-59,1,-141,1,16,1,273,1,332,1,264,1,174,1
1699,278,1,94,1,-184,1,-186,1,231,1,-45,1,-150,1,-16,1,260,1,328,1,269,1,184,1
1700,262,1,103,1,-159,1,-182,1,211,1,-28,1,-158,1,-56,1,235,1,307,1,260,1,184,1
1701,234,1,105,1,-129,1,-169,1,182,1,-12,1,-155,1,-88,1,205,1,277,1,242,1,176,1
1702,202,1,95,1,-107,1,-148,1,155,1,-6,1,-144,1,-101,1,176,1,235,1,206,1,153,1
1703,169,1,71,1,-98,1,-120,1,134,1,-13,1,-129,1,-103,1,142,1,181,1,155,1,119,1
1704,135,1,50,1,-85,1,-92,1,110,1,-17,1,-121,1,-113,1,98,1,124,1,105,1,85,1
1705,107,1,32,1,-75,1,-69,1,91,1,-21,1,-120,1,-137,1,36,1,64,1,62,1,56,1
1706,78,1,14,1,-64,1,-46,1,71,1,-25,1,-113,1,-159,1,-28,1,7,1,23,1,31,1
1707,46,1,-1,1,-47,1,-22,1,46,1,-24,1,-103,1,-179,1,-92,1,-47,1,-11,1,9,1
1708,18,1,-9,1,-27,1,-4,1,22,1,-18,1,-95,1,-186,1,-129,1,-79,1,-34,1,-7,1
1709,3,1,-21,1,-24,1,9,1,13,1,-22,1,-84,1,-172,1,-128,1,-83,1,-42,1,-18,1
1710,-6,1,-26,1,-20,1,16,1,7,1,-23,1,-74,1,-160,1,-123,1,-83,1,-44,1,-23,1
1711,-11,1,-28,1,-17,1,19,1,3,1,-23,1,-68,1,-152,1,-118,1,-81,1,-45,1,-26,1
1712,-17,1,-30,1,-13,1,23,1,-2,1,-22,1,-65,1,-144,1,-112,1,-77,1,-45,1,-28,1
1713,-21,1,-31,1,-10,1,26,1,-6,1,-21,1,-61,1,-132,1,-104,1,-73,1,-44,1,-29,1
1714,-22,1,-31,1,-9,1,26,1,-7,1,-20,1,-54,1,-120,1,-97,1,-71,1,-43,1,-28,1
1715,-20,1,-27,1,-7,1,23,1,-7,1,-17,1,-48,1,-106,1,-87,1,-64,1,-38,1,-24,1
1716,-18,1,-22,1,-4,1,20,1,-7,1,-13,1,-44,1,-93,1,-75,1,-55,1,-32,1,-21,1
1717,-16,1,-17,1,-1,1,16,1,-8,1,-9,1,-35,1,-76,1,-62,1,-45,1,-25,1,-17,1
1718,-14,1,-14,1,0,1,14,1,-7,1,-7,1,-26,1,-59,1,-48,1,-36,1,-19,1,-14,1
1719,-11,1,-11,1,0,1,11,1,-6,1,-6,1,-17,1,-44,1,-38,1,-28,1,-15,1,-10,1
1720,-10,1,-8,1,2,1,9,1,-6,1,-3,1,-12,1,-34,1,-30,1,-23,1,-12,1,-9,1
1721,-11,1,-6,1,5,1,8,1,-8,1,-1,1,-7,1,-28,1,-26,1,-21,1,-11,1,-8,1
1722,-11,1,-4,1,7,1,7,1,-9,1,1,1,-4,1,-24,1,-24,1,-21,1,-10,1,-8,1
1723,-12,1,-4,1,8,1,8,1,-10,1,2,1,-4,1,-23,1,-24,1,-21,1,-10,1,-8,1
1724,-14,1,-4,1,10,1,9,1,-12,1,3,1,-3,1,-23,1,-24,1,-21,1,-10,1,-8,1
1725,-13,1,-3,1,10,1,8,1,-12,1,3,1,-1,1,-21,1,-23,1,-20,1,-10,1,-8,1
1726,-13,1,-2,1,11,1,7,1,-12,1,4,1,0,1,-20,1,-23,1,-19,1,-10,1,-8,1
1727,-14,1,-2,1,12,1,8,1,-13,1,5,1,0,1,-19,1,-23,1,-19,1,-10,1,-8,1
1728,-15,1,-3,1,12,1,9,1,-14,1,4,1,0,1,-19,1,-24,1,-20,1,-10,1,-8,1
1729,-15,1,-2,1,13,1,8,1,-14,1,5,1,0,1,-19,1,-24,1,-20,1,-10,1,-9,1
1730,-17,1,-3,1,14,1,10,1,-16,1,5,1,1,1,-17,1,-22,1,-20,1,-9,1,-8,1
1731,-17,1,-3,1,14,1,10,1,-16,1,5,1,2,1,-15,1,-21,1,-20,1,-9,1,-8,1
1732,-17,1,-3,1,14,1,10,1,-16,1,5,1,1,1,-15,1,-21,1,-20,1,-10,1,-9,1
1733,-16,1,-3,1,13,1,9,1,-15,1,5,1,2,1,-13,1,-20,1,-19,1,-10,1,-8,1
1734,-16,1,-2,1,14,1,9,1,-15,1,6,1,3,1,-13,1,-20,1,-19,1,-9,1,-8,1
1735,-16,1,-2,1,14,1,9,1,-15,1,6,1,3,1,-13,1,-20,1,-19,1,-9,1,-8,1
1736,-17,1,-2,1,15,1,9,1,-16,1,6,1,3,1,-13,1,-20,1,-19,1,-9,1,-8,1
1737,-16,1,-1,1,15,1,8,1,-16,1,7,1,3,1,-12,1,-20,1,-19,1,-10,1,-9,1
1738,-16,1,-1,1,15,1,8,1,-16,1,7,1,2,1,-12,1,-19,1,-18,1,-9,1,-9,1
1739,-16,1,-1,1,15,1,8,1,-16,1,7,1,2,1,-12,1,-18,1,-18,1,-9,1,-8,1
1740,-16,1,-1,1,15,1,8,1,-16,1,7,1,2,1,-11,1,-18,1,-17,1,-9,1,-8,1
1741,-15,1,0,1,15,1,7,1,-15,1,7,1,2,1,-11,1,-17,1,-16,1,-8,1,-8,1
1742,-15,1,0,1,15,1,7,1,-15,1,7,1,2,1,-10,1,-17,1,-16,1,-9,1,-8,1
1743,-15,1,0,1,15,1,7,1,-15,1,7,1,2,1,-10,1,-17,1,-16,1,-7,1,-6,1
1744,-16,1,0,1,16,1,8,1,-16,1,8,1,1,1,-10,1,-17,1,-16,1,-8,1,-7,1
1745,-15,1,1,1,16,1,7,1,-15,1,8,1,2,1,-9,1,-17,1,-16,1,-8,1,-6,1
1746,-14,1,1,1,15,1,6,1,-14,1,8,1,2,1,-9,1,-15,1,-15,1,-7,1,-6,1
1747,-16,1,0,1,16,1,8,1,-16,1,8,1,4,1,-7,1,-15,1,-14,1,-7,1,-5,1
1748,-16,1,-1,1,15,1,8,1,-16,1,7,1,4,1,-8,1,-15,1,-15,1,-7,1,-6,1
1749,-14,1,0,1,14,1,7,1,-14,1,7,1,3,1,-7,1,-14,1,-14,1,-6,1,-6,1
1750,-14,1,0,1,14,1,7,1,-14,1,7,1,3,1,-6,1,-13,1,-14,1,-6,1,-6,1
1751,-13,1,0,1,13,1,6,1,-13,1,6,1,4,1,-5,1,-13,1,-13,1,-6,1,-5,1
1752,-13,1,0,1,13,1,6,1,-13,1,6,1,4,1,-5,1,-12,1,-12,1,-6,1,-5,1
1753,-13,1,0,1,13,1,6,1,-13,1,6,1,4,1,-4,1,-13,1,-12,1,-6,1,-6,1
1754,-13,1,0,1,13,1,6,1,-13,1,6,1,2,1,-4,1,-13,1,-11,1,-6,1,-6,1
1755,-13,1,0,1,13,1,6,1,-13,1,6,1,4,1,-3,1,-13,1,-11,1,-5,1,-5,1
1756,-13,1,0,1,13,1,6,1,-13,1,6,1,4,1,-2,1,-12,1,-10,1,-5,1,-4,1
1757,-10,1,2,1,12,1,4,1,-11,1,7,1,4,1,-2,1,-12,1,-10,1,-4,1,-4,1
1758,-11,1,1,1,12,1,5,1,-11,1,6,1,4,1,-2,1,-12,1,-10,1,-4,1,-4,1
1759,-12,1,1,1,13,1,5,1,-12,1,7,1,3,1,-2,1,-12,1,-10,1,-5,1,-4,1
1760,-13,1,0,1,13,1,6,1,-13,1,6,1,2,1,-2,1,-12,1,-10,1,-5,1,-5,1
1761,-12,1,0,1,12,1,6,1,-12,1,6,1,3,1,-1,1,-11,1,-11,1,-4,1,-4,1
1762,-10,1,2,1,12,1,4,1,-11,1,7,1,3,1,-1,1,-11,1,-10,1,-4,1,-3,1
1763,-11,1,2,1,13,1,4,1,-12,1,7,1,2,1,-1,1,-11,1,-10,1,-3,1,-3,1
1764,-11,1,2,1,13,1,4,1,-12,1,7,1,2,1,-1,1,-10,1,-10,1,-2,1,-3,1
1765,-8,1,3,1,11,1,2,1,-9,1,7,1,3,1,0,1,-8,1,-8,1,-2,1,-2,1
1766,-10,1,3,1,13,1,3,1,-11,1,8,1,2,1,1,1,-7,1,-7,1,-2,1,-2,1
1767,-8,1,3,1,11,1,2,1,-9,1,7,1,1,1,1,1,-7,1,-7,1,-2,1,-2,1
1768,-8,1,3,1,11,1,2,1,-9,1,7,1,1,1,2,1,-6,1,-7,1,0,1,-1,1
1769,-8,1,3,1,11,1,2,1,-9,1,7,1,2,1,3,1,-5,1,-7,1,0,1,-1,1
1770,-7,1,3,1,10,1,2,1,-8,1,6,1,2,1,3,1,-5,1,-5,1,-1,1,-1,1
1771,-6,1,3,1,9,1,1,1,-7,1,6,1,2,1,4,1,-4,1,-5,1,-1,1,-1,1
1772,-4,1,4,1,8,1,0,1,-6,1,6,1,2,1,6,1,-3,1,-5,1,-1,1,-1,1
1773,-6,1,2,1,8,1,2,1,-7,1,5,1,3,1,7,1,-2,1,-4,1,-1,1,-1,1
1774,-6,1,2,1,8,1,2,1,-7,1,5,1,3,1,8,1,-1,1,-4,1,-1,1,-1,1
1775,-5,1,2,1,7,1,1,1,-6,1,4,1,3,1,8,1,-1,1,-4,1,-1,1,-1,1
1776,-5,1,1,1,6,1,2,1,-5,1,3,1,3,1,9,1,0,1,-4,1,0,1,-1,1
1777,-4,1,2,1,6,1,1,1,-5,1,4,1,3,1,10,1,0,1,-4,1,1,1,0,1
1778,-4,1,2,1,6,1,1,1,-5,1,4,1,3,1,10,1,1,1,-3,1,1,1,0,1
1779,-2,1,2,1,4,1,0,1,-3,1,3,1,2,1,11,1,1,1,-3,1,1,1,0,1
1780,-2,1,2,1,4,1,0,1,-3,1,3,1,4,1,12,1,3,1,-2,1,2,1,0,1
1781,-1,1,3,1,4,1,-1,1,-2,1,3,1,3,1,13,1,4,1,-1,1,2,1,0,1
1782,-2,1,2,1,4,1,0,1,-3,1,3,1,0,1,14,1,4,1,-1,1,2,1,-2,1
1783,-2,1,2,1,4,1,0,1,-3,1,3,1,0,1,14,1,5,1,-1,1,2,1,-2,1
