TS,I,If,II,IIf,III,IIIf,aVR,aVRf,aVL,aVLf,aVF,aVFf,V1,V1f,V2,V2f,V3,V3f,V4,V4f,V5,V5f,V6,V6f
1,-4,1,-21,1,-17,1,12,1,6,1,-19,1,-11,1,-44,1,-43,1,-29,1,-14,1,-21,1
2,-5,1,-21,1,-16,1,13,1,5,1,-19,1,-11,1,-44,1,-43,1,-30,1,-14,1,-21,1
3,-5,1,-20,1,-15,1,12,1,5,1,-18,1,-11,1,-43,1,-42,1,-29,1,-14,1,-21,1
4,-5,1,-20,1,-15,1,12,1,5,1,-18,1,-10,1,-43,1,-41,1,-30,1,-14,1,-22,1
5,-5,1,-21,1,-16,1,13,1,5,1,-19,1,-9,1,-42,1,-41,1,-30,1,-14,1,-22,1
6,-6,1,-22,1,-16,1,14,1,5,1,-19,1,-9,1,-43,1,-41,1,-29,1,-15,1,-21,1
7,-4,1,-21,1,-17,1,12,1,6,1,-19,1,-10,1,-45,1,-42,1,-29,1,-14,1,-21,1
8,-3,1,-21,1,-18,1,12,1,7,1,-20,1,-11,1,-45,1,-40,1,-27,1,-13,1,-20,1
9,-3,1,-21,1,-18,1,12,1,7,1,-20,1,-11,1,-44,1,-40,1,-26,1,-12,1,-20,1
10,-3,1,-21,1,-18,1,12,1,7,1,-20,1,-11,1,-44,1,-40,1,-26,1,-13,1,-20,1
11,-3,1,-21,1,-18,1,12,1,7,1,-20,1,-11,1,-45,1,-41,1,-27,1,-13,1,-20,1
12,-2,1,-21,1,-19,1,11,1,8,1,-20,1,-10,1,-45,1,-41,1,-28,1,-12,1,-20,1
13,-2,1,-20,1,-18,1,11,1,8,1,-19,1,-10,1,-46,1,-41,1,-29,1,-12,1,-21,1
14,-2,1,-20,1,-18,1,11,1,8,1,-19,1,-10,1,-46,1,-41,1,-28,1,-12,1,-20,1
15,-2,1,-20,1,-18,1,11,1,8,1,-19,1,-10,1,-46,1,-41,1,-28,1,-12,1,-20,1
16,-1,1,-20,1,-19,1,10,1,9,1,-20,1,-10,1,-46,1,-41,1,-28,1,-12,1,-20,1
17,-2,1,-19,1,-17,1,10,1,7,1,-18,1,-10,1,-45,1,-42,1,-27,1,-13,1,-20,1
18,-3,1,-19,1,-16,1,11,1,6,1,-18,1,-11,1,-45,1,-43,1,-27,1,-14,1,-21,1
19,-4,1,-19,1,-15,1,11,1,5,1,-17,1,-12,1,-45,1,-44,1,-26,1,-14,1,-23,1
20,-4,1,-18,1,-14,1,11,1,5,1,-16,1,-11,1,-44,1,-44,1,-26,1,-15,1,-22,1
21,-5,1,-18,1,-13,1,11,1,4,1,-16,1,-11,1,-43,1,-44,1,-25,1,-14,1,-23,1
22,-5,1,-19,1,-14,1,12,1,4,1,-17,1,-12,1,-43,1,-44,1,-25,1,-14,1,-23,1
23,-5,1,-19,1,-14,1,12,1,4,1,-17,1,-11,1,-44,1,-45,1,-26,1,-14,1,-22,1
24,-5,1,-21,1,-16,1,13,1,5,1,-19,1,-12,1,-44,1,-46,1,-26,1,-14,1,-23,1
25,-5,1,-22,1,-17,1,13,1,6,1,-20,1,-12,1,-44,1,-46,1,-24,1,-14,1,-23,1
26,-4,1,-21,1,-17,1,12,1,6,1,-19,1,-13,1,-44,1,-47,1,-24,1,-14,1,-22,1
27,-3,1,-21,1,-18,1,12,1,7,1,-20,1,-14,1,-45,1,-48,1,-24,1,-14,1,-23,1
28,-3,1,-21,1,-18,1,12,1,7,1,-20,1,-14,1,-45,1,-48,1,-23,1,-14,1,-23,1
29,-3,1,-21,1,-18,1,12,1,7,1,-20,1,-15,1,-45,1,-48,1,-22,1,-14,1,-22,1
30,-4,1,-21,1,-17,1,12,1,6,1,-19,1,-15,1,-46,1,-48,1,-22,1,-14,1,-23,1
31,-4,1,-20,1,-16,1,12,1,6,1,-18,1,-14,1,-46,1,-47,1,-22,1,-13,1,-22,1
32,-4,1,-19,1,-15,1,11,1,5,1,-17,1,-14,1,-46,1,-47,1,-22,1,-14,1,-23,1
33,-3,1,-18,1,-15,1,10,1,6,1,-17,1,-14,1,-45,1,-47,1,-22,1,-14,1,-23,1
34,-2,1,-17,1,-15,1,9,1,6,1,-16,1,-14,1,-44,1,-46,1,-21,1,-13,1,-22,1
35,-3,1,-16,1,-13,1,9,1,5,1,-15,1,-13,1,-43,1,-45,1,-22,1,-13,1,-22,1
36,-2,1,-16,1,-14,1,9,1,6,1,-15,1,-13,1,-42,1,-44,1,-21,1,-12,1,-23,1
37,-2,1,-16,1,-14,1,9,1,6,1,-15,1,-12,1,-42,1,-44,1,-21,1,-12,1,-23,1
38,-2,1,-15,1,-13,1,8,1,5,1,-14,1,-11,1,-42,1,-45,1,-22,1,-13,1,-24,1
39,-2,1,-15,1,-13,1,8,1,5,1,-14,1,-10,1,-42,1,-45,1,-21,1,-13,1,-23,1
40,-1,1,-14,1,-13,1,7,1,6,1,-14,1,-11,1,-41,1,-44,1,-20,1,-13,1,-22,1
41,-1,1,-14,1,-13,1,7,1,6,1,-14,1,-11,1,-40,1,-44,1,-20,1,-13,1,-22,1
42,-2,1,-15,1,-13,1,8,1,5,1,-14,1,-10,1,-39,1,-43,1,-20,1,-13,1,-22,1
43,-1,1,-16,1,-15,1,8,1,7,1,-16,1,-9,1,-39,1,-42,1,-20,1,-13,1,-21,1
44,-1,1,-16,1,-15,1,8,1,7,1,-16,1,-8,1,-38,1,-41,1,-20,1,-13,1,-21,1
45,-1,1,-16,1,-15,1,8,1,7,1,-16,1,-8,1,-38,1,-41,1,-19,1,-13,1,-21,1
46,0,1,-17,1,-17,1,8,1,8,1,-17,1,-8,1,-37,1,-40,1,-19,1,-12,1,-20,1
47,0,1,-16,1,-16,1,8,1,8,1,-16,1,-8,1,-36,1,-39,1,-18,1,-12,1,-20,1
48,1,1,-16,1,-17,1,7,1,9,1,-16,1,-8,1,-35,1,-39,1,-17,1,-11,1,-20,1
49,2,1,-15,1,-17,1,6,1,9,1,-16,1,-9,1,-35,1,-39,1,-17,1,-11,1,-20,1
50,3,1,-14,1,-17,1,5,1,10,1,-15,1,-10,1,-35,1,-40,1,-17,1,-12,1,-21,1
51,3,1,-14,1,-17,1,5,1,10,1,-15,1,-10,1,-36,1,-41,1,-19,1,-13,1,-22,1
52,4,1,-14,1,-18,1,5,1,11,1,-16,1,-10,1,-35,1,-41,1,-18,1,-12,1,-22,1
53,5,1,-15,1,-20,1,5,1,12,1,-17,1,-10,1,-35,1,-40,1,-17,1,-12,1,-21,1
54,6,1,-13,1,-19,1,3,1,12,1,-16,1,-10,1,-34,1,-40,1,-16,1,-11,1,-20,1
55,7,1,-13,1,-20,1,3,1,13,1,-16,1,-10,1,-34,1,-40,1,-15,1,-10,1,-19,1
56,6,1,-13,1,-19,1,3,1,12,1,-16,1,-12,1,-34,1,-40,1,-15,1,-10,1,-19,1
57,6,1,-14,1,-20,1,4,1,13,1,-17,1,-14,1,-34,1,-40,1,-15,1,-10,1,-18,1
58,6,1,-15,1,-21,1,4,1,13,1,-18,1,-14,1,-35,1,-41,1,-15,1,-11,1,-19,1
59,5,1,-16,1,-21,1,5,1,13,1,-18,1,-15,1,-36,1,-42,1,-16,1,-11,1,-19,1
60,4,1,-16,1,-20,1,6,1,12,1,-18,1,-16,1,-36,1,-43,1,-16,1,-12,1,-19,1
61,4,1,-16,1,-20,1,6,1,12,1,-18,1,-17,1,-37,1,-44,1,-17,1,-12,1,-20,1
62,3,1,-17,1,-20,1,7,1,11,1,-18,1,-18,1,-39,1,-45,1,-18,1,-13,1,-21,1
63,3,1,-17,1,-20,1,7,1,11,1,-18,1,-18,1,-40,1,-46,1,-19,1,-15,1,-21,1
64,3,1,-17,1,-20,1,7,1,11,1,-18,1,-16,1,-41,1,-47,1,-20,1,-16,1,-23,1
65,2,1,-19,1,-21,1,8,1,11,1,-20,1,-15,1,-42,1,-48,1,-21,1,-17,1,-24,1
66,1,1,-20,1,-21,1,9,1,11,1,-20,1,-15,1,-42,1,-49,1,-21,1,-18,1,-23,1
67,1,1,-20,1,-21,1,9,1,11,1,-20,1,-15,1,-41,1,-48,1,-21,1,-18,1,-24,1
68,1,1,-21,1,-22,1,10,1,11,1,-21,1,-15,1,-41,1,-48,1,-20,1,-18,1,-25,1
69,1,1,-22,1,-23,1,10,1,12,1,-22,1,-15,1,-40,1,-48,1,-19,1,-18,1,-24,1
70,1,1,-22,1,-23,1,10,1,12,1,-22,1,-16,1,-39,1,-48,1,-19,1,-18,1,-24,1
71,1,1,-22,1,-23,1,10,1,12,1,-22,1,-16,1,-39,1,-48,1,-19,1,-18,1,-24,1
72,1,1,-20,1,-21,1,9,1,11,1,-20,1,-17,1,-39,1,-48,1,-20,1,-19,1,-25,1
73,2,1,-20,1,-22,1,9,1,12,1,-21,1,-18,1,-40,1,-49,1,-22,1,-20,1,-25,1
74,2,1,-20,1,-22,1,9,1,12,1,-21,1,-19,1,-41,1,-51,1,-23,1,-21,1,-25,1
75,2,1,-21,1,-23,1,9,1,12,1,-22,1,-19,1,-42,1,-52,1,-24,1,-21,1,-25,1
76,1,1,-20,1,-21,1,9,1,11,1,-20,1,-20,1,-42,1,-53,1,-23,1,-21,1,-26,1
77,1,1,-20,1,-21,1,9,1,11,1,-20,1,-20,1,-42,1,-53,1,-23,1,-20,1,-25,1
78,0,1,-20,1,-20,1,10,1,10,1,-20,1,-20,1,-43,1,-53,1,-23,1,-20,1,-26,1
79,-1,1,-21,1,-20,1,11,1,9,1,-21,1,-20,1,-43,1,-54,1,-24,1,-21,1,-26,1
80,-1,1,-22,1,-21,1,11,1,10,1,-22,1,-20,1,-44,1,-55,1,-24,1,-22,1,-26,1
81,-2,1,-21,1,-19,1,11,1,8,1,-20,1,-21,1,-45,1,-56,1,-25,1,-23,1,-26,1
82,-2,1,-21,1,-19,1,11,1,8,1,-20,1,-20,1,-45,1,-57,1,-25,1,-22,1,-27,1
83,-2,1,-20,1,-18,1,11,1,8,1,-19,1,-20,1,-44,1,-56,1,-23,1,-21,1,-26,1
84,-3,1,-20,1,-17,1,11,1,7,1,-19,1,-20,1,-44,1,-56,1,-24,1,-21,1,-26,1
85,-4,1,-21,1,-17,1,12,1,6,1,-19,1,-20,1,-46,1,-58,1,-25,1,-21,1,-26,1
86,-5,1,-23,1,-18,1,14,1,6,1,-21,1,-20,1,-46,1,-58,1,-26,1,-21,1,-27,1
87,-6,1,-24,1,-18,1,15,1,6,1,-21,1,-20,1,-46,1,-57,1,-26,1,-21,1,-27,1
88,-6,1,-24,1,-18,1,15,1,6,1,-21,1,-20,1,-47,1,-57,1,-27,1,-21,1,-26,1
89,-5,1,-24,1,-19,1,14,1,7,1,-22,1,-20,1,-46,1,-57,1,-27,1,-22,1,-26,1
90,-5,1,-23,1,-18,1,14,1,6,1,-21,1,-20,1,-46,1,-57,1,-27,1,-22,1,-26,1
91,-5,1,-23,1,-18,1,14,1,6,1,-21,1,-21,1,-46,1,-58,1,-27,1,-23,1,-26,1
92,-5,1,-23,1,-18,1,14,1,6,1,-21,1,-20,1,-45,1,-58,1,-27,1,-23,1,-26,1
93,-5,1,-23,1,-18,1,14,1,6,1,-21,1,-20,1,-45,1,-58,1,-27,1,-23,1,-27,1
94,-5,1,-23,1,-18,1,14,1,6,1,-21,1,-19,1,-45,1,-59,1,-26,1,-24,1,-26,1
95,-6,1,-24,1,-18,1,15,1,6,1,-21,1,-18,1,-46,1,-59,1,-26,1,-23,1,-27,1
96,-6,1,-25,1,-19,1,15,1,6,1,-22,1,-17,1,-47,1,-60,1,-26,1,-24,1,-28,1
97,-6,1,-24,1,-18,1,15,1,6,1,-21,1,-17,1,-48,1,-59,1,-27,1,-24,1,-27,1
98,-6,1,-24,1,-18,1,15,1,6,1,-21,1,-17,1,-48,1,-59,1,-27,1,-24,1,-28,1
99,-7,1,-25,1,-18,1,16,1,5,1,-22,1,-17,1,-48,1,-58,1,-27,1,-25,1,-28,1
100,-7,1,-25,1,-18,1,16,1,5,1,-22,1,-18,1,-48,1,-59,1,-28,1,-25,1,-29,1
101,-7,1,-25,1,-18,1,16,1,5,1,-22,1,-18,1,-48,1,-60,1,-28,1,-25,1,-29,1
102,-7,1,-26,1,-19,1,16,1,6,1,-23,1,-18,1,-48,1,-61,1,-28,1,-25,1,-28,1
103,-7,1,-25,1,-18,1,16,1,5,1,-22,1,-18,1,-48,1,-62,1,-28,1,-25,1,-28,1
104,-7,1,-25,1,-18,1,16,1,5,1,-22,1,-18,1,-48,1,-63,1,-27,1,-25,1,-28,1
105,-6,1,-24,1,-18,1,15,1,6,1,-21,1,-18,1,-47,1,-62,1,-27,1,-25,1,-27,1
106,-6,1,-23,1,-17,1,14,1,5,1,-20,1,-17,1,-47,1,-60,1,-27,1,-25,1,-28,1
107,-5,1,-22,1,-17,1,13,1,6,1,-20,1,-17,1,-47,1,-59,1,-27,1,-24,1,-28,1
108,-5,1,-22,1,-17,1,13,1,6,1,-20,1,-16,1,-47,1,-58,1,-27,1,-24,1,-27,1
109,-5,1,-23,1,-18,1,14,1,6,1,-21,1,-16,1,-47,1,-57,1,-28,1,-25,1,-27,1
110,-5,1,-23,1,-18,1,14,1,6,1,-21,1,-15,1,-46,1,-57,1,-28,1,-25,1,-27,1
111,-6,1,-24,1,-18,1,15,1,6,1,-21,1,-16,1,-46,1,-56,1,-28,1,-25,1,-27,1
112,-6,1,-24,1,-18,1,15,1,6,1,-21,1,-16,1,-46,1,-56,1,-27,1,-25,1,-27,1
113,-7,1,-24,1,-17,1,15,1,5,1,-21,1,-17,1,-46,1,-55,1,-27,1,-25,1,-26,1
114,-7,1,-25,1,-18,1,16,1,5,1,-22,1,-18,1,-45,1,-55,1,-26,1,-25,1,-27,1
115,-6,1,-24,1,-18,1,15,1,6,1,-21,1,-18,1,-45,1,-54,1,-26,1,-25,1,-27,1
116,-6,1,-24,1,-18,1,15,1,6,1,-21,1,-18,1,-46,1,-54,1,-26,1,-25,1,-27,1
117,-6,1,-23,1,-17,1,14,1,5,1,-20,1,-18,1,-46,1,-54,1,-25,1,-25,1,-27,1
118,-5,1,-23,1,-18,1,14,1,6,1,-21,1,-19,1,-45,1,-54,1,-26,1,-25,1,-27,1
119,-5,1,-22,1,-17,1,13,1,6,1,-20,1,-19,1,-46,1,-55,1,-26,1,-26,1,-27,1
120,-5,1,-22,1,-17,1,13,1,6,1,-20,1,-19,1,-46,1,-55,1,-26,1,-26,1,-27,1
121,-4,1,-22,1,-18,1,13,1,7,1,-20,1,-19,1,-46,1,-55,1,-26,1,-26,1,-27,1
122,-4,1,-22,1,-18,1,13,1,7,1,-20,1,-19,1,-46,1,-55,1,-26,1,-26,1,-27,1
123,-5,1,-23,1,-18,1,14,1,6,1,-21,1,-18,1,-46,1,-54,1,-26,1,-26,1,-27,1
124,-6,1,-23,1,-17,1,14,1,5,1,-20,1,-17,1,-46,1,-53,1,-26,1,-26,1,-27,1
125,-6,1,-22,1,-16,1,14,1,5,1,-19,1,-16,1,-45,1,-53,1,-26,1,-27,1,-27,1
126,-6,1,-23,1,-17,1,14,1,5,1,-20,1,-15,1,-46,1,-53,1,-27,1,-28,1,-29,1
127,-7,1,-25,1,-18,1,16,1,5,1,-22,1,-15,1,-46,1,-54,1,-28,1,-30,1,-31,1
128,-7,1,-27,1,-20,1,17,1,6,1,-24,1,-15,1,-46,1,-56,1,-30,1,-32,1,-32,1
129,-7,1,-28,1,-21,1,17,1,7,1,-25,1,-15,1,-46,1,-56,1,-31,1,-34,1,-33,1
130,-7,1,-30,1,-23,1,18,1,8,1,-27,1,-15,1,-46,1,-56,1,-33,1,-35,1,-33,1
131,-6,1,-31,1,-25,1,18,1,9,1,-28,1,-14,1,-44,1,-54,1,-32,1,-36,1,-33,1
132,-4,1,-31,1,-27,1,17,1,11,1,-29,1,-13,1,-41,1,-52,1,-31,1,-34,1,-33,1
133,-3,1,-30,1,-27,1,16,1,12,1,-29,1,-12,1,-37,1,-48,1,-29,1,-31,1,-30,1
134,0,1,-27,1,-27,1,13,1,13,1,-27,1,-12,1,-31,1,-42,1,-25,1,-27,1,-28,1
135,7,1,-25,1,-32,1,9,1,19,1,-28,1,-12,1,-20,1,-32,1,-17,1,-20,1,-25,1
136,15,1,-22,1,-37,1,3,1,26,1,-29,1,-11,1,-4,1,-17,1,-5,1,-11,1,-18,1
137,26,1,-17,1,-43,1,-4,1,34,1,-30,1,-9,1,14,1,0,1,9,1,-1,1,-11,1
138,37,1,-12,1,-49,1,-12,1,43,1,-30,1,-4,1,36,1,20,1,25,1,11,1,0,1
139,49,1,-4,1,-53,1,-22,1,51,1,-28,1,0,1,59,1,42,1,44,1,27,1,12,1
140,63,1,7,1,-56,1,-35,1,60,1,-24,1,2,1,81,1,66,1,64,1,45,1,27,1
141,78,1,19,1,-59,1,-48,1,69,1,-20,1,3,1,103,1,90,1,86,1,66,1,45,1
142,92,1,33,1,-59,1,-62,1,76,1,-13,1,1,1,125,1,116,1,111,1,89,1,63,1
143,107,1,48,1,-59,1,-77,1,83,1,-5,1,-2,1,146,1,143,1,135,1,113,1,81,1
144,119,1,66,1,-53,1,-92,1,86,1,7,1,-6,1,169,1,171,1,162,1,138,1,102,1
145,126,1,87,1,-39,1,-106,1,83,1,24,1,-8,1,193,1,203,1,192,1,165,1,125,1
146,126,1,112,1,-14,1,-119,1,70,1,49,1,-8,1,217,1,235,1,222,1,191,1,148,1
147,121,1,135,1,14,1,-128,1,54,1,75,1,-11,1,239,1,265,1,252,1,217,1,171,1
148,114,1,154,1,40,1,-134,1,37,1,97,1,-14,1,260,1,293,1,278,1,239,1,191,1
149,107,1,163,1,56,1,-135,1,26,1,110,1,-18,1,274,1,310,1,296,1,253,1,203,1
150,99,1,161,1,62,1,-130,1,19,1,112,1,-26,1,274,1,314,1,300,1,256,1,206,1
151,89,1,153,1,64,1,-121,1,13,1,109,1,-33,1,261,1,304,1,292,1,250,1,201,1
152,76,1,142,1,66,1,-109,1,5,1,104,1,-39,1,234,1,279,1,271,1,234,1,188,1
153,59,1,126,1,67,1,-92,1,-4,1,97,1,-43,1,186,1,234,1,233,1,203,1,165,1
154,37,1,107,1,70,1,-72,1,-16,1,89,1,-48,1,117,1,170,1,179,1,159,1,132,1
155,18,1,86,1,68,1,-52,1,-25,1,77,1,-55,1,50,1,103,1,122,1,111,1,95,1
156,2,1,66,1,64,1,-34,1,-31,1,65,1,-60,1,-2,1,49,1,74,1,68,1,62,1
157,-11,1,47,1,58,1,-18,1,-34,1,52,1,-63,1,-38,1,7,1,38,1,34,1,34,1
158,-20,1,31,1,51,1,-5,1,-35,1,41,1,-65,1,-62,1,-19,1,12,1,10,1,14,1
159,-25,1,17,1,42,1,4,1,-33,1,29,1,-66,1,-77,1,-37,1,-4,1,-6,1,0,1
160,-27,1,5,1,32,1,11,1,-29,1,18,1,-67,1,-85,1,-48,1,-15,1,-16,1,-9,1
161,-27,1,-4,1,23,1,15,1,-25,1,9,1,-67,1,-89,1,-55,1,-22,1,-22,1,-14,1
162,-27,1,-9,1,18,1,18,1,-23,1,4,1,-65,1,-91,1,-59,1,-28,1,-26,1,-18,1
163,-27,1,-12,1,15,1,19,1,-21,1,1,1,-63,1,-90,1,-61,1,-31,1,-28,1,-21,1
164,-26,1,-14,1,12,1,20,1,-19,1,-1,1,-59,1,-88,1,-61,1,-33,1,-31,1,-22,1
165,-23,1,-14,1,9,1,18,1,-16,1,-3,1,-56,1,-83,1,-59,1,-33,1,-32,1,-24,1
166,-20,1,-14,1,6,1,17,1,-13,1,-4,1,-52,1,-77,1,-56,1,-32,1,-32,1,-24,1
167,-16,1,-14,1,2,1,15,1,-9,1,-6,1,-48,1,-70,1,-52,1,-30,1,-31,1,-24,1
168,-13,1,-13,1,0,1,13,1,-7,1,-7,1,-42,1,-62,1,-47,1,-27,1,-28,1,-23,1
169,-9,1,-13,1,-4,1,11,1,-3,1,-9,1,-37,1,-54,1,-43,1,-24,1,-26,1,-21,1
170,-6,1,-13,1,-7,1,9,1,0,1,-10,1,-33,1,-49,1,-39,1,-21,1,-24,1,-20,1
171,-5,1,-13,1,-8,1,9,1,1,1,-11,1,-28,1,-45,1,-36,1,-19,1,-22,1,-18,1
172,-4,1,-12,1,-8,1,8,1,2,1,-10,1,-23,1,-41,1,-33,1,-17,1,-21,1,-17,1
173,-3,1,-12,1,-9,1,7,1,3,1,-11,1,-20,1,-38,1,-31,1,-14,1,-19,1,-16,1
174,-3,1,-11,1,-8,1,7,1,2,1,-10,1,-16,1,-35,1,-28,1,-13,1,-18,1,-14,1
175,-2,1,-10,1,-8,1,6,1,3,1,-9,1,-12,1,-33,1,-25,1,-12,1,-17,1,-14,1
176,0,1,-9,1,-9,1,4,1,4,1,-9,1,-11,1,-31,1,-23,1,-10,1,-17,1,-14,1
177,0,1,-8,1,-8,1,4,1,4,1,-8,1,-10,1,-30,1,-22,1,-10,1,-17,1,-14,1
178,0,1,-9,1,-9,1,4,1,4,1,-9,1,-10,1,-29,1,-21,1,-10,1,-17,1,-15,1
179,1,1,-10,1,-11,1,4,1,6,1,-10,1,-9,1,-27,1,-21,1,-10,1,-17,1,-14,1
180,1,1,-10,1,-11,1,4,1,6,1,-10,1,-9,1,-27,1,-21,1,-10,1,-17,1,-14,1
181,2,1,-10,1,-12,1,4,1,7,1,-11,1,-9,1,-27,1,-20,1,-9,1,-17,1,-14,1
182,1,1,-11,1,-12,1,5,1,6,1,-11,1,-8,1,-26,1,-20,1,-9,1,-17,1,-13,1
183,2,1,-11,1,-13,1,4,1,7,1,-12,1,-7,1,-25,1,-20,1,-8,1,-18,1,-13,1
184,2,1,-11,1,-13,1,4,1,7,1,-12,1,-6,1,-25,1,-19,1,-8,1,-17,1,-13,1
185,3,1,-10,1,-13,1,3,1,8,1,-11,1,-5,1,-24,1,-19,1,-8,1,-17,1,-12,1
186,3,1,-10,1,-13,1,3,1,8,1,-11,1,-4,1,-23,1,-19,1,-8,1,-16,1,-13,1
187,3,1,-10,1,-13,1,3,1,8,1,-11,1,-4,1,-22,1,-19,1,-9,1,-15,1,-13,1
188,3,1,-11,1,-14,1,4,1,8,1,-12,1,-5,1,-22,1,-19,1,-9,1,-15,1,-12,1
189,4,1,-10,1,-14,1,3,1,9,1,-12,1,-5,1,-22,1,-19,1,-10,1,-15,1,-12,1
190,3,1,-10,1,-13,1,3,1,8,1,-11,1,-5,1,-22,1,-18,1,-9,1,-14,1,-12,1
191,3,1,-10,1,-13,1,3,1,8,1,-11,1,-5,1,-21,1,-18,1,-10,1,-14,1,-12,1
192,4,1,-8,1,-12,1,2,1,8,1,-10,1,-4,1,-19,1,-17,1,-10,1,-14,1,-12,1
193,5,1,-7,1,-12,1,1,1,8,1,-9,1,-4,1,-18,1,-17,1,-9,1,-14,1,-12,1
194,6,1,-7,1,-13,1,0,1,9,1,-10,1,-4,1,-17,1,-16,1,-9,1,-14,1,-12,1
195,7,1,-7,1,-14,1,0,1,10,1,-10,1,-3,1,-16,1,-16,1,-8,1,-13,1,-12,1
196,7,1,-7,1,-14,1,0,1,10,1,-10,1,-2,1,-15,1,-15,1,-8,1,-13,1,-12,1
197,6,1,-8,1,-14,1,1,1,10,1,-11,1,-2,1,-15,1,-15,1,-8,1,-13,1,-12,1
198,6,1,-9,1,-15,1,1,1,10,1,-12,1,-2,1,-15,1,-14,1,-8,1,-13,1,-12,1
199,6,1,-8,1,-14,1,1,1,10,1,-11,1,-2,1,-14,1,-13,1,-7,1,-13,1,-11,1
200,7,1,-8,1,-15,1,0,1,11,1,-11,1,-2,1,-14,1,-11,1,-6,1,-13,1,-10,1
201,7,1,-7,1,-14,1,0,1,10,1,-10,1,-1,1,-14,1,-11,1,-5,1,-13,1,-9,1
202,7,1,-6,1,-13,1,0,1,10,1,-9,1,-1,1,-14,1,-11,1,-5,1,-13,1,-9,1
203,6,1,-6,1,-12,1,0,1,9,1,-9,1,-1,1,-15,1,-11,1,-4,1,-12,1,-8,1
204,7,1,-6,1,-13,1,0,1,10,1,-9,1,-1,1,-14,1,-11,1,-3,1,-11,1,-8,1
205,7,1,-6,1,-13,1,0,1,10,1,-9,1,-1,1,-15,1,-12,1,-4,1,-11,1,-8,1
206,6,1,-7,1,-13,1,0,1,9,1,-10,1,-1,1,-14,1,-13,1,-3,1,-11,1,-9,1
207,7,1,-7,1,-14,1,0,1,10,1,-10,1,-1,1,-13,1,-12,1,-3,1,-10,1,-8,1
208,9,1,-6,1,-15,1,-1,1,12,1,-10,1,-1,1,-12,1,-13,1,-3,1,-11,1,-8,1
209,8,1,-7,1,-15,1,0,1,11,1,-11,1,-1,1,-12,1,-13,1,-3,1,-11,1,-8,1
210,8,1,-8,1,-16,1,0,1,12,1,-12,1,-1,1,-11,1,-13,1,-2,1,-11,1,-7,1
211,8,1,-7,1,-15,1,0,1,11,1,-11,1,-1,1,-10,1,-12,1,-2,1,-11,1,-7,1
212,9,1,-6,1,-15,1,-1,1,12,1,-10,1,0,1,-10,1,-10,1,-1,1,-11,1,-6,1
213,9,1,-4,1,-13,1,-2,1,11,1,-8,1,0,1,-9,1,-9,1,-1,1,-10,1,-6,1
214,10,1,-4,1,-14,1,-3,1,12,1,-9,1,0,1,-8,1,-8,1,0,1,-9,1,-6,1
215,10,1,-4,1,-14,1,-3,1,12,1,-9,1,1,1,-7,1,-7,1,0,1,-9,1,-7,1
216,11,1,-4,1,-15,1,-3,1,13,1,-9,1,1,1,-6,1,-6,1,1,1,-9,1,-7,1
217,12,1,-4,1,-16,1,-4,1,14,1,-10,1,1,1,-5,1,-4,1,1,1,-9,1,-7,1
218,12,1,-4,1,-16,1,-4,1,14,1,-10,1,1,1,-4,1,-3,1,2,1,-8,1,-6,1
219,12,1,-5,1,-17,1,-3,1,14,1,-11,1,2,1,-3,1,-2,1,3,1,-8,1,-6,1
220,13,1,-4,1,-17,1,-4,1,15,1,-10,1,3,1,-2,1,-1,1,3,1,-7,1,-5,1
221,14,1,-3,1,-17,1,-5,1,15,1,-10,1,3,1,-1,1,0,1,4,1,-7,1,-4,1
222,13,1,-4,1,-17,1,-4,1,15,1,-10,1,2,1,-1,1,0,1,5,1,-7,1,-4,1
223,13,1,-3,1,-16,1,-5,1,14,1,-9,1,2,1,0,1,0,1,5,1,-7,1,-3,1
224,13,1,-2,1,-15,1,-5,1,14,1,-8,1,2,1,0,1,1,1,6,1,-7,1,-2,1
225,14,1,-1,1,-15,1,-6,1,14,1,-8,1,1,1,0,1,2,1,7,1,-6,1,-1,1
226,15,1,0,1,-15,1,-7,1,15,1,-7,1,2,1,2,1,4,1,9,1,-6,1,0,1
227,15,1,0,1,-15,1,-7,1,15,1,-7,1,2,1,2,1,4,1,9,1,-5,1,0,1
228,15,1,0,1,-15,1,-7,1,15,1,-7,1,3,1,3,1,5,1,10,1,-4,1,-1,1
229,16,1,0,1,-16,1,-8,1,16,1,-8,1,3,1,4,1,6,1,11,1,-4,1,0,1
230,16,1,1,1,-15,1,-8,1,16,1,-7,1,4,1,5,1,8,1,12,1,-2,1,0,1
231,16,1,2,1,-14,1,-9,1,15,1,-6,1,4,1,5,1,9,1,14,1,-2,1,0,1
232,16,1,3,1,-13,1,-9,1,15,1,-5,1,4,1,5,1,10,1,14,1,-1,1,0,1
233,16,1,3,1,-13,1,-9,1,15,1,-5,1,4,1,6,1,11,1,15,1,-1,1,0,1
234,17,1,3,1,-14,1,-10,1,16,1,-5,1,5,1,8,1,13,1,15,1,-1,1,0,1
235,17,1,3,1,-14,1,-10,1,16,1,-5,1,5,1,9,1,14,1,16,1,0,1,2,1
236,17,1,4,1,-13,1,-10,1,15,1,-4,1,5,1,10,1,15,1,17,1,0,1,2,1
237,18,1,3,1,-15,1,-10,1,17,1,-6,1,6,1,11,1,15,1,17,1,0,1,3,1
238,19,1,4,1,-15,1,-11,1,17,1,-5,1,7,1,13,1,17,1,18,1,1,1,4,1
239,19,1,4,1,-15,1,-11,1,17,1,-5,1,7,1,14,1,17,1,19,1,1,1,5,1
240,19,1,5,1,-14,1,-12,1,17,1,-4,1,7,1,16,1,19,1,21,1,2,1,6,1
241,20,1,5,1,-15,1,-12,1,18,1,-5,1,7,1,18,1,21,1,23,1,4,1,7,1
242,22,1,7,1,-15,1,-14,1,19,1,-4,1,8,1,20,1,22,1,25,1,5,1,8,1
243,23,1,8,1,-15,1,-15,1,19,1,-3,1,8,1,21,1,24,1,26,1,6,1,10,1
244,24,1,8,1,-16,1,-16,1,20,1,-4,1,8,1,23,1,26,1,28,1,7,1,10,1
245,24,1,10,1,-14,1,-17,1,19,1,-2,1,8,1,25,1,29,1,29,1,8,1,11,1
246,25,1,11,1,-14,1,-18,1,20,1,-1,1,9,1,26,1,31,1,30,1,9,1,12,1
247,26,1,11,1,-15,1,-18,1,21,1,-2,1,9,1,27,1,33,1,31,1,10,1,12,1
248,27,1,13,1,-14,1,-20,1,21,1,0,1,10,1,29,1,34,1,31,1,11,1,14,1
249,28,1,14,1,-14,1,-21,1,21,1,0,1,10,1,31,1,37,1,33,1,12,1,15,1
250,28,1,14,1,-14,1,-21,1,21,1,0,1,10,1,32,1,39,1,35,1,14,1,17,1
251,30,1,15,1,-15,1,-22,1,23,1,0,1,10,1,34,1,41,1,37,1,16,1,19,1
252,31,1,16,1,-15,1,-23,1,23,1,1,1,11,1,37,1,44,1,39,1,17,1,20,1
253,32,1,17,1,-15,1,-24,1,24,1,1,1,11,1,40,1,46,1,41,1,19,1,21,1
254,33,1,18,1,-15,1,-25,1,24,1,2,1,12,1,42,1,49,1,43,1,21,1,24,1
255,34,1,19,1,-15,1,-26,1,25,1,2,1,13,1,45,1,52,1,45,1,23,1,25,1
256,35,1,20,1,-15,1,-27,1,25,1,3,1,13,1,49,1,54,1,48,1,25,1,28,1
257,36,1,21,1,-15,1,-28,1,26,1,3,1,13,1,51,1,57,1,50,1,28,1,29,1
258,38,1,22,1,-16,1,-30,1,27,1,3,1,13,1,54,1,60,1,53,1,30,1,30,1
259,41,1,24,1,-17,1,-32,1,29,1,4,1,14,1,57,1,64,1,56,1,32,1,33,1
260,42,1,25,1,-17,1,-33,1,30,1,4,1,13,1,60,1,67,1,58,1,34,1,34,1
261,43,1,26,1,-17,1,-34,1,30,1,5,1,12,1,63,1,70,1,61,1,36,1,36,1
262,45,1,27,1,-18,1,-36,1,32,1,5,1,12,1,66,1,73,1,64,1,38,1,38,1
263,47,1,30,1,-17,1,-38,1,32,1,7,1,12,1,69,1,77,1,67,1,40,1,39,1
264,48,1,32,1,-16,1,-40,1,32,1,8,1,12,1,72,1,80,1,70,1,43,1,41,1
265,49,1,33,1,-16,1,-41,1,33,1,9,1,13,1,75,1,82,1,72,1,46,1,43,1
266,51,1,35,1,-16,1,-43,1,34,1,10,1,14,1,79,1,86,1,74,1,48,1,44,1
267,53,1,37,1,-16,1,-45,1,35,1,11,1,14,1,82,1,89,1,77,1,50,1,47,1
268,54,1,39,1,-15,1,-46,1,35,1,12,1,15,1,85,1,92,1,80,1,52,1,49,1
269,55,1,40,1,-15,1,-47,1,35,1,13,1,15,1,87,1,95,1,82,1,54,1,51,1
270,57,1,42,1,-15,1,-49,1,36,1,14,1,16,1,89,1,98,1,85,1,56,1,52,1
271,59,1,43,1,-16,1,-51,1,38,1,14,1,16,1,92,1,102,1,88,1,59,1,54,1
272,61,1,43,1,-18,1,-52,1,40,1,13,1,16,1,94,1,104,1,91,1,62,1,55,1
273,62,1,44,1,-18,1,-53,1,40,1,13,1,17,1,97,1,107,1,93,1,65,1,57,1
274,63,1,45,1,-18,1,-54,1,41,1,14,1,17,1,100,1,110,1,96,1,67,1,59,1
275,66,1,47,1,-19,1,-56,1,43,1,14,1,17,1,103,1,112,1,98,1,70,1,61,1
276,67,1,49,1,-18,1,-58,1,43,1,16,1,16,1,105,1,114,1,99,1,72,1,63,1
277,68,1,51,1,-17,1,-59,1,43,1,17,1,16,1,108,1,116,1,102,1,74,1,65,1
278,69,1,51,1,-18,1,-60,1,44,1,17,1,15,1,111,1,119,1,104,1,75,1,66,1
279,71,1,53,1,-18,1,-62,1,45,1,18,1,14,1,113,1,121,1,106,1,77,1,68,1
280,72,1,54,1,-18,1,-63,1,45,1,18,1,14,1,114,1,123,1,109,1,78,1,69,1
281,73,1,55,1,-18,1,-64,1,46,1,19,1,14,1,116,1,125,1,111,1,79,1,70,1
282,74,1,56,1,-18,1,-65,1,46,1,19,1,14,1,117,1,125,1,111,1,80,1,72,1
283,73,1,56,1,-17,1,-64,1,45,1,20,1,13,1,118,1,126,1,112,1,81,1,72,1
284,73,1,57,1,-16,1,-65,1,45,1,21,1,13,1,119,1,127,1,113,1,82,1,73,1
285,73,1,58,1,-15,1,-65,1,44,1,22,1,14,1,119,1,128,1,113,1,82,1,74,1
286,73,1,58,1,-15,1,-65,1,44,1,22,1,14,1,120,1,128,1,114,1,81,1,73,1
287,73,1,57,1,-16,1,-65,1,45,1,21,1,14,1,120,1,128,1,113,1,81,1,73,1
288,72,1,57,1,-15,1,-64,1,44,1,21,1,15,1,120,1,127,1,112,1,81,1,71,1
289,71,1,56,1,-15,1,-63,1,43,1,21,1,15,1,119,1,125,1,110,1,80,1,68,1
290,69,1,54,1,-15,1,-61,1,42,1,20,1,14,1,117,1,123,1,108,1,78,1,67,1
291,68,1,53,1,-15,1,-60,1,42,1,19,1,14,1,114,1,121,1,106,1,75,1,64,1
292,66,1,51,1,-15,1,-58,1,41,1,18,1,14,1,111,1,118,1,103,1,73,1,63,1
293,63,1,49,1,-14,1,-56,1,39,1,18,1,14,1,107,1,116,1,101,1,70,1,61,1
294,61,1,47,1,-14,1,-54,1,38,1,17,1,14,1,103,1,112,1,98,1,67,1,59,1
295,58,1,45,1,-13,1,-51,1,36,1,16,1,14,1,98,1,108,1,94,1,63,1,56,1
296,56,1,44,1,-12,1,-50,1,34,1,16,1,14,1,94,1,103,1,90,1,59,1,53,1
297,54,1,42,1,-12,1,-48,1,33,1,15,1,13,1,89,1,97,1,85,1,55,1,49,1
298,51,1,40,1,-11,1,-45,1,31,1,15,1,12,1,84,1,90,1,80,1,50,1,45,1
299,47,1,36,1,-11,1,-41,1,29,1,13,1,12,1,78,1,84,1,75,1,46,1,41,1
300,45,1,33,1,-12,1,-39,1,29,1,11,1,11,1,71,1,78,1,69,1,40,1,37,1
301,42,1,31,1,-11,1,-36,1,27,1,10,1,11,1,65,1,71,1,62,1,34,1,33,1
302,38,1,26,1,-12,1,-32,1,25,1,7,1,10,1,59,1,66,1,57,1,29,1,29,1
303,35,1,22,1,-13,1,-28,1,24,1,5,1,10,1,54,1,62,1,52,1,24,1,25,1
304,32,1,19,1,-13,1,-25,1,23,1,3,1,10,1,49,1,57,1,47,1,20,1,22,1
305,30,1,17,1,-13,1,-23,1,22,1,2,1,10,1,44,1,52,1,43,1,15,1,18,1
306,29,1,16,1,-13,1,-22,1,21,1,2,1,10,1,39,1,47,1,39,1,11,1,14,1
307,26,1,13,1,-13,1,-19,1,20,1,0,1,9,1,34,1,42,1,34,1,7,1,11,1
308,23,1,10,1,-13,1,-16,1,18,1,-1,1,9,1,29,1,36,1,30,1,3,1,7,1
309,21,1,7,1,-14,1,-14,1,18,1,-3,1,9,1,25,1,31,1,26,1,0,1,5,1
310,19,1,5,1,-14,1,-12,1,17,1,-4,1,7,1,20,1,25,1,21,1,-3,1,2,1
311,17,1,3,1,-14,1,-10,1,16,1,-5,1,7,1,16,1,21,1,17,1,-6,1,-1,1
312,16,1,2,1,-14,1,-9,1,15,1,-6,1,6,1,13,1,17,1,13,1,-9,1,-4,1
313,14,1,1,1,-13,1,-7,1,14,1,-6,1,6,1,9,1,14,1,9,1,-12,1,-7,1
314,13,1,0,1,-13,1,-6,1,13,1,-6,1,5,1,5,1,11,1,6,1,-15,1,-9,1
315,11,1,-2,1,-13,1,-4,1,12,1,-7,1,5,1,2,1,9,1,4,1,-16,1,-12,1
316,11,1,-3,1,-14,1,-4,1,12,1,-8,1,3,1,0,1,6,1,1,1,-19,1,-15,1
317,10,1,-4,1,-14,1,-3,1,12,1,-9,1,3,1,-1,1,3,1,0,1,-21,1,-17,1
318,9,1,-6,1,-15,1,-1,1,12,1,-10,1,2,1,-4,1,0,1,-2,1,-23,1,-18,1
319,8,1,-7,1,-15,1,0,1,11,1,-11,1,2,1,-6,1,-2,1,-5,1,-25,1,-20,1
320,6,1,-8,1,-14,1,1,1,10,1,-11,1,1,1,-8,1,-5,1,-6,1,-26,1,-20,1
321,5,1,-9,1,-14,1,2,1,9,1,-11,1,0,1,-10,1,-7,1,-7,1,-26,1,-20,1
322,3,1,-8,1,-11,1,2,1,7,1,-9,1,0,1,-11,1,-8,1,-9,1,-27,1,-21,1
323,2,1,-10,1,-12,1,4,1,7,1,-11,1,0,1,-13,1,-9,1,-10,1,-28,1,-22,1
324,1,1,-12,1,-13,1,5,1,7,1,-12,1,0,1,-14,1,-10,1,-11,1,-29,1,-24,1
325,0,1,-12,1,-12,1,6,1,6,1,-12,1,1,1,-16,1,-12,1,-12,1,-30,1,-26,1
326,0,1,-12,1,-12,1,6,1,6,1,-12,1,1,1,-17,1,-13,1,-13,1,-30,1,-26,1
327,-1,1,-13,1,-12,1,7,1,5,1,-13,1,1,1,-18,1,-13,1,-14,1,-30,1,-27,1
328,0,1,-14,1,-14,1,7,1,7,1,-14,1,0,1,-19,1,-14,1,-14,1,-31,1,-27,1
329,0,1,-14,1,-14,1,7,1,7,1,-14,1,0,1,-20,1,-15,1,-15,1,-31,1,-27,1
330,-1,1,-15,1,-14,1,8,1,6,1,-15,1,-1,1,-21,1,-16,1,-16,1,-32,1,-28,1
331,-1,1,-16,1,-15,1,8,1,7,1,-16,1,-1,1,-22,1,-17,1,-17,1,-33,1,-27,1
332,-1,1,-16,1,-15,1,8,1,7,1,-16,1,-1,1,-22,1,-17,1,-17,1,-33,1,-28,1
333,-1,1,-16,1,-15,1,8,1,7,1,-16,1,-2,1,-22,1,-18,1,-17,1,-34,1,-28,1
334,-1,1,-17,1,-16,1,9,1,7,1,-17,1,-2,1,-22,1,-18,1,-17,1,-34,1,-28,1
335,-1,1,-17,1,-16,1,9,1,7,1,-17,1,-2,1,-22,1,-18,1,-18,1,-35,1,-28,1
336,-1,1,-17,1,-16,1,9,1,7,1,-17,1,-1,1,-22,1,-17,1,-18,1,-34,1,-28,1
337,-1,1,-17,1,-16,1,9,1,7,1,-17,1,-2,1,-23,1,-17,1,-17,1,-34,1,-28,1
338,-2,1,-16,1,-14,1,9,1,6,1,-15,1,-2,1,-24,1,-18,1,-18,1,-34,1,-29,1
339,-2,1,-16,1,-14,1,9,1,6,1,-15,1,-2,1,-24,1,-19,1,-18,1,-34,1,-29,1
340,-3,1,-17,1,-14,1,10,1,5,1,-16,1,-2,1,-24,1,-19,1,-19,1,-34,1,-29,1
341,-3,1,-17,1,-14,1,10,1,5,1,-16,1,-3,1,-26,1,-20,1,-20,1,-34,1,-29,1
342,-4,1,-17,1,-13,1,10,1,4,1,-15,1,-3,1,-27,1,-21,1,-20,1,-35,1,-29,1
343,-4,1,-17,1,-13,1,10,1,4,1,-15,1,-3,1,-27,1,-21,1,-20,1,-35,1,-28,1
344,-4,1,-17,1,-13,1,10,1,4,1,-15,1,-3,1,-26,1,-22,1,-21,1,-36,1,-29,1
345,-4,1,-17,1,-13,1,10,1,4,1,-15,1,-3,1,-26,1,-22,1,-21,1,-36,1,-28,1
346,-4,1,-18,1,-14,1,11,1,5,1,-16,1,-3,1,-27,1,-22,1,-22,1,-37,1,-29,1
347,-3,1,-18,1,-15,1,10,1,6,1,-17,1,-3,1,-26,1,-21,1,-22,1,-37,1,-29,1
348,-3,1,-19,1,-16,1,11,1,6,1,-18,1,-3,1,-25,1,-20,1,-22,1,-37,1,-29,1
349,-3,1,-19,1,-16,1,11,1,6,1,-18,1,-3,1,-26,1,-20,1,-22,1,-38,1,-29,1
350,-4,1,-19,1,-15,1,11,1,5,1,-17,1,-3,1,-26,1,-19,1,-22,1,-38,1,-29,1
351,-3,1,-18,1,-15,1,10,1,6,1,-17,1,-3,1,-26,1,-18,1,-21,1,-38,1,-28,1
352,-3,1,-17,1,-14,1,10,1,5,1,-16,1,-2,1,-26,1,-18,1,-21,1,-38,1,-28,1
353,-3,1,-17,1,-14,1,10,1,5,1,-16,1,-2,1,-26,1,-17,1,-21,1,-39,1,-28,1
354,-3,1,-17,1,-14,1,10,1,5,1,-16,1,-1,1,-27,1,-16,1,-21,1,-38,1,-27,1
355,-4,1,-18,1,-14,1,11,1,5,1,-16,1,0,1,-27,1,-16,1,-22,1,-37,1,-26,1
356,-4,1,-18,1,-14,1,11,1,5,1,-16,1,-1,1,-27,1,-16,1,-22,1,-36,1,-26,1
357,-4,1,-18,1,-14,1,11,1,5,1,-16,1,0,1,-27,1,-15,1,-22,1,-36,1,-24,1
358,-4,1,-18,1,-14,1,11,1,5,1,-16,1,-1,1,-27,1,-15,1,-22,1,-35,1,-24,1
359,-4,1,-18,1,-14,1,11,1,5,1,-16,1,-1,1,-27,1,-15,1,-22,1,-35,1,-24,1
360,-4,1,-18,1,-14,1,11,1,5,1,-16,1,-1,1,-28,1,-16,1,-22,1,-35,1,-23,1
361,-3,1,-17,1,-14,1,10,1,5,1,-16,1,-1,1,-27,1,-16,1,-21,1,-34,1,-23,1
362,-2,1,-16,1,-14,1,9,1,6,1,-15,1,-1,1,-28,1,-16,1,-21,1,-34,1,-23,1
363,-2,1,-16,1,-14,1,9,1,6,1,-15,1,-2,1,-27,1,-15,1,-20,1,-34,1,-23,1
364,-2,1,-17,1,-15,1,9,1,6,1,-16,1,-2,1,-27,1,-15,1,-20,1,-34,1,-23,1
365,-2,1,-17,1,-15,1,9,1,6,1,-16,1,-3,1,-26,1,-15,1,-20,1,-34,1,-23,1
366,-2,1,-17,1,-15,1,9,1,6,1,-16,1,-3,1,-26,1,-14,1,-19,1,-34,1,-22,1
367,-3,1,-18,1,-15,1,10,1,6,1,-17,1,-3,1,-26,1,-13,1,-19,1,-33,1,-22,1
368,-3,1,-17,1,-14,1,10,1,5,1,-16,1,-3,1,-26,1,-13,1,-19,1,-33,1,-22,1
369,-3,1,-17,1,-14,1,10,1,5,1,-16,1,-3,1,-27,1,-13,1,-19,1,-32,1,-21,1
370,-3,1,-18,1,-15,1,10,1,6,1,-17,1,-3,1,-27,1,-13,1,-18,1,-31,1,-22,1
371,-3,1,-17,1,-14,1,10,1,5,1,-16,1,-2,1,-27,1,-12,1,-19,1,-31,1,-23,1
372,-2,1,-17,1,-15,1,9,1,6,1,-16,1,-2,1,-27,1,-12,1,-19,1,-32,1,-23,1
373,-2,1,-17,1,-15,1,9,1,6,1,-16,1,-1,1,-28,1,-12,1,-19,1,-32,1,-24,1
374,-2,1,-17,1,-15,1,9,1,6,1,-16,1,-1,1,-28,1,-11,1,-19,1,-31,1,-23,1
375,-2,1,-17,1,-15,1,9,1,6,1,-16,1,-1,1,-28,1,-11,1,-19,1,-31,1,-23,1
376,-2,1,-18,1,-16,1,10,1,7,1,-17,1,-1,1,-27,1,-10,1,-18,1,-30,1,-24,1
377,-2,1,-17,1,-15,1,9,1,6,1,-16,1,-1,1,-27,1,-10,1,-18,1,-30,1,-24,1
378,-2,1,-17,1,-15,1,9,1,6,1,-16,1,-1,1,-26,1,-9,1,-19,1,-30,1,-24,1
379,-3,1,-17,1,-14,1,10,1,5,1,-16,1,-1,1,-25,1,-8,1,-19,1,-31,1,-24,1
380,-2,1,-17,1,-15,1,9,1,6,1,-16,1,-1,1,-24,1,-9,1,-19,1,-31,1,-23,1
381,-2,1,-17,1,-15,1,9,1,6,1,-16,1,-1,1,-23,1,-9,1,-18,1,-30,1,-22,1
382,-2,1,-17,1,-15,1,9,1,6,1,-16,1,-1,1,-23,1,-9,1,-18,1,-30,1,-23,1
383,-1,1,-16,1,-15,1,8,1,7,1,-16,1,-1,1,-24,1,-10,1,-18,1,-29,1,-23,1
384,-1,1,-15,1,-14,1,8,1,6,1,-15,1,-1,1,-24,1,-11,1,-18,1,-29,1,-23,1
385,-1,1,-15,1,-14,1,8,1,6,1,-15,1,-1,1,-24,1,-10,1,-18,1,-28,1,-23,1
386,0,1,-13,1,-13,1,6,1,6,1,-13,1,-1,1,-24,1,-9,1,-18,1,-27,1,-22,1
387,0,1,-13,1,-13,1,6,1,6,1,-13,1,-2,1,-24,1,-10,1,-18,1,-27,1,-22,1
388,0,1,-13,1,-13,1,6,1,6,1,-13,1,-2,1,-25,1,-10,1,-18,1,-27,1,-22,1
389,0,1,-14,1,-14,1,7,1,7,1,-14,1,-2,1,-25,1,-10,1,-17,1,-27,1,-21,1
390,-1,1,-14,1,-13,1,7,1,6,1,-14,1,-2,1,-25,1,-10,1,-17,1,-27,1,-22,1
391,-2,1,-15,1,-13,1,8,1,5,1,-14,1,-2,1,-25,1,-10,1,-17,1,-28,1,-22,1
392,-2,1,-16,1,-14,1,9,1,6,1,-15,1,-3,1,-25,1,-9,1,-15,1,-28,1,-22,1
393,-1,1,-15,1,-14,1,8,1,6,1,-15,1,-3,1,-25,1,-9,1,-15,1,-28,1,-22,1
394,-2,1,-15,1,-13,1,8,1,5,1,-14,1,-3,1,-25,1,-9,1,-15,1,-28,1,-23,1
395,-2,1,-15,1,-13,1,8,1,5,1,-14,1,-2,1,-25,1,-9,1,-16,1,-28,1,-23,1
396,-2,1,-16,1,-14,1,9,1,6,1,-15,1,-2,1,-25,1,-9,1,-17,1,-28,1,-23,1
397,-1,1,-16,1,-15,1,8,1,7,1,-16,1,-1,1,-25,1,-9,1,-16,1,-28,1,-23,1
398,0,1,-16,1,-16,1,8,1,8,1,-16,1,-1,1,-24,1,-8,1,-16,1,-27,1,-22,1
399,1,1,-15,1,-16,1,7,1,8,1,-15,1,0,1,-25,1,-9,1,-16,1,-27,1,-22,1
400,1,1,-16,1,-17,1,7,1,9,1,-16,1,0,1,-25,1,-10,1,-16,1,-27,1,-23,1
401,1,1,-17,1,-18,1,8,1,9,1,-17,1,0,1,-25,1,-11,1,-16,1,-27,1,-23,1
402,2,1,-16,1,-18,1,7,1,10,1,-17,1,0,1,-25,1,-13,1,-16,1,-27,1,-23,1
403,2,1,-15,1,-17,1,6,1,9,1,-16,1,0,1,-25,1,-14,1,-16,1,-27,1,-24,1
404,1,1,-15,1,-16,1,7,1,8,1,-15,1,0,1,-24,1,-14,1,-16,1,-27,1,-23,1
405,1,1,-14,1,-15,1,6,1,8,1,-14,1,-1,1,-24,1,-14,1,-15,1,-27,1,-23,1
406,0,1,-14,1,-14,1,7,1,7,1,-14,1,-1,1,-24,1,-15,1,-15,1,-27,1,-23,1
407,0,1,-14,1,-14,1,7,1,7,1,-14,1,-1,1,-24,1,-15,1,-15,1,-27,1,-22,1
408,1,1,-14,1,-15,1,6,1,8,1,-14,1,-2,1,-25,1,-16,1,-15,1,-27,1,-23,1
409,1,1,-14,1,-15,1,6,1,8,1,-14,1,-2,1,-25,1,-17,1,-15,1,-27,1,-24,1
410,2,1,-14,1,-16,1,6,1,9,1,-15,1,-2,1,-25,1,-17,1,-15,1,-27,1,-24,1
411,2,1,-14,1,-16,1,6,1,9,1,-15,1,-2,1,-26,1,-18,1,-15,1,-28,1,-25,1
412,1,1,-15,1,-16,1,7,1,8,1,-15,1,-2,1,-28,1,-19,1,-16,1,-29,1,-27,1
413,1,1,-16,1,-17,1,7,1,9,1,-16,1,-2,1,-28,1,-20,1,-16,1,-30,1,-27,1
414,1,1,-16,1,-17,1,7,1,9,1,-16,1,-2,1,-29,1,-20,1,-16,1,-30,1,-27,1
415,1,1,-16,1,-17,1,7,1,9,1,-16,1,-2,1,-29,1,-20,1,-17,1,-30,1,-28,1
416,0,1,-16,1,-16,1,8,1,8,1,-16,1,-2,1,-28,1,-20,1,-17,1,-30,1,-28,1
417,0,1,-16,1,-16,1,8,1,8,1,-16,1,-2,1,-28,1,-20,1,-17,1,-30,1,-28,1
418,0,1,-16,1,-16,1,8,1,8,1,-16,1,-2,1,-28,1,-20,1,-17,1,-30,1,-30,1
419,-1,1,-17,1,-16,1,9,1,7,1,-17,1,-2,1,-27,1,-19,1,-17,1,-29,1,-30,1
420,0,1,-16,1,-16,1,8,1,8,1,-16,1,-2,1,-28,1,-20,1,-16,1,-29,1,-30,1
421,0,1,-16,1,-16,1,8,1,8,1,-16,1,-3,1,-28,1,-20,1,-16,1,-30,1,-32,1
422,-1,1,-17,1,-16,1,9,1,7,1,-17,1,-3,1,-28,1,-21,1,-16,1,-29,1,-33,1
423,-1,1,-17,1,-16,1,9,1,7,1,-17,1,-3,1,-29,1,-21,1,-15,1,-29,1,-34,1
424,-1,1,-16,1,-15,1,8,1,7,1,-16,1,-3,1,-29,1,-21,1,-16,1,-28,1,-34,1
425,-1,1,-16,1,-15,1,8,1,7,1,-16,1,-3,1,-28,1,-21,1,-16,1,-27,1,-33,1
426,-1,1,-17,1,-16,1,9,1,7,1,-17,1,-3,1,-29,1,-21,1,-17,1,-27,1,-34,1
427,0,1,-16,1,-16,1,8,1,8,1,-16,1,-2,1,-29,1,-21,1,-18,1,-27,1,-34,1
428,0,1,-16,1,-16,1,8,1,8,1,-16,1,-1,1,-30,1,-21,1,-18,1,-27,1,-34,1
429,0,1,-16,1,-16,1,8,1,8,1,-16,1,-1,1,-30,1,-21,1,-17,1,-27,1,-35,1
430,0,1,-16,1,-16,1,8,1,8,1,-16,1,0,1,-30,1,-21,1,-17,1,-27,1,-35,1
431,0,1,-16,1,-16,1,8,1,8,1,-16,1,0,1,-30,1,-21,1,-17,1,-27,1,-35,1
432,0,1,-16,1,-16,1,8,1,8,1,-16,1,-1,1,-30,1,-22,1,-17,1,-27,1,-35,1
433,-1,1,-17,1,-16,1,9,1,7,1,-17,1,-1,1,-30,1,-23,1,-17,1,-27,1,-36,1
434,-2,1,-18,1,-16,1,10,1,7,1,-17,1,-2,1,-31,1,-24,1,-17,1,-27,1,-36,1
435,-3,1,-19,1,-16,1,11,1,6,1,-18,1,-2,1,-31,1,-24,1,-18,1,-27,1,-37,1
436,-3,1,-18,1,-15,1,10,1,6,1,-17,1,-2,1,-30,1,-24,1,-18,1,-27,1,-37,1
437,-3,1,-18,1,-15,1,10,1,6,1,-17,1,-1,1,-30,1,-24,1,-19,1,-27,1,-37,1
438,-3,1,-18,1,-15,1,10,1,6,1,-17,1,-1,1,-30,1,-24,1,-19,1,-27,1,-37,1
439,-3,1,-18,1,-15,1,10,1,6,1,-17,1,-1,1,-30,1,-24,1,-20,1,-28,1,-38,1
440,-3,1,-18,1,-15,1,10,1,6,1,-17,1,-1,1,-31,1,-25,1,-21,1,-28,1,-38,1
441,-3,1,-18,1,-15,1,10,1,6,1,-17,1,-1,1,-31,1,-25,1,-20,1,-28,1,-38,1
442,-3,1,-17,1,-14,1,10,1,5,1,-16,1,-1,1,-31,1,-26,1,-20,1,-27,1,-39,1
443,-3,1,-17,1,-14,1,10,1,5,1,-16,1,-2,1,-31,1,-27,1,-21,1,-27,1,-38,1
444,-4,1,-19,1,-15,1,11,1,5,1,-17,1,-2,1,-32,1,-29,1,-21,1,-27,1,-39,1
445,-4,1,-18,1,-14,1,11,1,5,1,-16,1,-2,1,-32,1,-29,1,-21,1,-28,1,-39,1
446,-2,1,-17,1,-15,1,9,1,6,1,-16,1,-2,1,-32,1,-29,1,-21,1,-27,1,-38,1
447,-2,1,-17,1,-15,1,9,1,6,1,-16,1,-2,1,-32,1,-29,1,-21,1,-27,1,-37,1
448,-2,1,-18,1,-16,1,10,1,7,1,-17,1,-3,1,-32,1,-30,1,-21,1,-26,1,-38,1
449,-3,1,-19,1,-16,1,11,1,6,1,-18,1,-3,1,-32,1,-30,1,-22,1,-27,1,-37,1
450,-4,1,-20,1,-16,1,12,1,6,1,-18,1,-2,1,-31,1,-31,1,-22,1,-27,1,-38,1
451,-4,1,-20,1,-16,1,12,1,6,1,-18,1,-2,1,-31,1,-31,1,-22,1,-27,1,-38,1
452,-4,1,-20,1,-16,1,12,1,6,1,-18,1,-2,1,-32,1,-32,1,-22,1,-29,1,-38,1
453,-4,1,-20,1,-16,1,12,1,6,1,-18,1,-2,1,-31,1,-31,1,-21,1,-29,1,-38,1
454,-3,1,-19,1,-16,1,11,1,6,1,-18,1,-2,1,-30,1,-31,1,-21,1,-29,1,-38,1
455,-3,1,-19,1,-16,1,11,1,6,1,-18,1,-2,1,-30,1,-31,1,-22,1,-29,1,-38,1
456,-2,1,-20,1,-18,1,11,1,8,1,-19,1,-2,1,-30,1,-30,1,-22,1,-29,1,-38,1
457,-2,1,-20,1,-18,1,11,1,8,1,-19,1,-2,1,-30,1,-30,1,-22,1,-29,1,-37,1
458,-2,1,-19,1,-17,1,10,1,7,1,-18,1,-2,1,-30,1,-30,1,-22,1,-28,1,-36,1
459,-3,1,-19,1,-16,1,11,1,6,1,-18,1,-2,1,-30,1,-30,1,-23,1,-27,1,-35,1
460,-2,1,-19,1,-17,1,10,1,7,1,-18,1,-2,1,-30,1,-30,1,-23,1,-27,1,-35,1
461,-2,1,-19,1,-17,1,10,1,7,1,-18,1,-2,1,-30,1,-30,1,-22,1,-26,1,-34,1
462,-3,1,-19,1,-16,1,11,1,6,1,-18,1,-2,1,-30,1,-31,1,-22,1,-26,1,-34,1
463,-4,1,-20,1,-16,1,12,1,6,1,-18,1,-2,1,-30,1,-31,1,-22,1,-26,1,-34,1
464,-4,1,-19,1,-15,1,11,1,5,1,-17,1,-2,1,-30,1,-31,1,-23,1,-27,1,-33,1
465,-4,1,-19,1,-15,1,11,1,5,1,-17,1,-2,1,-30,1,-31,1,-23,1,-27,1,-34,1
466,-4,1,-20,1,-16,1,12,1,6,1,-18,1,-2,1,-30,1,-31,1,-23,1,-28,1,-34,1
467,-5,1,-20,1,-15,1,12,1,5,1,-18,1,-1,1,-30,1,-31,1,-23,1,-28,1,-35,1
468,-4,1,-20,1,-16,1,12,1,6,1,-18,1,0,1,-30,1,-31,1,-23,1,-28,1,-35,1
469,-4,1,-20,1,-16,1,12,1,6,1,-18,1,0,1,-30,1,-31,1,-23,1,-28,1,-36,1
470,-3,1,-20,1,-17,1,11,1,7,1,-19,1,-1,1,-30,1,-31,1,-24,1,-28,1,-36,1
471,-4,1,-20,1,-16,1,12,1,6,1,-18,1,-1,1,-31,1,-30,1,-24,1,-28,1,-36,1
472,-4,1,-20,1,-16,1,12,1,6,1,-18,1,-2,1,-31,1,-30,1,-25,1,-28,1,-37,1
473,-3,1,-19,1,-16,1,11,1,6,1,-18,1,-2,1,-32,1,-30,1,-25,1,-28,1,-38,1
474,-3,1,-19,1,-16,1,11,1,6,1,-18,1,-2,1,-32,1,-30,1,-25,1,-28,1,-37,1
475,-3,1,-19,1,-16,1,11,1,6,1,-18,1,-2,1,-31,1,-29,1,-25,1,-28,1,-37,1
476,-3,1,-18,1,-15,1,10,1,6,1,-17,1,-2,1,-31,1,-28,1,-26,1,-28,1,-37,1
477,-3,1,-18,1,-15,1,10,1,6,1,-17,1,-2,1,-31,1,-27,1,-26,1,-29,1,-35,1
478,-3,1,-18,1,-15,1,10,1,6,1,-17,1,-2,1,-32,1,-27,1,-26,1,-29,1,-36,1
479,-3,1,-18,1,-15,1,10,1,6,1,-17,1,-2,1,-32,1,-27,1,-26,1,-29,1,-36,1
480,-3,1,-18,1,-15,1,10,1,6,1,-17,1,-2,1,-32,1,-26,1,-26,1,-28,1,-35,1
481,-3,1,-19,1,-16,1,11,1,6,1,-18,1,-2,1,-32,1,-26,1,-26,1,-28,1,-36,1
482,-3,1,-19,1,-16,1,11,1,6,1,-18,1,-2,1,-32,1,-27,1,-26,1,-28,1,-36,1
483,-3,1,-19,1,-16,1,11,1,6,1,-18,1,-2,1,-33,1,-27,1,-26,1,-28,1,-35,1
484,-3,1,-20,1,-17,1,11,1,7,1,-19,1,-2,1,-33,1,-27,1,-25,1,-28,1,-35,1
485,-3,1,-21,1,-18,1,12,1,7,1,-20,1,-1,1,-33,1,-27,1,-25,1,-28,1,-35,1
486,-3,1,-21,1,-18,1,12,1,7,1,-20,1,-1,1,-33,1,-27,1,-25,1,-27,1,-36,1
487,-3,1,-21,1,-18,1,12,1,7,1,-20,1,-1,1,-33,1,-27,1,-25,1,-27,1,-36,1
488,-3,1,-21,1,-18,1,12,1,7,1,-20,1,-1,1,-34,1,-27,1,-25,1,-26,1,-36,1
489,-3,1,-21,1,-18,1,12,1,7,1,-20,1,-1,1,-34,1,-27,1,-26,1,-26,1,-35,1
490,-3,1,-21,1,-18,1,12,1,7,1,-20,1,-1,1,-34,1,-27,1,-26,1,-26,1,-35,1
491,-3,1,-21,1,-18,1,12,1,7,1,-20,1,-1,1,-35,1,-27,1,-27,1,-27,1,-35,1
492,-3,1,-20,1,-17,1,11,1,7,1,-19,1,-1,1,-35,1,-27,1,-27,1,-27,1,-34,1
493,-2,1,-19,1,-17,1,10,1,7,1,-18,1,-1,1,-35,1,-26,1,-26,1,-27,1,-33,1
494,-2,1,-19,1,-17,1,10,1,7,1,-18,1,-1,1,-35,1,-26,1,-26,1,-27,1,-33,1
495,-2,1,-18,1,-16,1,10,1,7,1,-17,1,-2,1,-35,1,-27,1,-26,1,-27,1,-33,1
496,-2,1,-18,1,-16,1,10,1,7,1,-17,1,-2,1,-35,1,-27,1,-25,1,-26,1,-31,1
497,-2,1,-18,1,-16,1,10,1,7,1,-17,1,-2,1,-35,1,-27,1,-24,1,-26,1,-31,1
498,-2,1,-18,1,-16,1,10,1,7,1,-17,1,-2,1,-35,1,-27,1,-24,1,-25,1,-31,1
499,-2,1,-19,1,-17,1,10,1,7,1,-18,1,-2,1,-35,1,-27,1,-24,1,-25,1,-30,1
500,-2,1,-19,1,-17,1,10,1,7,1,-18,1,-2,1,-35,1,-27,1,-24,1,-25,1,-31,1
501,-3,1,-19,1,-16,1,11,1,6,1,-18,1,-2,1,-36,1,-28,1,-25,1,-25,1,-31,1
502,-2,1,-19,1,-17,1,10,1,7,1,-18,1,-2,1,-36,1,-28,1,-25,1,-26,1,-30,1
503,-2,1,-19,1,-17,1,10,1,7,1,-18,1,-1,1,-36,1,-28,1,-25,1,-26,1,-30,1
504,-3,1,-19,1,-16,1,11,1,6,1,-18,1,-2,1,-37,1,-29,1,-26,1,-26,1,-31,1
505,-4,1,-19,1,-15,1,11,1,5,1,-17,1,-2,1,-37,1,-29,1,-26,1,-26,1,-30,1
506,-5,1,-21,1,-16,1,13,1,5,1,-19,1,-2,1,-37,1,-29,1,-26,1,-25,1,-31,1
507,-4,1,-19,1,-15,1,11,1,5,1,-17,1,-1,1,-36,1,-29,1,-26,1,-25,1,-30,1
508,-3,1,-19,1,-16,1,11,1,6,1,-18,1,-1,1,-36,1,-29,1,-27,1,-25,1,-30,1
509,-4,1,-20,1,-16,1,12,1,6,1,-18,1,-1,1,-37,1,-29,1,-27,1,-26,1,-29,1
510,-4,1,-20,1,-16,1,12,1,6,1,-18,1,-1,1,-36,1,-30,1,-28,1,-28,1,-30,1
511,-4,1,-21,1,-17,1,12,1,6,1,-19,1,-2,1,-36,1,-30,1,-28,1,-28,1,-31,1
512,-4,1,-21,1,-17,1,12,1,6,1,-19,1,-2,1,-37,1,-30,1,-28,1,-28,1,-31,1
513,-3,1,-20,1,-17,1,11,1,7,1,-19,1,-3,1,-37,1,-31,1,-28,1,-28,1,-31,1
514,-3,1,-20,1,-17,1,11,1,7,1,-19,1,-3,1,-37,1,-31,1,-28,1,-28,1,-32,1
515,-3,1,-20,1,-17,1,11,1,7,1,-19,1,-3,1,-37,1,-30,1,-27,1,-28,1,-31,1
516,-3,1,-20,1,-17,1,11,1,7,1,-19,1,-2,1,-37,1,-29,1,-28,1,-27,1,-31,1
517,-2,1,-19,1,-17,1,10,1,7,1,-18,1,-2,1,-37,1,-29,1,-28,1,-27,1,-32,1
518,-2,1,-19,1,-17,1,10,1,7,1,-18,1,-1,1,-37,1,-29,1,-28,1,-26,1,-31,1
519,-2,1,-19,1,-17,1,10,1,7,1,-18,1,-1,1,-37,1,-29,1,-29,1,-26,1,-31,1
520,-2,1,-19,1,-17,1,10,1,7,1,-18,1,-1,1,-38,1,-29,1,-29,1,-26,1,-31,1
521,-2,1,-20,1,-18,1,11,1,8,1,-19,1,-1,1,-38,1,-30,1,-29,1,-26,1,-32,1
522,-1,1,-19,1,-18,1,10,1,8,1,-19,1,-1,1,-38,1,-30,1,-28,1,-26,1,-31,1
523,-1,1,-19,1,-18,1,10,1,8,1,-19,1,-1,1,-38,1,-30,1,-29,1,-26,1,-31,1
524,-2,1,-19,1,-17,1,10,1,7,1,-18,1,-1,1,-38,1,-30,1,-29,1,-27,1,-31,1
525,-2,1,-19,1,-17,1,10,1,7,1,-18,1,-2,1,-38,1,-30,1,-29,1,-26,1,-30,1
526,-3,1,-18,1,-15,1,10,1,6,1,-17,1,-2,1,-38,1,-30,1,-28,1,-26,1,-30,1
527,-3,1,-18,1,-15,1,10,1,6,1,-17,1,-1,1,-38,1,-29,1,-28,1,-26,1,-29,1
528,-2,1,-18,1,-16,1,10,1,7,1,-17,1,-1,1,-37,1,-28,1,-27,1,-25,1,-29,1
529,-2,1,-18,1,-16,1,10,1,7,1,-17,1,-1,1,-37,1,-28,1,-28,1,-25,1,-30,1
530,-2,1,-18,1,-16,1,10,1,7,1,-17,1,-1,1,-36,1,-27,1,-28,1,-24,1,-30,1
531,-2,1,-19,1,-17,1,10,1,7,1,-18,1,-1,1,-36,1,-26,1,-28,1,-24,1,-31,1
532,-2,1,-18,1,-16,1,10,1,7,1,-17,1,-2,1,-36,1,-26,1,-28,1,-25,1,-31,1
533,-2,1,-17,1,-15,1,9,1,6,1,-16,1,-2,1,-35,1,-24,1,-28,1,-25,1,-31,1
534,-1,1,-16,1,-15,1,8,1,7,1,-16,1,-1,1,-35,1,-23,1,-28,1,-25,1,-31,1
535,0,1,-15,1,-15,1,7,1,7,1,-15,1,-1,1,-34,1,-23,1,-28,1,-24,1,-30,1
536,0,1,-15,1,-15,1,7,1,7,1,-15,1,0,1,-34,1,-22,1,-28,1,-23,1,-30,1
537,1,1,-15,1,-16,1,7,1,8,1,-15,1,0,1,-33,1,-21,1,-27,1,-23,1,-30,1
538,2,1,-15,1,-17,1,6,1,9,1,-16,1,1,1,-33,1,-21,1,-26,1,-23,1,-30,1
539,2,1,-15,1,-17,1,6,1,9,1,-16,1,1,1,-33,1,-21,1,-26,1,-23,1,-30,1
540,3,1,-15,1,-18,1,6,1,10,1,-16,1,1,1,-32,1,-20,1,-25,1,-22,1,-30,1
541,4,1,-14,1,-18,1,5,1,11,1,-16,1,1,1,-31,1,-19,1,-25,1,-23,1,-31,1
542,4,1,-14,1,-18,1,5,1,11,1,-16,1,2,1,-31,1,-18,1,-25,1,-23,1,-30,1
543,3,1,-15,1,-18,1,6,1,10,1,-16,1,2,1,-30,1,-17,1,-25,1,-23,1,-30,1
544,3,1,-13,1,-16,1,5,1,9,1,-14,1,2,1,-30,1,-17,1,-25,1,-23,1,-30,1
545,5,1,-12,1,-17,1,3,1,11,1,-14,1,3,1,-28,1,-16,1,-24,1,-22,1,-28,1
546,6,1,-12,1,-18,1,3,1,12,1,-15,1,4,1,-28,1,-15,1,-23,1,-21,1,-28,1
547,5,1,-13,1,-18,1,4,1,11,1,-15,1,4,1,-27,1,-16,1,-24,1,-21,1,-29,1
548,5,1,-14,1,-19,1,4,1,12,1,-16,1,4,1,-26,1,-16,1,-24,1,-20,1,-28,1
549,5,1,-15,1,-20,1,5,1,12,1,-17,1,4,1,-25,1,-16,1,-23,1,-20,1,-28,1
550,5,1,-14,1,-19,1,4,1,12,1,-16,1,3,1,-25,1,-15,1,-23,1,-19,1,-28,1
551,6,1,-14,1,-20,1,4,1,13,1,-17,1,3,1,-25,1,-15,1,-23,1,-19,1,-28,1
552,6,1,-14,1,-20,1,4,1,13,1,-17,1,1,1,-26,1,-16,1,-22,1,-19,1,-27,1
553,7,1,-13,1,-20,1,3,1,13,1,-16,1,0,1,-28,1,-16,1,-22,1,-19,1,-27,1
554,6,1,-13,1,-19,1,3,1,12,1,-16,1,-1,1,-29,1,-17,1,-22,1,-19,1,-27,1
555,6,1,-14,1,-20,1,4,1,13,1,-17,1,-2,1,-30,1,-18,1,-22,1,-18,1,-27,1
556,6,1,-15,1,-21,1,4,1,13,1,-18,1,-3,1,-32,1,-19,1,-23,1,-19,1,-27,1
557,6,1,-15,1,-21,1,4,1,13,1,-18,1,-4,1,-33,1,-21,1,-25,1,-19,1,-28,1
558,5,1,-15,1,-20,1,5,1,12,1,-17,1,-5,1,-33,1,-22,1,-26,1,-20,1,-28,1
559,3,1,-15,1,-18,1,6,1,10,1,-16,1,-5,1,-34,1,-23,1,-28,1,-21,1,-28,1
560,2,1,-16,1,-18,1,7,1,10,1,-17,1,-5,1,-34,1,-24,1,-29,1,-22,1,-30,1
561,2,1,-16,1,-18,1,7,1,10,1,-17,1,-5,1,-35,1,-25,1,-29,1,-23,1,-31,1
562,2,1,-16,1,-18,1,7,1,10,1,-17,1,-5,1,-35,1,-25,1,-30,1,-23,1,-32,1
563,2,1,-16,1,-18,1,7,1,10,1,-17,1,-5,1,-36,1,-26,1,-30,1,-24,1,-33,1
564,2,1,-17,1,-19,1,7,1,10,1,-18,1,-5,1,-36,1,-26,1,-29,1,-24,1,-34,1
565,3,1,-17,1,-20,1,7,1,11,1,-18,1,-5,1,-37,1,-26,1,-29,1,-24,1,-34,1
566,3,1,-17,1,-20,1,7,1,11,1,-18,1,-4,1,-37,1,-26,1,-29,1,-24,1,-35,1
567,3,1,-17,1,-20,1,7,1,11,1,-18,1,-4,1,-37,1,-25,1,-28,1,-23,1,-35,1
568,3,1,-17,1,-20,1,7,1,11,1,-18,1,-3,1,-37,1,-25,1,-29,1,-23,1,-35,1
569,3,1,-16,1,-19,1,6,1,11,1,-17,1,-3,1,-37,1,-25,1,-29,1,-23,1,-34,1
570,3,1,-17,1,-20,1,7,1,11,1,-18,1,-4,1,-38,1,-25,1,-29,1,-23,1,-35,1
571,3,1,-17,1,-20,1,7,1,11,1,-18,1,-4,1,-38,1,-25,1,-29,1,-23,1,-35,1
572,2,1,-17,1,-19,1,7,1,10,1,-18,1,-5,1,-37,1,-26,1,-29,1,-23,1,-36,1
573,2,1,-17,1,-19,1,7,1,10,1,-18,1,-6,1,-38,1,-26,1,-29,1,-23,1,-36,1
574,2,1,-18,1,-20,1,8,1,11,1,-19,1,-5,1,-39,1,-27,1,-29,1,-23,1,-36,1
575,2,1,-18,1,-20,1,8,1,11,1,-19,1,-5,1,-39,1,-28,1,-29,1,-23,1,-37,1
576,1,1,-19,1,-20,1,9,1,10,1,-19,1,-5,1,-40,1,-28,1,-30,1,-23,1,-37,1
577,2,1,-19,1,-21,1,8,1,11,1,-20,1,-5,1,-41,1,-28,1,-31,1,-23,1,-37,1
578,2,1,-19,1,-21,1,8,1,11,1,-20,1,-5,1,-41,1,-28,1,-31,1,-24,1,-38,1
579,1,1,-19,1,-20,1,9,1,10,1,-19,1,-5,1,-41,1,-28,1,-31,1,-24,1,-38,1
580,0,1,-19,1,-19,1,9,1,9,1,-19,1,-6,1,-41,1,-27,1,-31,1,-24,1,-38,1
581,-1,1,-18,1,-17,1,9,1,8,1,-18,1,-6,1,-41,1,-26,1,-31,1,-25,1,-38,1
582,-2,1,-19,1,-17,1,10,1,7,1,-18,1,-6,1,-41,1,-26,1,-31,1,-24,1,-39,1
583,-2,1,-19,1,-17,1,10,1,7,1,-18,1,-6,1,-41,1,-26,1,-31,1,-25,1,-38,1
584,-4,1,-20,1,-16,1,12,1,6,1,-18,1,-7,1,-42,1,-26,1,-32,1,-25,1,-39,1
585,-4,1,-21,1,-17,1,12,1,6,1,-19,1,-6,1,-42,1,-26,1,-32,1,-25,1,-39,1
586,-5,1,-21,1,-16,1,13,1,5,1,-19,1,-5,1,-42,1,-26,1,-32,1,-25,1,-39,1
587,-5,1,-22,1,-17,1,13,1,6,1,-20,1,-5,1,-42,1,-26,1,-32,1,-25,1,-39,1
588,-5,1,-22,1,-17,1,13,1,6,1,-20,1,-4,1,-42,1,-26,1,-32,1,-25,1,-39,1
589,-4,1,-22,1,-18,1,13,1,7,1,-20,1,-4,1,-41,1,-26,1,-32,1,-24,1,-40,1
590,-4,1,-22,1,-18,1,13,1,7,1,-20,1,-4,1,-42,1,-27,1,-33,1,-25,1,-39,1
591,-4,1,-22,1,-18,1,13,1,7,1,-20,1,-4,1,-42,1,-26,1,-32,1,-25,1,-40,1
592,-4,1,-22,1,-18,1,13,1,7,1,-20,1,-4,1,-42,1,-25,1,-32,1,-25,1,-40,1
593,-5,1,-23,1,-18,1,14,1,6,1,-21,1,-4,1,-42,1,-25,1,-33,1,-25,1,-40,1
594,-5,1,-24,1,-19,1,14,1,7,1,-22,1,-5,1,-42,1,-25,1,-33,1,-25,1,-40,1
595,-5,1,-24,1,-19,1,14,1,7,1,-22,1,-5,1,-41,1,-25,1,-34,1,-25,1,-40,1
596,-4,1,-22,1,-18,1,13,1,7,1,-20,1,-4,1,-40,1,-25,1,-34,1,-25,1,-40,1
597,-4,1,-21,1,-17,1,12,1,6,1,-19,1,-4,1,-39,1,-25,1,-33,1,-24,1,-40,1
598,-4,1,-21,1,-17,1,12,1,6,1,-19,1,-3,1,-38,1,-25,1,-32,1,-24,1,-40,1
599,-5,1,-21,1,-16,1,13,1,5,1,-19,1,-3,1,-38,1,-26,1,-32,1,-24,1,-41,1
600,-5,1,-21,1,-16,1,13,1,5,1,-19,1,-3,1,-38,1,-27,1,-33,1,-24,1,-42,1
601,-5,1,-21,1,-16,1,13,1,5,1,-19,1,-3,1,-37,1,-26,1,-32,1,-24,1,-40,1
602,-5,1,-21,1,-16,1,13,1,5,1,-19,1,-3,1,-37,1,-26,1,-32,1,-24,1,-40,1
603,-5,1,-21,1,-16,1,13,1,5,1,-19,1,-4,1,-36,1,-26,1,-32,1,-25,1,-40,1
604,-5,1,-21,1,-16,1,13,1,5,1,-19,1,-4,1,-36,1,-27,1,-32,1,-26,1,-40,1
605,-5,1,-21,1,-16,1,13,1,5,1,-19,1,-4,1,-35,1,-27,1,-32,1,-26,1,-40,1
606,-5,1,-21,1,-16,1,13,1,5,1,-19,1,-4,1,-36,1,-28,1,-31,1,-26,1,-40,1
607,-5,1,-22,1,-17,1,13,1,6,1,-20,1,-4,1,-36,1,-28,1,-31,1,-26,1,-41,1
608,-4,1,-22,1,-18,1,13,1,7,1,-20,1,-4,1,-36,1,-28,1,-31,1,-26,1,-40,1
609,-4,1,-22,1,-18,1,13,1,7,1,-20,1,-4,1,-35,1,-28,1,-31,1,-26,1,-40,1
610,-5,1,-22,1,-17,1,13,1,6,1,-20,1,-3,1,-35,1,-27,1,-30,1,-26,1,-40,1
611,-5,1,-22,1,-17,1,13,1,6,1,-20,1,-3,1,-35,1,-28,1,-31,1,-26,1,-40,1
612,-5,1,-22,1,-17,1,13,1,6,1,-20,1,-3,1,-35,1,-28,1,-31,1,-26,1,-39,1
613,-5,1,-21,1,-16,1,13,1,5,1,-19,1,-2,1,-36,1,-27,1,-31,1,-25,1,-39,1
614,-5,1,-21,1,-16,1,13,1,5,1,-19,1,-2,1,-36,1,-27,1,-31,1,-25,1,-38,1
615,-5,1,-20,1,-15,1,12,1,5,1,-18,1,-2,1,-36,1,-26,1,-31,1,-25,1,-39,1
616,-5,1,-21,1,-16,1,13,1,5,1,-19,1,-2,1,-35,1,-26,1,-31,1,-25,1,-39,1
617,-5,1,-21,1,-16,1,13,1,5,1,-19,1,-2,1,-35,1,-26,1,-31,1,-25,1,-40,1
618,-5,1,-21,1,-16,1,13,1,5,1,-19,1,-2,1,-34,1,-25,1,-31,1,-26,1,-40,1
619,-4,1,-20,1,-16,1,12,1,6,1,-18,1,-2,1,-34,1,-25,1,-32,1,-25,1,-40,1
620,-4,1,-20,1,-16,1,12,1,6,1,-18,1,-2,1,-34,1,-25,1,-32,1,-25,1,-40,1
621,-4,1,-20,1,-16,1,12,1,6,1,-18,1,-2,1,-34,1,-25,1,-32,1,-26,1,-40,1
622,-4,1,-21,1,-17,1,12,1,6,1,-19,1,-2,1,-34,1,-26,1,-33,1,-27,1,-41,1
623,-4,1,-23,1,-19,1,13,1,7,1,-21,1,-1,1,-35,1,-26,1,-33,1,-28,1,-42,1
624,-4,1,-24,1,-20,1,14,1,8,1,-22,1,-1,1,-36,1,-28,1,-35,1,-30,1,-43,1
625,-5,1,-26,1,-21,1,15,1,8,1,-24,1,0,1,-37,1,-30,1,-37,1,-32,1,-45,1
626,-5,1,-27,1,-22,1,16,1,8,1,-25,1,0,1,-36,1,-31,1,-37,1,-33,1,-47,1
627,-5,1,-28,1,-23,1,16,1,9,1,-26,1,0,1,-36,1,-31,1,-38,1,-34,1,-47,1
628,-5,1,-29,1,-24,1,17,1,9,1,-27,1,0,1,-35,1,-31,1,-39,1,-35,1,-48,1
629,-4,1,-29,1,-25,1,16,1,10,1,-27,1,1,1,-33,1,-29,1,-37,1,-34,1,-47,1
630,-2,1,-27,1,-25,1,14,1,11,1,-26,1,1,1,-29,1,-24,1,-35,1,-32,1,-45,1
631,1,1,-25,1,-26,1,12,1,13,1,-25,1,1,1,-21,1,-18,1,-29,1,-27,1,-42,1
632,7,1,-23,1,-30,1,8,1,18,1,-26,1,2,1,-10,1,-8,1,-21,1,-21,1,-38,1
633,15,1,-19,1,-34,1,2,1,24,1,-26,1,3,1,5,1,5,1,-11,1,-12,1,-33,1
634,26,1,-14,1,-40,1,-6,1,33,1,-27,1,6,1,24,1,20,1,2,1,-2,1,-26,1
635,38,1,-8,1,-46,1,-15,1,42,1,-27,1,10,1,44,1,39,1,18,1,11,1,-16,1
636,52,1,1,1,-51,1,-26,1,52,1,-25,1,14,1,67,1,59,1,36,1,27,1,-3,1
637,67,1,13,1,-54,1,-40,1,61,1,-20,1,16,1,89,1,82,1,56,1,45,1,12,1
638,82,1,26,1,-56,1,-54,1,69,1,-15,1,15,1,109,1,106,1,78,1,64,1,29,1
639,98,1,39,1,-59,1,-68,1,79,1,-10,1,11,1,128,1,130,1,102,1,86,1,48,1
640,113,1,55,1,-58,1,-84,1,86,1,-1,1,6,1,146,1,155,1,126,1,109,1,68,1
641,125,1,71,1,-54,1,-98,1,90,1,9,1,1,1,167,1,182,1,153,1,134,1,88,1
642,131,1,92,1,-39,1,-111,1,85,1,27,1,-2,1,190,1,212,1,183,1,162,1,112,1
643,133,1,116,1,-17,1,-124,1,75,1,50,1,-7,1,211,1,242,1,213,1,190,1,137,1
644,130,1,138,1,8,1,-134,1,61,1,73,1,-14,1,230,1,268,1,242,1,217,1,159,1
645,127,1,154,1,27,1,-140,1,50,1,91,1,-22,1,248,1,293,1,267,1,240,1,180,1
646,121,1,163,1,42,1,-142,1,40,1,103,1,-29,1,261,1,310,1,283,1,254,1,192,1
647,114,1,163,1,49,1,-138,1,33,1,106,1,-36,1,261,1,313,1,286,1,256,1,196,1
648,104,1,157,1,53,1,-130,1,26,1,105,1,-41,1,248,1,302,1,276,1,248,1,190,1
649,91,1,146,1,55,1,-118,1,18,1,101,1,-47,1,221,1,277,1,253,1,230,1,176,1
650,73,1,130,1,57,1,-101,1,8,1,94,1,-53,1,175,1,234,1,218,1,200,1,155,1
651,50,1,109,1,59,1,-79,1,-4,1,84,1,-59,1,112,1,173,1,167,1,158,1,123,1
652,30,1,87,1,57,1,-58,1,-13,1,72,1,-65,1,46,1,107,1,113,1,112,1,86,1
653,11,1,65,1,54,1,-38,1,-21,1,60,1,-68,1,-6,1,50,1,66,1,70,1,52,1
654,-3,1,43,1,46,1,-20,1,-24,1,44,1,-69,1,-43,1,8,1,29,1,36,1,24,1
655,-13,1,26,1,39,1,-6,1,-26,1,32,1,-69,1,-65,1,-20,1,2,1,11,1,2,1
656,-18,1,14,1,32,1,2,1,-25,1,23,1,-69,1,-77,1,-38,1,-15,1,-6,1,-12,1
657,-19,1,4,1,23,1,7,1,-21,1,13,1,-68,1,-82,1,-48,1,-27,1,-17,1,-21,1
658,-20,1,-2,1,18,1,11,1,-19,1,8,1,-65,1,-84,1,-53,1,-33,1,-23,1,-27,1
659,-21,1,-5,1,16,1,13,1,-19,1,5,1,-61,1,-83,1,-53,1,-37,1,-26,1,-30,1
660,-23,1,-8,1,15,1,15,1,-19,1,3,1,-55,1,-80,1,-52,1,-39,1,-28,1,-32,1
661,-21,1,-9,1,12,1,15,1,-17,1,1,1,-49,1,-75,1,-50,1,-38,1,-28,1,-32,1
662,-18,1,-10,1,8,1,14,1,-13,1,-1,1,-41,1,-67,1,-46,1,-35,1,-26,1,-31,1
663,-14,1,-11,1,3,1,12,1,-9,1,-4,1,-34,1,-58,1,-41,1,-31,1,-24,1,-30,1
664,-11,1,-12,1,-1,1,11,1,-5,1,-7,1,-28,1,-50,1,-36,1,-27,1,-21,1,-29,1
665,-7,1,-12,1,-5,1,9,1,-1,1,-9,1,-24,1,-43,1,-32,1,-23,1,-19,1,-27,1
666,-3,1,-11,1,-8,1,7,1,2,1,-10,1,-20,1,-39,1,-27,1,-19,1,-17,1,-25,1
667,-2,1,-10,1,-8,1,6,1,3,1,-9,1,-16,1,-35,1,-24,1,-18,1,-16,1,-25,1
668,-2,1,-9,1,-7,1,5,1,2,1,-8,1,-12,1,-33,1,-21,1,-16,1,-14,1,-24,1
669,-2,1,-8,1,-6,1,5,1,2,1,-7,1,-8,1,-31,1,-18,1,-14,1,-13,1,-22,1
670,-1,1,-7,1,-6,1,4,1,2,1,-7,1,-4,1,-29,1,-16,1,-13,1,-12,1,-22,1
671,-1,1,-7,1,-6,1,4,1,2,1,-7,1,-1,1,-27,1,-15,1,-13,1,-12,1,-23,1
672,0,1,-8,1,-8,1,4,1,4,1,-8,1,0,1,-25,1,-15,1,-13,1,-12,1,-24,1
673,1,1,-9,1,-10,1,4,1,5,1,-9,1,1,1,-24,1,-16,1,-13,1,-13,1,-24,1
674,2,1,-9,1,-11,1,3,1,6,1,-10,1,1,1,-22,1,-15,1,-12,1,-14,1,-24,1
675,4,1,-8,1,-12,1,2,1,8,1,-10,1,2,1,-22,1,-15,1,-13,1,-14,1,-24,1
676,3,1,-9,1,-12,1,3,1,7,1,-10,1,1,1,-22,1,-15,1,-13,1,-14,1,-25,1
677,3,1,-9,1,-12,1,3,1,7,1,-10,1,1,1,-22,1,-14,1,-13,1,-14,1,-25,1
678,3,1,-9,1,-12,1,3,1,7,1,-10,1,1,1,-22,1,-14,1,-13,1,-13,1,-26,1
679,3,1,-9,1,-12,1,3,1,7,1,-10,1,2,1,-22,1,-13,1,-13,1,-12,1,-26,1
680,4,1,-8,1,-12,1,2,1,8,1,-10,1,2,1,-22,1,-13,1,-14,1,-12,1,-27,1
681,4,1,-8,1,-12,1,2,1,8,1,-10,1,3,1,-22,1,-13,1,-14,1,-12,1,-26,1
682,4,1,-9,1,-13,1,2,1,8,1,-11,1,3,1,-22,1,-13,1,-14,1,-12,1,-26,1
683,4,1,-9,1,-13,1,2,1,8,1,-11,1,3,1,-22,1,-13,1,-14,1,-13,1,-27,1
684,4,1,-9,1,-13,1,2,1,8,1,-11,1,3,1,-21,1,-13,1,-14,1,-13,1,-27,1
685,4,1,-10,1,-14,1,3,1,9,1,-12,1,3,1,-20,1,-14,1,-14,1,-13,1,-27,1
686,4,1,-9,1,-13,1,2,1,8,1,-11,1,3,1,-18,1,-13,1,-13,1,-13,1,-27,1
687,4,1,-9,1,-13,1,2,1,8,1,-11,1,3,1,-17,1,-12,1,-13,1,-13,1,-28,1
688,4,1,-8,1,-12,1,2,1,8,1,-10,1,3,1,-16,1,-12,1,-12,1,-13,1,-28,1
689,4,1,-7,1,-11,1,1,1,7,1,-9,1,4,1,-16,1,-11,1,-12,1,-12,1,-27,1
690,5,1,-7,1,-12,1,1,1,8,1,-9,1,4,1,-16,1,-11,1,-12,1,-12,1,-27,1
691,5,1,-7,1,-12,1,1,1,8,1,-9,1,4,1,-15,1,-10,1,-12,1,-12,1,-27,1
692,6,1,-7,1,-13,1,0,1,9,1,-10,1,4,1,-15,1,-10,1,-12,1,-11,1,-27,1
693,6,1,-7,1,-13,1,0,1,9,1,-10,1,4,1,-14,1,-10,1,-12,1,-11,1,-26,1
694,7,1,-8,1,-15,1,0,1,11,1,-11,1,4,1,-13,1,-9,1,-12,1,-10,1,-25,1
695,7,1,-7,1,-14,1,0,1,10,1,-10,1,4,1,-13,1,-8,1,-12,1,-10,1,-25,1
696,7,1,-7,1,-14,1,0,1,10,1,-10,1,4,1,-12,1,-7,1,-12,1,-9,1,-24,1
697,7,1,-7,1,-14,1,0,1,10,1,-10,1,4,1,-12,1,-6,1,-11,1,-8,1,-24,1
698,8,1,-6,1,-14,1,-1,1,11,1,-10,1,4,1,-11,1,-6,1,-10,1,-7,1,-23,1
699,9,1,-5,1,-14,1,-2,1,11,1,-9,1,4,1,-11,1,-6,1,-9,1,-8,1,-23,1
700,8,1,-5,1,-13,1,-1,1,10,1,-9,1,4,1,-10,1,-6,1,-9,1,-8,1,-23,1
701,9,1,-4,1,-13,1,-2,1,11,1,-8,1,4,1,-10,1,-5,1,-9,1,-8,1,-22,1
702,8,1,-4,1,-12,1,-2,1,10,1,-8,1,4,1,-10,1,-5,1,-9,1,-8,1,-21,1
703,8,1,-4,1,-12,1,-2,1,10,1,-8,1,4,1,-9,1,-5,1,-8,1,-9,1,-21,1
704,8,1,-4,1,-12,1,-2,1,10,1,-8,1,4,1,-8,1,-5,1,-8,1,-9,1,-21,1
705,8,1,-4,1,-12,1,-2,1,10,1,-8,1,4,1,-8,1,-6,1,-7,1,-9,1,-21,1
706,8,1,-4,1,-12,1,-2,1,10,1,-8,1,5,1,-6,1,-5,1,-6,1,-8,1,-20,1
707,9,1,-4,1,-13,1,-2,1,11,1,-8,1,5,1,-6,1,-5,1,-6,1,-8,1,-19,1
708,10,1,-4,1,-14,1,-3,1,12,1,-9,1,5,1,-5,1,-4,1,-4,1,-8,1,-19,1
709,10,1,-4,1,-14,1,-3,1,12,1,-9,1,5,1,-5,1,-4,1,-4,1,-8,1,-19,1
710,10,1,-4,1,-14,1,-3,1,12,1,-9,1,5,1,-4,1,-4,1,-3,1,-8,1,-20,1
711,10,1,-4,1,-14,1,-3,1,12,1,-9,1,5,1,-4,1,-3,1,-3,1,-7,1,-19,1
712,10,1,-4,1,-14,1,-3,1,12,1,-9,1,5,1,-3,1,-3,1,-3,1,-6,1,-19,1
713,10,1,-2,1,-12,1,-4,1,11,1,-7,1,6,1,-3,1,-2,1,-3,1,-5,1,-19,1
714,12,1,-1,1,-13,1,-5,1,12,1,-7,1,7,1,-2,1,-2,1,-2,1,-5,1,-19,1
715,12,1,-1,1,-13,1,-5,1,12,1,-7,1,7,1,-1,1,-1,1,-2,1,-4,1,-18,1
716,13,1,-1,1,-14,1,-6,1,13,1,-7,1,7,1,-1,1,0,1,-1,1,-3,1,-17,1
717,13,1,0,1,-13,1,-6,1,13,1,-6,1,7,1,0,1,1,1,-1,1,-3,1,-16,1
718,13,1,-1,1,-14,1,-6,1,13,1,-7,1,7,1,0,1,2,1,0,1,-2,1,-16,1
719,13,1,-1,1,-14,1,-6,1,13,1,-7,1,8,1,1,1,3,1,1,1,-1,1,-16,1
720,13,1,0,1,-13,1,-6,1,13,1,-6,1,8,1,2,1,3,1,1,1,-1,1,-15,1
721,13,1,0,1,-13,1,-6,1,13,1,-6,1,8,1,2,1,4,1,2,1,0,1,-15,1
722,13,1,0,1,-13,1,-6,1,13,1,-6,1,8,1,3,1,4,1,2,1,0,1,-15,1
723,14,1,1,1,-13,1,-7,1,14,1,-6,1,9,1,3,1,4,1,2,1,0,1,-15,1
724,14,1,2,1,-12,1,-8,1,13,1,-5,1,9,1,4,1,5,1,3,1,1,1,-13,1
725,14,1,2,1,-12,1,-8,1,13,1,-5,1,9,1,5,1,7,1,4,1,3,1,-12,1
726,14,1,3,1,-11,1,-8,1,13,1,-4,1,9,1,6,1,8,1,5,1,4,1,-11,1
727,14,1,3,1,-11,1,-8,1,13,1,-4,1,9,1,7,1,10,1,6,1,4,1,-11,1
728,14,1,3,1,-11,1,-8,1,13,1,-4,1,8,1,8,1,10,1,6,1,5,1,-11,1
729,15,1,4,1,-11,1,-9,1,13,1,-3,1,8,1,9,1,11,1,6,1,5,1,-10,1
730,15,1,6,1,-9,1,-10,1,12,1,-1,1,8,1,9,1,12,1,6,1,6,1,-9,1
731,16,1,6,1,-10,1,-11,1,13,1,-2,1,9,1,11,1,14,1,7,1,7,1,-9,1
732,16,1,6,1,-10,1,-11,1,13,1,-2,1,9,1,11,1,14,1,8,1,7,1,-9,1
733,18,1,8,1,-10,1,-13,1,14,1,-1,1,10,1,12,1,15,1,9,1,8,1,-8,1
734,18,1,8,1,-10,1,-13,1,14,1,-1,1,10,1,12,1,16,1,10,1,9,1,-7,1
735,18,1,9,1,-9,1,-13,1,14,1,0,1,10,1,13,1,17,1,11,1,9,1,-6,1
736,19,1,10,1,-9,1,-14,1,14,1,1,1,10,1,14,1,18,1,12,1,10,1,-5,1
737,19,1,10,1,-9,1,-14,1,14,1,1,1,11,1,15,1,19,1,14,1,11,1,-5,1
738,20,1,10,1,-10,1,-15,1,15,1,0,1,12,1,17,1,21,1,14,1,12,1,-3,1
739,21,1,11,1,-10,1,-16,1,16,1,1,1,12,1,19,1,22,1,15,1,14,1,-2,1
740,21,1,11,1,-10,1,-16,1,16,1,1,1,12,1,20,1,23,1,17,1,15,1,-1,1
741,22,1,12,1,-10,1,-17,1,16,1,1,1,12,1,22,1,24,1,18,1,16,1,-1,1
742,23,1,14,1,-9,1,-18,1,16,1,3,1,13,1,23,1,25,1,19,1,17,1,0,1
743,23,1,15,1,-8,1,-19,1,16,1,4,1,13,1,25,1,26,1,20,1,19,1,1,1
744,25,1,16,1,-9,1,-20,1,17,1,4,1,14,1,27,1,27,1,21,1,20,1,3,1
745,25,1,17,1,-8,1,-21,1,17,1,5,1,14,1,29,1,28,1,22,1,22,1,4,1
746,25,1,17,1,-8,1,-21,1,17,1,5,1,15,1,32,1,30,1,24,1,23,1,6,1
747,27,1,18,1,-9,1,-22,1,18,1,5,1,16,1,34,1,32,1,26,1,24,1,8,1
748,28,1,19,1,-9,1,-23,1,19,1,5,1,15,1,36,1,34,1,28,1,26,1,9,1
749,28,1,19,1,-9,1,-23,1,19,1,5,1,15,1,38,1,36,1,30,1,28,1,11,1
750,29,1,20,1,-9,1,-24,1,19,1,6,1,15,1,40,1,39,1,32,1,30,1,12,1
751,31,1,22,1,-9,1,-26,1,20,1,7,1,16,1,43,1,41,1,34,1,32,1,14,1
752,32,1,23,1,-9,1,-27,1,21,1,7,1,16,1,46,1,45,1,36,1,34,1,17,1
753,33,1,24,1,-9,1,-28,1,21,1,8,1,16,1,49,1,47,1,38,1,36,1,18,1
754,34,1,25,1,-9,1,-29,1,22,1,8,1,17,1,51,1,50,1,41,1,38,1,19,1
755,35,1,27,1,-8,1,-31,1,22,1,10,1,17,1,54,1,54,1,43,1,40,1,21,1
756,36,1,27,1,-9,1,-31,1,23,1,9,1,18,1,56,1,57,1,46,1,42,1,24,1
757,36,1,28,1,-8,1,-32,1,22,1,10,1,18,1,58,1,59,1,48,1,44,1,26,1
758,38,1,30,1,-8,1,-34,1,23,1,11,1,18,1,61,1,62,1,51,1,47,1,28,1
759,41,1,31,1,-10,1,-36,1,26,1,11,1,19,1,64,1,65,1,54,1,50,1,30,1
760,43,1,32,1,-11,1,-37,1,27,1,11,1,19,1,66,1,67,1,56,1,51,1,31,1
761,44,1,34,1,-10,1,-39,1,27,1,12,1,19,1,69,1,70,1,59,1,53,1,33,1
762,46,1,35,1,-11,1,-40,1,29,1,12,1,19,1,71,1,74,1,61,1,55,1,35,1
763,48,1,38,1,-10,1,-43,1,29,1,14,1,19,1,74,1,77,1,63,1,57,1,36,1
764,49,1,40,1,-9,1,-44,1,29,1,16,1,18,1,77,1,80,1,66,1,59,1,38,1
765,51,1,42,1,-9,1,-46,1,30,1,17,1,18,1,79,1,82,1,68,1,61,1,40,1
766,53,1,44,1,-9,1,-48,1,31,1,18,1,18,1,82,1,85,1,71,1,64,1,43,1
767,55,1,46,1,-9,1,-50,1,32,1,19,1,18,1,85,1,88,1,74,1,67,1,45,1
768,56,1,46,1,-10,1,-51,1,33,1,18,1,18,1,89,1,91,1,77,1,69,1,48,1
769,57,1,47,1,-10,1,-52,1,34,1,19,1,19,1,92,1,94,1,80,1,72,1,50,1
770,59,1,49,1,-10,1,-54,1,35,1,20,1,19,1,95,1,97,1,82,1,74,1,53,1
771,60,1,51,1,-9,1,-55,1,35,1,21,1,18,1,97,1,100,1,85,1,77,1,56,1
772,61,1,52,1,-9,1,-56,1,35,1,22,1,18,1,100,1,102,1,86,1,79,1,57,1
773,63,1,54,1,-9,1,-58,1,36,1,23,1,17,1,102,1,105,1,88,1,82,1,58,1
774,63,1,54,1,-9,1,-58,1,36,1,23,1,17,1,105,1,107,1,89,1,85,1,60,1
775,65,1,55,1,-10,1,-60,1,38,1,23,1,16,1,107,1,109,1,91,1,87,1,62,1
776,66,1,56,1,-10,1,-61,1,38,1,23,1,18,1,108,1,111,1,93,1,89,1,63,1
777,67,1,57,1,-10,1,-62,1,39,1,24,1,18,1,110,1,113,1,95,1,90,1,65,1
778,69,1,58,1,-11,1,-63,1,40,1,24,1,17,1,111,1,114,1,97,1,91,1,66,1
779,70,1,60,1,-10,1,-65,1,40,1,25,1,16,1,113,1,116,1,99,1,92,1,66,1
780,70,1,60,1,-10,1,-65,1,40,1,25,1,15,1,114,1,117,1,100,1,92,1,65,1
781,70,1,60,1,-10,1,-65,1,40,1,25,1,15,1,115,1,119,1,101,1,93,1,65,1
782,71,1,61,1,-10,1,-66,1,41,1,26,1,14,1,116,1,120,1,102,1,93,1,65,1
783,71,1,61,1,-10,1,-66,1,41,1,26,1,14,1,117,1,121,1,103,1,94,1,66,1
784,71,1,60,1,-11,1,-65,1,41,1,25,1,12,1,116,1,120,1,104,1,94,1,65,1
785,70,1,60,1,-10,1,-65,1,40,1,25,1,11,1,114,1,119,1,103,1,93,1,65,1
786,69,1,59,1,-10,1,-64,1,40,1,25,1,11,1,112,1,117,1,102,1,92,1,64,1
787,68,1,58,1,-10,1,-63,1,39,1,24,1,10,1,110,1,116,1,101,1,90,1,62,1
788,67,1,57,1,-10,1,-62,1,39,1,24,1,10,1,108,1,113,1,98,1,87,1,60,1
789,66,1,55,1,-11,1,-60,1,39,1,22,1,10,1,105,1,111,1,96,1,85,1,58,1
790,63,1,52,1,-11,1,-57,1,37,1,21,1,10,1,103,1,107,1,93,1,82,1,57,1
791,61,1,50,1,-11,1,-55,1,36,1,20,1,10,1,101,1,102,1,89,1,79,1,54,1
792,59,1,48,1,-11,1,-53,1,35,1,19,1,9,1,96,1,98,1,84,1,75,1,50,1
793,57,1,46,1,-11,1,-51,1,34,1,18,1,9,1,92,1,92,1,80,1,71,1,47,1
794,55,1,44,1,-11,1,-49,1,33,1,17,1,8,1,87,1,87,1,75,1,66,1,44,1
795,53,1,42,1,-11,1,-47,1,32,1,16,1,7,1,81,1,83,1,70,1,62,1,41,1
796,50,1,39,1,-11,1,-44,1,31,1,14,1,6,1,75,1,78,1,66,1,57,1,37,1
797,47,1,37,1,-10,1,-42,1,29,1,14,1,6,1,69,1,74,1,61,1,53,1,33,1
798,45,1,35,1,-10,1,-40,1,28,1,13,1,6,1,65,1,70,1,56,1,49,1,30,1
799,42,1,31,1,-11,1,-36,1,27,1,10,1,6,1,60,1,65,1,51,1,45,1,27,1
800,39,1,28,1,-11,1,-33,1,25,1,9,1,6,1,55,1,60,1,46,1,40,1,24,1
801,36,1,25,1,-11,1,-30,1,24,1,7,1,5,1,50,1,54,1,41,1,36,1,20,1
802,33,1,22,1,-11,1,-27,1,22,1,6,1,4,1,45,1,48,1,36,1,32,1,16,1
803,31,1,19,1,-12,1,-25,1,22,1,4,1,3,1,39,1,42,1,31,1,28,1,13,1
804,29,1,16,1,-13,1,-22,1,21,1,2,1,2,1,34,1,37,1,26,1,24,1,9,1
805,28,1,14,1,-14,1,-21,1,21,1,0,1,1,1,28,1,32,1,22,1,20,1,6,1
806,26,1,12,1,-14,1,-19,1,20,1,-1,1,1,1,24,1,28,1,19,1,17,1,3,1
807,24,1,10,1,-14,1,-17,1,19,1,-2,1,0,1,19,1,24,1,15,1,14,1,0,1
808,21,1,7,1,-14,1,-14,1,18,1,-3,1,-1,1,15,1,21,1,12,1,10,1,-2,1
809,20,1,6,1,-14,1,-13,1,17,1,-4,1,-2,1,12,1,17,1,9,1,7,1,-4,1
810,18,1,5,1,-13,1,-11,1,16,1,-4,1,-2,1,9,1,14,1,5,1,4,1,-6,1
811,15,1,3,1,-12,1,-9,1,14,1,-4,1,-2,1,6,1,11,1,3,1,2,1,-8,1
812,14,1,2,1,-12,1,-8,1,13,1,-5,1,-3,1,3,1,8,1,0,1,0,1,-11,1
813,12,1,0,1,-12,1,-6,1,12,1,-6,1,-3,1,0,1,4,1,-3,1,-3,1,-14,1
814,11,1,-1,1,-12,1,-5,1,11,1,-6,1,-4,1,-3,1,2,1,-5,1,-5,1,-16,1
815,10,1,-3,1,-13,1,-3,1,11,1,-8,1,-5,1,-6,1,0,1,-8,1,-8,1,-18,1
816,10,1,-3,1,-13,1,-3,1,11,1,-8,1,-5,1,-9,1,-1,1,-10,1,-10,1,-19,1
817,9,1,-4,1,-13,1,-2,1,11,1,-8,1,-6,1,-11,1,-3,1,-12,1,-11,1,-20,1
818,9,1,-5,1,-14,1,-2,1,11,1,-9,1,-6,1,-12,1,-4,1,-13,1,-13,1,-21,1
819,7,1,-6,1,-13,1,0,1,10,1,-9,1,-7,1,-14,1,-6,1,-15,1,-14,1,-23,1
820,6,1,-7,1,-13,1,0,1,9,1,-10,1,-7,1,-16,1,-8,1,-16,1,-16,1,-24,1
821,4,1,-8,1,-12,1,2,1,8,1,-10,1,-7,1,-17,1,-10,1,-19,1,-18,1,-25,1
822,4,1,-9,1,-13,1,2,1,8,1,-11,1,-7,1,-19,1,-12,1,-21,1,-19,1,-26,1
823,3,1,-9,1,-12,1,3,1,7,1,-10,1,-7,1,-20,1,-13,1,-22,1,-20,1,-27,1
824,3,1,-10,1,-13,1,3,1,8,1,-11,1,-8,1,-21,1,-14,1,-23,1,-20,1,-28,1
825,3,1,-10,1,-13,1,3,1,8,1,-11,1,-8,1,-22,1,-15,1,-24,1,-21,1,-29,1
826,3,1,-12,1,-15,1,4,1,9,1,-13,1,-9,1,-23,1,-15,1,-25,1,-21,1,-30,1
827,2,1,-13,1,-15,1,5,1,8,1,-14,1,-9,1,-23,1,-14,1,-25,1,-21,1,-30,1
828,2,1,-13,1,-15,1,5,1,8,1,-14,1,-10,1,-23,1,-14,1,-26,1,-22,1,-30,1
829,2,1,-13,1,-15,1,5,1,8,1,-14,1,-10,1,-24,1,-15,1,-26,1,-22,1,-31,1
830,2,1,-14,1,-16,1,6,1,9,1,-15,1,-11,1,-25,1,-15,1,-26,1,-23,1,-31,1
831,2,1,-14,1,-16,1,6,1,9,1,-15,1,-12,1,-26,1,-17,1,-27,1,-24,1,-32,1
832,2,1,-14,1,-16,1,6,1,9,1,-15,1,-12,1,-27,1,-17,1,-27,1,-24,1,-32,1
833,2,1,-14,1,-16,1,6,1,9,1,-15,1,-12,1,-27,1,-17,1,-27,1,-24,1,-32,1
834,1,1,-14,1,-15,1,6,1,8,1,-14,1,-12,1,-28,1,-18,1,-28,1,-24,1,-32,1
835,1,1,-14,1,-15,1,6,1,8,1,-14,1,-11,1,-29,1,-18,1,-28,1,-24,1,-33,1
836,1,1,-14,1,-15,1,6,1,8,1,-14,1,-11,1,-30,1,-19,1,-28,1,-23,1,-33,1
837,1,1,-14,1,-15,1,6,1,8,1,-14,1,-11,1,-30,1,-20,1,-28,1,-24,1,-33,1
838,1,1,-14,1,-15,1,6,1,8,1,-14,1,-11,1,-31,1,-20,1,-29,1,-24,1,-33,1
839,0,1,-15,1,-15,1,7,1,7,1,-15,1,-12,1,-32,1,-20,1,-28,1,-23,1,-33,1
840,0,1,-14,1,-14,1,7,1,7,1,-14,1,-12,1,-32,1,-20,1,-28,1,-24,1,-34,1
841,-1,1,-14,1,-13,1,7,1,6,1,-14,1,-12,1,-32,1,-21,1,-29,1,-24,1,-34,1
842,-1,1,-14,1,-13,1,7,1,6,1,-14,1,-13,1,-32,1,-21,1,-29,1,-24,1,-34,1
843,-1,1,-14,1,-13,1,7,1,6,1,-14,1,-13,1,-32,1,-22,1,-30,1,-24,1,-33,1
844,-1,1,-15,1,-14,1,8,1,6,1,-15,1,-13,1,-31,1,-22,1,-30,1,-25,1,-34,1
845,-2,1,-16,1,-14,1,9,1,6,1,-15,1,-13,1,-31,1,-22,1,-31,1,-25,1,-34,1
846,-1,1,-15,1,-14,1,8,1,6,1,-15,1,-12,1,-30,1,-22,1,-31,1,-25,1,-34,1
847,0,1,-15,1,-15,1,7,1,7,1,-15,1,-11,1,-30,1,-22,1,-31,1,-26,1,-34,1
848,0,1,-15,1,-15,1,7,1,7,1,-15,1,-11,1,-30,1,-22,1,-30,1,-26,1,-34,1
849,-1,1,-15,1,-14,1,8,1,6,1,-15,1,-11,1,-30,1,-22,1,-30,1,-26,1,-34,1
850,-1,1,-15,1,-14,1,8,1,6,1,-15,1,-11,1,-30,1,-22,1,-30,1,-26,1,-34,1
851,-1,1,-15,1,-14,1,8,1,6,1,-15,1,-11,1,-31,1,-22,1,-29,1,-26,1,-34,1
852,-1,1,-16,1,-15,1,8,1,7,1,-16,1,-12,1,-31,1,-23,1,-29,1,-26,1,-35,1
853,-1,1,-15,1,-14,1,8,1,6,1,-15,1,-11,1,-30,1,-23,1,-29,1,-25,1,-34,1
854,-1,1,-15,1,-14,1,8,1,6,1,-15,1,-11,1,-30,1,-23,1,-29,1,-24,1,-34,1
855,-1,1,-16,1,-15,1,8,1,7,1,-16,1,-11,1,-29,1,-23,1,-29,1,-24,1,-33,1
856,-1,1,-15,1,-14,1,8,1,6,1,-15,1,-10,1,-29,1,-22,1,-29,1,-23,1,-33,1
857,-1,1,-15,1,-14,1,8,1,6,1,-15,1,-10,1,-28,1,-22,1,-28,1,-24,1,-32,1
858,-1,1,-16,1,-15,1,8,1,7,1,-16,1,-10,1,-29,1,-22,1,-28,1,-24,1,-32,1
859,-1,1,-15,1,-14,1,8,1,6,1,-15,1,-11,1,-29,1,-22,1,-29,1,-24,1,-32,1
860,0,1,-15,1,-15,1,7,1,7,1,-15,1,-11,1,-29,1,-23,1,-29,1,-24,1,-32,1
861,0,1,-14,1,-14,1,7,1,7,1,-14,1,-12,1,-29,1,-22,1,-29,1,-24,1,-31,1
862,0,1,-13,1,-13,1,6,1,6,1,-13,1,-13,1,-29,1,-22,1,-29,1,-24,1,-30,1
863,1,1,-12,1,-13,1,5,1,7,1,-12,1,-13,1,-29,1,-21,1,-29,1,-24,1,-30,1
864,2,1,-12,1,-14,1,5,1,8,1,-13,1,-13,1,-28,1,-21,1,-28,1,-23,1,-30,1
865,2,1,-11,1,-13,1,4,1,7,1,-12,1,-12,1,-28,1,-21,1,-28,1,-23,1,-30,1
866,1,1,-12,1,-13,1,5,1,7,1,-12,1,-12,1,-28,1,-22,1,-28,1,-22,1,-31,1
867,1,1,-13,1,-14,1,6,1,7,1,-13,1,-12,1,-28,1,-23,1,-28,1,-22,1,-30,1
868,3,1,-12,1,-15,1,4,1,9,1,-13,1,-12,1,-27,1,-23,1,-27,1,-21,1,-29,1
869,2,1,-12,1,-14,1,5,1,8,1,-13,1,-12,1,-28,1,-23,1,-27,1,-21,1,-29,1
870,2,1,-13,1,-15,1,5,1,8,1,-14,1,-12,1,-28,1,-23,1,-27,1,-22,1,-29,1
871,2,1,-13,1,-15,1,5,1,8,1,-14,1,-13,1,-29,1,-22,1,-28,1,-22,1,-30,1
872,2,1,-12,1,-14,1,5,1,8,1,-13,1,-12,1,-29,1,-21,1,-28,1,-23,1,-31,1
873,2,1,-12,1,-14,1,5,1,8,1,-13,1,-12,1,-29,1,-21,1,-28,1,-23,1,-30,1
874,2,1,-12,1,-14,1,5,1,8,1,-13,1,-12,1,-29,1,-21,1,-28,1,-23,1,-30,1
875,1,1,-12,1,-13,1,5,1,7,1,-12,1,-11,1,-28,1,-22,1,-28,1,-22,1,-31,1
876,1,1,-12,1,-13,1,5,1,7,1,-12,1,-11,1,-28,1,-22,1,-27,1,-21,1,-30,1
877,1,1,-12,1,-13,1,5,1,7,1,-12,1,-11,1,-28,1,-22,1,-27,1,-20,1,-30,1
878,1,1,-13,1,-14,1,6,1,7,1,-13,1,-11,1,-27,1,-22,1,-26,1,-19,1,-30,1
879,1,1,-14,1,-15,1,6,1,8,1,-14,1,-11,1,-27,1,-22,1,-26,1,-19,1,-30,1
880,1,1,-13,1,-14,1,6,1,7,1,-13,1,-11,1,-27,1,-22,1,-26,1,-19,1,-28,1
881,2,1,-12,1,-14,1,5,1,8,1,-13,1,-11,1,-27,1,-22,1,-25,1,-20,1,-28,1
882,2,1,-12,1,-14,1,5,1,8,1,-13,1,-11,1,-27,1,-22,1,-24,1,-20,1,-28,1
883,2,1,-11,1,-13,1,4,1,7,1,-12,1,-11,1,-26,1,-22,1,-24,1,-21,1,-28,1
884,3,1,-10,1,-13,1,3,1,8,1,-11,1,-10,1,-26,1,-21,1,-23,1,-20,1,-28,1
885,3,1,-10,1,-13,1,3,1,8,1,-11,1,-10,1,-26,1,-21,1,-23,1,-19,1,-27,1
886,3,1,-11,1,-14,1,4,1,8,1,-12,1,-10,1,-26,1,-22,1,-23,1,-19,1,-27,1
887,2,1,-11,1,-13,1,4,1,7,1,-12,1,-11,1,-26,1,-23,1,-23,1,-18,1,-27,1
888,2,1,-12,1,-14,1,5,1,8,1,-13,1,-11,1,-27,1,-23,1,-24,1,-18,1,-28,1
889,1,1,-13,1,-14,1,6,1,7,1,-13,1,-11,1,-27,1,-24,1,-25,1,-18,1,-28,1
890,1,1,-12,1,-13,1,5,1,7,1,-12,1,-12,1,-27,1,-25,1,-25,1,-19,1,-29,1
891,2,1,-11,1,-13,1,4,1,7,1,-12,1,-12,1,-27,1,-24,1,-24,1,-19,1,-29,1
892,3,1,-11,1,-14,1,4,1,8,1,-12,1,-12,1,-27,1,-24,1,-24,1,-20,1,-29,1
893,3,1,-11,1,-14,1,4,1,8,1,-12,1,-13,1,-27,1,-24,1,-25,1,-20,1,-28,1
894,3,1,-11,1,-14,1,4,1,8,1,-12,1,-13,1,-27,1,-24,1,-24,1,-20,1,-28,1
895,3,1,-11,1,-14,1,4,1,8,1,-12,1,-13,1,-27,1,-24,1,-23,1,-20,1,-28,1
896,4,1,-11,1,-15,1,3,1,9,1,-13,1,-12,1,-27,1,-23,1,-22,1,-20,1,-29,1
897,3,1,-11,1,-14,1,4,1,8,1,-12,1,-12,1,-27,1,-23,1,-22,1,-20,1,-29,1
898,3,1,-11,1,-14,1,4,1,8,1,-12,1,-12,1,-27,1,-23,1,-22,1,-20,1,-29,1
899,3,1,-11,1,-14,1,4,1,8,1,-12,1,-12,1,-28,1,-24,1,-22,1,-20,1,-30,1
900,3,1,-11,1,-14,1,4,1,8,1,-12,1,-12,1,-28,1,-25,1,-23,1,-20,1,-31,1
901,2,1,-11,1,-13,1,4,1,7,1,-12,1,-12,1,-27,1,-25,1,-23,1,-21,1,-31,1
902,3,1,-10,1,-13,1,3,1,8,1,-11,1,-11,1,-27,1,-25,1,-23,1,-21,1,-31,1
903,2,1,-10,1,-12,1,4,1,7,1,-11,1,-11,1,-27,1,-25,1,-23,1,-21,1,-31,1
904,2,1,-11,1,-13,1,4,1,7,1,-12,1,-11,1,-27,1,-25,1,-23,1,-21,1,-31,1
905,1,1,-11,1,-12,1,5,1,6,1,-11,1,-11,1,-28,1,-25,1,-23,1,-21,1,-32,1
906,1,1,-11,1,-12,1,5,1,6,1,-11,1,-11,1,-28,1,-25,1,-22,1,-21,1,-31,1
907,3,1,-10,1,-13,1,3,1,8,1,-11,1,-11,1,-28,1,-25,1,-22,1,-21,1,-31,1
908,4,1,-10,1,-14,1,3,1,9,1,-12,1,-11,1,-28,1,-25,1,-22,1,-21,1,-32,1
909,4,1,-10,1,-14,1,3,1,9,1,-12,1,-12,1,-29,1,-25,1,-23,1,-22,1,-32,1
910,4,1,-10,1,-14,1,3,1,9,1,-12,1,-12,1,-29,1,-24,1,-23,1,-22,1,-33,1
911,4,1,-10,1,-14,1,3,1,9,1,-12,1,-12,1,-29,1,-24,1,-23,1,-22,1,-33,1
912,4,1,-10,1,-14,1,3,1,9,1,-12,1,-13,1,-28,1,-24,1,-23,1,-22,1,-34,1
913,3,1,-11,1,-14,1,4,1,8,1,-12,1,-13,1,-28,1,-24,1,-24,1,-22,1,-34,1
914,3,1,-11,1,-14,1,4,1,8,1,-12,1,-13,1,-28,1,-23,1,-23,1,-22,1,-34,1
915,3,1,-11,1,-14,1,4,1,8,1,-12,1,-12,1,-28,1,-22,1,-23,1,-21,1,-35,1
916,3,1,-11,1,-14,1,4,1,8,1,-12,1,-12,1,-28,1,-22,1,-23,1,-21,1,-35,1
917,3,1,-11,1,-14,1,4,1,8,1,-12,1,-12,1,-29,1,-22,1,-23,1,-22,1,-36,1
918,2,1,-12,1,-14,1,5,1,8,1,-13,1,-12,1,-30,1,-23,1,-23,1,-23,1,-37,1
919,2,1,-13,1,-15,1,5,1,8,1,-14,1,-12,1,-31,1,-24,1,-24,1,-23,1,-38,1
920,2,1,-13,1,-15,1,5,1,8,1,-14,1,-13,1,-32,1,-25,1,-24,1,-23,1,-37,1
921,1,1,-13,1,-14,1,6,1,7,1,-13,1,-13,1,-33,1,-27,1,-25,1,-23,1,-38,1
922,1,1,-13,1,-14,1,6,1,7,1,-13,1,-13,1,-33,1,-27,1,-24,1,-23,1,-39,1
923,2,1,-12,1,-14,1,5,1,8,1,-13,1,-12,1,-33,1,-28,1,-24,1,-23,1,-39,1
924,1,1,-12,1,-13,1,5,1,7,1,-12,1,-13,1,-33,1,-29,1,-25,1,-23,1,-40,1
925,1,1,-13,1,-14,1,6,1,7,1,-13,1,-13,1,-33,1,-29,1,-25,1,-23,1,-40,1
926,2,1,-12,1,-14,1,5,1,8,1,-13,1,-12,1,-33,1,-29,1,-25,1,-24,1,-40,1
927,2,1,-12,1,-14,1,5,1,8,1,-13,1,-12,1,-33,1,-30,1,-25,1,-24,1,-39,1
928,1,1,-13,1,-14,1,6,1,7,1,-13,1,-12,1,-34,1,-30,1,-26,1,-24,1,-39,1
929,1,1,-14,1,-15,1,6,1,8,1,-14,1,-12,1,-34,1,-31,1,-26,1,-24,1,-39,1
930,1,1,-14,1,-15,1,6,1,8,1,-14,1,-13,1,-35,1,-31,1,-26,1,-24,1,-39,1
931,2,1,-14,1,-16,1,6,1,9,1,-15,1,-13,1,-35,1,-32,1,-25,1,-23,1,-39,1
932,2,1,-14,1,-16,1,6,1,9,1,-15,1,-13,1,-35,1,-32,1,-25,1,-23,1,-39,1
933,2,1,-14,1,-16,1,6,1,9,1,-15,1,-14,1,-36,1,-32,1,-25,1,-22,1,-40,1
934,2,1,-14,1,-16,1,6,1,9,1,-15,1,-13,1,-36,1,-32,1,-25,1,-22,1,-40,1
935,2,1,-14,1,-16,1,6,1,9,1,-15,1,-13,1,-36,1,-31,1,-25,1,-23,1,-40,1
936,2,1,-14,1,-16,1,6,1,9,1,-15,1,-13,1,-36,1,-30,1,-26,1,-24,1,-40,1
937,2,1,-14,1,-16,1,6,1,9,1,-15,1,-13,1,-36,1,-30,1,-26,1,-24,1,-40,1
938,2,1,-14,1,-16,1,6,1,9,1,-15,1,-13,1,-36,1,-30,1,-26,1,-25,1,-40,1
939,2,1,-14,1,-16,1,6,1,9,1,-15,1,-14,1,-37,1,-31,1,-27,1,-25,1,-41,1
940,1,1,-15,1,-16,1,7,1,8,1,-15,1,-14,1,-37,1,-31,1,-27,1,-26,1,-43,1
941,1,1,-15,1,-16,1,7,1,8,1,-15,1,-14,1,-38,1,-31,1,-26,1,-26,1,-43,1
942,1,1,-14,1,-15,1,6,1,8,1,-14,1,-14,1,-38,1,-31,1,-26,1,-26,1,-43,1
943,0,1,-14,1,-14,1,7,1,7,1,-14,1,-13,1,-37,1,-32,1,-26,1,-26,1,-43,1
944,0,1,-16,1,-16,1,8,1,8,1,-16,1,-13,1,-37,1,-32,1,-27,1,-26,1,-43,1
945,0,1,-16,1,-16,1,8,1,8,1,-16,1,-12,1,-37,1,-32,1,-27,1,-26,1,-42,1
946,0,1,-16,1,-16,1,8,1,8,1,-16,1,-12,1,-37,1,-32,1,-27,1,-26,1,-41,1
947,0,1,-16,1,-16,1,8,1,8,1,-16,1,-12,1,-36,1,-32,1,-26,1,-26,1,-40,1
948,0,1,-15,1,-15,1,7,1,7,1,-15,1,-13,1,-36,1,-32,1,-27,1,-25,1,-40,1
949,0,1,-15,1,-15,1,7,1,7,1,-15,1,-14,1,-37,1,-33,1,-28,1,-25,1,-40,1
950,-1,1,-15,1,-14,1,8,1,6,1,-15,1,-14,1,-38,1,-34,1,-28,1,-24,1,-40,1
951,-1,1,-14,1,-13,1,7,1,6,1,-14,1,-15,1,-39,1,-34,1,-28,1,-23,1,-41,1
952,-1,1,-14,1,-13,1,7,1,6,1,-14,1,-14,1,-40,1,-34,1,-28,1,-23,1,-41,1
953,-1,1,-16,1,-15,1,8,1,7,1,-16,1,-14,1,-40,1,-34,1,-28,1,-24,1,-43,1
954,-1,1,-16,1,-15,1,8,1,7,1,-16,1,-14,1,-40,1,-34,1,-28,1,-24,1,-44,1
955,-1,1,-17,1,-16,1,9,1,7,1,-17,1,-14,1,-40,1,-35,1,-28,1,-25,1,-44,1
956,-1,1,-18,1,-17,1,9,1,8,1,-18,1,-14,1,-40,1,-35,1,-28,1,-24,1,-44,1
957,0,1,-17,1,-17,1,8,1,8,1,-17,1,-13,1,-40,1,-35,1,-27,1,-24,1,-44,1
958,1,1,-15,1,-16,1,7,1,8,1,-15,1,-12,1,-40,1,-35,1,-27,1,-23,1,-43,1
959,0,1,-16,1,-16,1,8,1,8,1,-16,1,-13,1,-41,1,-34,1,-27,1,-24,1,-44,1
960,-1,1,-15,1,-14,1,8,1,6,1,-15,1,-13,1,-42,1,-34,1,-27,1,-24,1,-44,1
961,-1,1,-14,1,-13,1,7,1,6,1,-14,1,-14,1,-42,1,-34,1,-27,1,-24,1,-44,1
962,-1,1,-14,1,-13,1,7,1,6,1,-14,1,-14,1,-41,1,-34,1,-27,1,-24,1,-44,1
963,-1,1,-14,1,-13,1,7,1,6,1,-14,1,-14,1,-42,1,-34,1,-27,1,-24,1,-44,1
964,0,1,-14,1,-14,1,7,1,7,1,-14,1,-13,1,-42,1,-35,1,-27,1,-24,1,-45,1
965,0,1,-14,1,-14,1,7,1,7,1,-14,1,-13,1,-42,1,-35,1,-27,1,-23,1,-43,1
966,0,1,-15,1,-15,1,7,1,7,1,-15,1,-12,1,-42,1,-35,1,-26,1,-23,1,-43,1
967,0,1,-16,1,-16,1,8,1,8,1,-16,1,-12,1,-42,1,-35,1,-26,1,-23,1,-44,1
968,0,1,-16,1,-16,1,8,1,8,1,-16,1,-12,1,-42,1,-35,1,-26,1,-23,1,-44,1
969,-1,1,-18,1,-17,1,9,1,8,1,-18,1,-12,1,-43,1,-35,1,-27,1,-23,1,-44,1
970,-2,1,-18,1,-16,1,10,1,7,1,-17,1,-12,1,-43,1,-36,1,-28,1,-23,1,-43,1
971,-2,1,-18,1,-16,1,10,1,7,1,-17,1,-12,1,-43,1,-36,1,-27,1,-23,1,-42,1
972,-1,1,-17,1,-16,1,9,1,7,1,-17,1,-12,1,-44,1,-36,1,-27,1,-22,1,-42,1
973,-1,1,-16,1,-15,1,8,1,7,1,-16,1,-12,1,-44,1,-36,1,-27,1,-23,1,-41,1
974,-1,1,-16,1,-15,1,8,1,7,1,-16,1,-12,1,-44,1,-36,1,-26,1,-23,1,-40,1
975,-1,1,-16,1,-15,1,8,1,7,1,-16,1,-11,1,-44,1,-36,1,-26,1,-23,1,-40,1
976,-2,1,-17,1,-15,1,9,1,6,1,-16,1,-11,1,-44,1,-36,1,-25,1,-24,1,-40,1
977,-2,1,-18,1,-16,1,10,1,7,1,-17,1,-11,1,-44,1,-35,1,-25,1,-24,1,-39,1
978,-1,1,-18,1,-17,1,9,1,8,1,-18,1,-12,1,-44,1,-35,1,-25,1,-24,1,-39,1
979,0,1,-17,1,-17,1,8,1,8,1,-17,1,-12,1,-44,1,-35,1,-25,1,-23,1,-39,1
980,0,1,-17,1,-17,1,8,1,8,1,-17,1,-12,1,-44,1,-35,1,-25,1,-23,1,-38,1
981,0,1,-17,1,-17,1,8,1,8,1,-17,1,-12,1,-44,1,-35,1,-25,1,-23,1,-38,1
982,0,1,-16,1,-16,1,8,1,8,1,-16,1,-12,1,-45,1,-35,1,-25,1,-23,1,-38,1
983,0,1,-16,1,-16,1,8,1,8,1,-16,1,-12,1,-45,1,-35,1,-26,1,-23,1,-38,1
984,0,1,-16,1,-16,1,8,1,8,1,-16,1,-12,1,-45,1,-34,1,-26,1,-23,1,-38,1
985,0,1,-16,1,-16,1,8,1,8,1,-16,1,-12,1,-44,1,-34,1,-27,1,-23,1,-38,1
986,0,1,-15,1,-15,1,7,1,7,1,-15,1,-12,1,-42,1,-33,1,-27,1,-22,1,-39,1
987,0,1,-16,1,-16,1,8,1,8,1,-16,1,-12,1,-42,1,-33,1,-28,1,-22,1,-39,1
988,-1,1,-16,1,-15,1,8,1,7,1,-16,1,-12,1,-42,1,-33,1,-28,1,-21,1,-39,1
989,0,1,-16,1,-16,1,8,1,8,1,-16,1,-12,1,-43,1,-32,1,-28,1,-21,1,-38,1
990,0,1,-16,1,-16,1,8,1,8,1,-16,1,-12,1,-42,1,-32,1,-28,1,-20,1,-37,1
991,-1,1,-17,1,-16,1,9,1,7,1,-17,1,-12,1,-42,1,-32,1,-28,1,-20,1,-36,1
992,-2,1,-18,1,-16,1,10,1,7,1,-17,1,-12,1,-41,1,-32,1,-28,1,-20,1,-36,1
993,-1,1,-18,1,-17,1,9,1,8,1,-18,1,-12,1,-41,1,-31,1,-27,1,-20,1,-36,1
994,-1,1,-17,1,-16,1,9,1,7,1,-17,1,-12,1,-41,1,-30,1,-27,1,-20,1,-36,1
995,-1,1,-17,1,-16,1,9,1,7,1,-17,1,-11,1,-40,1,-29,1,-27,1,-20,1,-36,1
996,-1,1,-17,1,-16,1,9,1,7,1,-17,1,-11,1,-39,1,-28,1,-27,1,-20,1,-35,1
997,-2,1,-17,1,-15,1,9,1,6,1,-16,1,-11,1,-39,1,-28,1,-27,1,-20,1,-36,1
998,-2,1,-17,1,-15,1,9,1,6,1,-16,1,-11,1,-40,1,-28,1,-27,1,-20,1,-36,1
999,-2,1,-17,1,-15,1,9,1,6,1,-16,1,-11,1,-40,1,-28,1,-28,1,-21,1,-36,1
1000,-2,1,-17,1,-15,1,9,1,6,1,-16,1,-11,1,-41,1,-29,1,-28,1,-21,1,-35,1
1001,-2,1,-17,1,-15,1,9,1,6,1,-16,1,-11,1,-41,1,-29,1,-28,1,-22,1,-35,1
1002,-1,1,-16,1,-15,1,8,1,7,1,-16,1,-11,1,-41,1,-29,1,-28,1,-22,1,-35,1
1003,-1,1,-16,1,-15,1,8,1,7,1,-16,1,-10,1,-41,1,-30,1,-29,1,-22,1,-36,1
1004,-2,1,-16,1,-14,1,9,1,6,1,-15,1,-10,1,-41,1,-30,1,-29,1,-22,1,-36,1
1005,-3,1,-17,1,-14,1,10,1,5,1,-16,1,-9,1,-41,1,-30,1,-29,1,-21,1,-37,1
1006,-2,1,-17,1,-15,1,9,1,6,1,-16,1,-9,1,-40,1,-30,1,-29,1,-21,1,-37,1
1007,-2,1,-17,1,-15,1,9,1,6,1,-16,1,-9,1,-39,1,-28,1,-28,1,-20,1,-37,1
1008,-2,1,-17,1,-15,1,9,1,6,1,-16,1,-9,1,-39,1,-28,1,-28,1,-19,1,-37,1
1009,-3,1,-19,1,-16,1,11,1,6,1,-18,1,-9,1,-39,1,-28,1,-28,1,-19,1,-36,1
1010,-3,1,-19,1,-16,1,11,1,6,1,-18,1,-10,1,-38,1,-28,1,-28,1,-20,1,-36,1
1011,-2,1,-19,1,-17,1,10,1,7,1,-18,1,-10,1,-37,1,-28,1,-27,1,-19,1,-35,1
1012,-2,1,-19,1,-17,1,10,1,7,1,-18,1,-10,1,-37,1,-28,1,-26,1,-20,1,-35,1
1013,-1,1,-18,1,-17,1,9,1,8,1,-18,1,-11,1,-37,1,-28,1,-26,1,-21,1,-35,1
1014,-1,1,-18,1,-17,1,9,1,8,1,-18,1,-11,1,-37,1,-28,1,-25,1,-21,1,-34,1
1015,-1,1,-18,1,-17,1,9,1,8,1,-18,1,-10,1,-37,1,-28,1,-25,1,-21,1,-34,1
1016,-1,1,-17,1,-16,1,9,1,7,1,-17,1,-10,1,-37,1,-28,1,-26,1,-21,1,-35,1
1017,-1,1,-17,1,-16,1,9,1,7,1,-17,1,-9,1,-37,1,-28,1,-26,1,-20,1,-35,1
1018,-1,1,-17,1,-16,1,9,1,7,1,-17,1,-9,1,-37,1,-28,1,-26,1,-20,1,-34,1
1019,-1,1,-17,1,-16,1,9,1,7,1,-17,1,-9,1,-37,1,-29,1,-27,1,-21,1,-34,1
1020,-1,1,-18,1,-17,1,9,1,8,1,-18,1,-8,1,-37,1,-30,1,-27,1,-21,1,-34,1
1021,-1,1,-19,1,-18,1,10,1,8,1,-19,1,-8,1,-38,1,-30,1,-27,1,-22,1,-34,1
1022,-2,1,-18,1,-16,1,10,1,7,1,-17,1,-7,1,-38,1,-31,1,-27,1,-22,1,-34,1
1023,-2,1,-18,1,-16,1,10,1,7,1,-17,1,-7,1,-38,1,-31,1,-27,1,-22,1,-34,1
1024,-2,1,-18,1,-16,1,10,1,7,1,-17,1,-8,1,-39,1,-31,1,-27,1,-22,1,-34,1
1025,-2,1,-18,1,-16,1,10,1,7,1,-17,1,-8,1,-39,1,-31,1,-27,1,-23,1,-35,1
1026,-3,1,-17,1,-14,1,10,1,5,1,-16,1,-8,1,-39,1,-31,1,-28,1,-23,1,-35,1
1027,-2,1,-17,1,-15,1,9,1,6,1,-16,1,-8,1,-39,1,-30,1,-28,1,-24,1,-35,1
1028,-2,1,-17,1,-15,1,9,1,6,1,-16,1,-8,1,-38,1,-29,1,-27,1,-24,1,-34,1
1029,-2,1,-16,1,-14,1,9,1,6,1,-15,1,-8,1,-38,1,-28,1,-27,1,-24,1,-34,1
1030,-2,1,-17,1,-15,1,9,1,6,1,-16,1,-7,1,-38,1,-28,1,-27,1,-23,1,-34,1
1031,-2,1,-18,1,-16,1,10,1,7,1,-17,1,-7,1,-38,1,-27,1,-27,1,-24,1,-34,1
1032,-2,1,-19,1,-17,1,10,1,7,1,-18,1,-7,1,-39,1,-27,1,-28,1,-24,1,-34,1
1033,-2,1,-19,1,-17,1,10,1,7,1,-18,1,-7,1,-39,1,-27,1,-27,1,-23,1,-33,1
1034,-1,1,-19,1,-18,1,10,1,8,1,-19,1,-7,1,-38,1,-27,1,-27,1,-23,1,-33,1
1035,-1,1,-19,1,-18,1,10,1,8,1,-19,1,-7,1,-38,1,-26,1,-27,1,-23,1,-33,1
1036,-1,1,-19,1,-18,1,10,1,8,1,-19,1,-7,1,-37,1,-25,1,-27,1,-22,1,-32,1
1037,-1,1,-19,1,-18,1,10,1,8,1,-19,1,-7,1,-37,1,-25,1,-27,1,-22,1,-32,1
1038,-1,1,-18,1,-17,1,9,1,8,1,-18,1,-8,1,-38,1,-26,1,-28,1,-22,1,-33,1
1039,-1,1,-19,1,-18,1,10,1,8,1,-19,1,-9,1,-38,1,-26,1,-28,1,-23,1,-32,1
1040,-1,1,-19,1,-18,1,10,1,8,1,-19,1,-9,1,-38,1,-27,1,-28,1,-23,1,-33,1
1041,-1,1,-18,1,-17,1,9,1,8,1,-18,1,-8,1,-38,1,-28,1,-29,1,-23,1,-33,1
1042,-1,1,-19,1,-18,1,10,1,8,1,-19,1,-8,1,-38,1,-29,1,-29,1,-23,1,-33,1
1043,-1,1,-19,1,-18,1,10,1,8,1,-19,1,-7,1,-38,1,-29,1,-29,1,-23,1,-33,1
1044,-1,1,-19,1,-18,1,10,1,8,1,-19,1,-8,1,-37,1,-29,1,-29,1,-24,1,-33,1
1045,-1,1,-19,1,-18,1,10,1,8,1,-19,1,-8,1,-37,1,-30,1,-30,1,-24,1,-34,1
1046,-1,1,-20,1,-19,1,10,1,9,1,-20,1,-8,1,-37,1,-30,1,-30,1,-24,1,-34,1
1047,0,1,-18,1,-18,1,9,1,9,1,-18,1,-8,1,-37,1,-30,1,-29,1,-24,1,-34,1
1048,-1,1,-18,1,-17,1,9,1,8,1,-18,1,-7,1,-37,1,-30,1,-30,1,-24,1,-34,1
1049,-2,1,-18,1,-16,1,10,1,7,1,-17,1,-7,1,-36,1,-30,1,-30,1,-23,1,-33,1
1050,-2,1,-17,1,-15,1,9,1,6,1,-16,1,-7,1,-37,1,-30,1,-30,1,-23,1,-33,1
1051,-2,1,-17,1,-15,1,9,1,6,1,-16,1,-7,1,-36,1,-31,1,-30,1,-23,1,-34,1
1052,-2,1,-17,1,-15,1,9,1,6,1,-16,1,-6,1,-36,1,-30,1,-30,1,-23,1,-34,1
1053,-2,1,-17,1,-15,1,9,1,6,1,-16,1,-6,1,-36,1,-30,1,-30,1,-23,1,-34,1
1054,-1,1,-17,1,-16,1,9,1,7,1,-17,1,-6,1,-36,1,-30,1,-29,1,-23,1,-33,1
1055,-1,1,-17,1,-16,1,9,1,7,1,-17,1,-5,1,-35,1,-30,1,-29,1,-22,1,-33,1
1056,-1,1,-17,1,-16,1,9,1,7,1,-17,1,-5,1,-35,1,-29,1,-29,1,-21,1,-33,1
1057,-1,1,-17,1,-16,1,9,1,7,1,-17,1,-5,1,-36,1,-30,1,-29,1,-21,1,-33,1
1058,-2,1,-19,1,-17,1,10,1,7,1,-18,1,-5,1,-36,1,-30,1,-29,1,-21,1,-33,1
1059,-2,1,-18,1,-16,1,10,1,7,1,-17,1,-5,1,-36,1,-31,1,-29,1,-21,1,-33,1
1060,-2,1,-17,1,-15,1,9,1,6,1,-16,1,-5,1,-35,1,-31,1,-28,1,-21,1,-33,1
1061,-2,1,-17,1,-15,1,9,1,6,1,-16,1,-6,1,-35,1,-31,1,-28,1,-20,1,-31,1
1062,-2,1,-16,1,-14,1,9,1,6,1,-15,1,-5,1,-35,1,-31,1,-28,1,-20,1,-31,1
1063,-1,1,-16,1,-15,1,8,1,7,1,-16,1,-6,1,-35,1,-30,1,-27,1,-20,1,-31,1
1064,-1,1,-16,1,-15,1,8,1,7,1,-16,1,-6,1,-35,1,-30,1,-27,1,-20,1,-30,1
1065,0,1,-15,1,-15,1,7,1,7,1,-15,1,-6,1,-35,1,-30,1,-27,1,-19,1,-29,1
1066,0,1,-15,1,-15,1,7,1,7,1,-15,1,-5,1,-36,1,-29,1,-26,1,-20,1,-29,1
1067,1,1,-15,1,-16,1,7,1,8,1,-15,1,-5,1,-35,1,-28,1,-25,1,-19,1,-28,1
1068,2,1,-14,1,-16,1,6,1,9,1,-15,1,-5,1,-35,1,-27,1,-25,1,-19,1,-28,1
1069,2,1,-13,1,-15,1,5,1,8,1,-14,1,-5,1,-35,1,-26,1,-24,1,-20,1,-28,1
1070,2,1,-13,1,-15,1,5,1,8,1,-14,1,-4,1,-35,1,-25,1,-24,1,-20,1,-28,1
1071,2,1,-12,1,-14,1,5,1,8,1,-13,1,-5,1,-35,1,-25,1,-24,1,-20,1,-28,1
1072,1,1,-12,1,-13,1,5,1,7,1,-12,1,-5,1,-36,1,-26,1,-24,1,-20,1,-28,1
1073,2,1,-12,1,-14,1,5,1,8,1,-13,1,-5,1,-36,1,-25,1,-24,1,-20,1,-27,1
1074,2,1,-12,1,-14,1,5,1,8,1,-13,1,-5,1,-36,1,-25,1,-23,1,-19,1,-27,1
1075,3,1,-12,1,-15,1,4,1,9,1,-13,1,-5,1,-35,1,-26,1,-22,1,-19,1,-26,1
1076,4,1,-12,1,-16,1,4,1,10,1,-14,1,-4,1,-35,1,-26,1,-22,1,-18,1,-26,1
1077,5,1,-11,1,-16,1,3,1,10,1,-13,1,-4,1,-35,1,-27,1,-22,1,-18,1,-26,1
1078,6,1,-11,1,-17,1,2,1,11,1,-14,1,-3,1,-34,1,-26,1,-22,1,-18,1,-25,1
1079,6,1,-12,1,-18,1,3,1,12,1,-15,1,-2,1,-32,1,-26,1,-22,1,-18,1,-25,1
1080,7,1,-12,1,-19,1,2,1,13,1,-15,1,-2,1,-32,1,-26,1,-22,1,-18,1,-25,1
1081,7,1,-12,1,-19,1,2,1,13,1,-15,1,-2,1,-32,1,-25,1,-22,1,-19,1,-25,1
1082,7,1,-12,1,-19,1,2,1,13,1,-15,1,-2,1,-32,1,-24,1,-22,1,-18,1,-25,1
1083,8,1,-12,1,-20,1,2,1,14,1,-16,1,-2,1,-31,1,-23,1,-22,1,-18,1,-25,1
1084,8,1,-11,1,-19,1,1,1,13,1,-15,1,-2,1,-31,1,-23,1,-21,1,-18,1,-25,1
1085,8,1,-11,1,-19,1,1,1,13,1,-15,1,-3,1,-31,1,-22,1,-21,1,-18,1,-23,1
1086,9,1,-11,1,-20,1,1,1,14,1,-15,1,-4,1,-31,1,-22,1,-20,1,-18,1,-23,1
1087,10,1,-10,1,-20,1,0,1,15,1,-15,1,-6,1,-32,1,-22,1,-20,1,-18,1,-23,1
1088,10,1,-10,1,-20,1,0,1,15,1,-15,1,-7,1,-32,1,-23,1,-20,1,-17,1,-23,1
1089,10,1,-12,1,-22,1,1,1,16,1,-17,1,-8,1,-33,1,-23,1,-21,1,-18,1,-23,1
1090,9,1,-12,1,-21,1,1,1,15,1,-16,1,-8,1,-34,1,-24,1,-22,1,-18,1,-24,1
1091,8,1,-12,1,-20,1,2,1,14,1,-16,1,-9,1,-35,1,-25,1,-22,1,-18,1,-24,1
1092,7,1,-14,1,-21,1,3,1,14,1,-17,1,-9,1,-37,1,-25,1,-23,1,-18,1,-24,1
1093,7,1,-14,1,-21,1,3,1,14,1,-17,1,-9,1,-38,1,-26,1,-24,1,-20,1,-24,1
1094,7,1,-14,1,-21,1,3,1,14,1,-17,1,-9,1,-39,1,-26,1,-24,1,-21,1,-25,1
1095,7,1,-15,1,-22,1,4,1,14,1,-18,1,-10,1,-39,1,-27,1,-25,1,-22,1,-25,1
1096,7,1,-15,1,-22,1,4,1,14,1,-18,1,-10,1,-40,1,-27,1,-25,1,-23,1,-26,1
1097,7,1,-14,1,-21,1,3,1,14,1,-17,1,-10,1,-40,1,-27,1,-25,1,-23,1,-26,1
1098,8,1,-14,1,-22,1,3,1,15,1,-18,1,-9,1,-39,1,-27,1,-25,1,-22,1,-25,1
1099,8,1,-14,1,-22,1,3,1,15,1,-18,1,-9,1,-39,1,-27,1,-25,1,-22,1,-25,1
1100,7,1,-15,1,-22,1,4,1,14,1,-18,1,-10,1,-39,1,-27,1,-25,1,-21,1,-26,1
1101,7,1,-16,1,-23,1,4,1,15,1,-19,1,-10,1,-39,1,-28,1,-25,1,-21,1,-26,1
1102,6,1,-16,1,-22,1,5,1,14,1,-19,1,-11,1,-39,1,-28,1,-25,1,-21,1,-26,1
1103,6,1,-16,1,-22,1,5,1,14,1,-19,1,-10,1,-39,1,-27,1,-26,1,-20,1,-25,1
1104,6,1,-17,1,-23,1,5,1,14,1,-20,1,-10,1,-39,1,-27,1,-25,1,-20,1,-25,1
1105,5,1,-17,1,-22,1,6,1,13,1,-19,1,-10,1,-39,1,-27,1,-26,1,-20,1,-25,1
1106,5,1,-16,1,-21,1,5,1,13,1,-18,1,-10,1,-39,1,-28,1,-26,1,-20,1,-25,1
1107,6,1,-16,1,-22,1,5,1,14,1,-19,1,-10,1,-39,1,-27,1,-26,1,-21,1,-25,1
1108,5,1,-16,1,-21,1,5,1,13,1,-18,1,-10,1,-39,1,-28,1,-27,1,-21,1,-26,1
1109,4,1,-16,1,-20,1,6,1,12,1,-18,1,-10,1,-40,1,-29,1,-28,1,-21,1,-26,1
1110,4,1,-16,1,-20,1,6,1,12,1,-18,1,-11,1,-41,1,-30,1,-28,1,-21,1,-26,1
1111,3,1,-16,1,-19,1,6,1,11,1,-17,1,-11,1,-41,1,-30,1,-28,1,-22,1,-25,1
1112,2,1,-16,1,-18,1,7,1,10,1,-17,1,-11,1,-42,1,-30,1,-29,1,-22,1,-25,1
1113,0,1,-17,1,-17,1,8,1,8,1,-17,1,-11,1,-42,1,-31,1,-29,1,-22,1,-25,1
1114,-1,1,-17,1,-16,1,9,1,7,1,-17,1,-11,1,-42,1,-31,1,-29,1,-23,1,-26,1
1115,-1,1,-17,1,-16,1,9,1,7,1,-17,1,-11,1,-42,1,-32,1,-29,1,-23,1,-27,1
1116,-2,1,-18,1,-16,1,10,1,7,1,-17,1,-11,1,-42,1,-32,1,-30,1,-23,1,-28,1
1117,-2,1,-19,1,-17,1,10,1,7,1,-18,1,-11,1,-42,1,-33,1,-30,1,-23,1,-28,1
1118,-3,1,-19,1,-16,1,11,1,6,1,-18,1,-11,1,-41,1,-34,1,-30,1,-23,1,-28,1
1119,-3,1,-20,1,-17,1,11,1,7,1,-19,1,-11,1,-41,1,-34,1,-30,1,-24,1,-28,1
1120,-3,1,-21,1,-18,1,12,1,7,1,-20,1,-12,1,-41,1,-35,1,-30,1,-25,1,-27,1
1121,-3,1,-21,1,-18,1,12,1,7,1,-20,1,-11,1,-42,1,-35,1,-30,1,-26,1,-27,1
1122,-4,1,-20,1,-16,1,12,1,6,1,-18,1,-11,1,-42,1,-35,1,-30,1,-26,1,-28,1
1123,-4,1,-21,1,-17,1,12,1,6,1,-19,1,-11,1,-43,1,-35,1,-30,1,-26,1,-28,1
1124,-6,1,-22,1,-16,1,14,1,5,1,-19,1,-11,1,-43,1,-35,1,-31,1,-27,1,-29,1
1125,-5,1,-22,1,-17,1,13,1,6,1,-20,1,-10,1,-43,1,-34,1,-30,1,-26,1,-30,1
1126,-3,1,-21,1,-18,1,12,1,7,1,-20,1,-10,1,-43,1,-34,1,-30,1,-26,1,-28,1
1127,-3,1,-21,1,-18,1,12,1,7,1,-20,1,-10,1,-43,1,-34,1,-30,1,-26,1,-28,1
1128,-3,1,-21,1,-18,1,12,1,7,1,-20,1,-11,1,-43,1,-34,1,-31,1,-27,1,-28,1
1129,-3,1,-20,1,-17,1,11,1,7,1,-19,1,-11,1,-43,1,-35,1,-31,1,-27,1,-28,1
1130,-3,1,-19,1,-16,1,11,1,6,1,-18,1,-11,1,-42,1,-36,1,-32,1,-27,1,-28,1
1131,-3,1,-20,1,-17,1,11,1,7,1,-19,1,-11,1,-42,1,-36,1,-32,1,-28,1,-28,1
1132,-3,1,-20,1,-17,1,11,1,7,1,-19,1,-12,1,-42,1,-37,1,-32,1,-28,1,-28,1
1133,-4,1,-20,1,-16,1,12,1,6,1,-18,1,-12,1,-43,1,-36,1,-32,1,-28,1,-29,1
1134,-3,1,-20,1,-17,1,11,1,7,1,-19,1,-11,1,-43,1,-36,1,-31,1,-27,1,-29,1
1135,-3,1,-20,1,-17,1,11,1,7,1,-19,1,-10,1,-43,1,-35,1,-31,1,-26,1,-29,1
1136,-3,1,-21,1,-18,1,12,1,7,1,-20,1,-10,1,-43,1,-35,1,-31,1,-26,1,-29,1
1137,-3,1,-21,1,-18,1,12,1,7,1,-20,1,-10,1,-43,1,-35,1,-31,1,-26,1,-29,1
1138,-3,1,-22,1,-19,1,12,1,8,1,-21,1,-10,1,-43,1,-35,1,-30,1,-26,1,-28,1
1139,-3,1,-21,1,-18,1,12,1,7,1,-20,1,-10,1,-43,1,-35,1,-30,1,-26,1,-28,1
1140,-3,1,-21,1,-18,1,12,1,7,1,-20,1,-11,1,-44,1,-35,1,-31,1,-26,1,-29,1
1141,-4,1,-21,1,-17,1,12,1,6,1,-19,1,-10,1,-44,1,-35,1,-31,1,-26,1,-29,1
1142,-4,1,-20,1,-16,1,12,1,6,1,-18,1,-10,1,-43,1,-35,1,-31,1,-25,1,-28,1
1143,-4,1,-19,1,-15,1,11,1,5,1,-17,1,-10,1,-43,1,-35,1,-31,1,-24,1,-28,1
1144,-5,1,-21,1,-16,1,13,1,5,1,-19,1,-9,1,-43,1,-35,1,-31,1,-24,1,-28,1
1145,-5,1,-21,1,-16,1,13,1,5,1,-19,1,-9,1,-43,1,-35,1,-31,1,-25,1,-28,1
1146,-5,1,-21,1,-16,1,13,1,5,1,-19,1,-9,1,-43,1,-35,1,-30,1,-25,1,-28,1
1147,-5,1,-21,1,-16,1,13,1,5,1,-19,1,-9,1,-42,1,-35,1,-30,1,-24,1,-28,1
1148,-6,1,-21,1,-15,1,13,1,4,1,-18,1,-9,1,-43,1,-35,1,-30,1,-25,1,-28,1
1149,-6,1,-20,1,-14,1,13,1,4,1,-17,1,-10,1,-43,1,-36,1,-30,1,-25,1,-28,1
1150,-6,1,-20,1,-14,1,13,1,4,1,-17,1,-10,1,-43,1,-36,1,-30,1,-25,1,-28,1
1151,-6,1,-19,1,-13,1,12,1,3,1,-16,1,-10,1,-43,1,-35,1,-29,1,-25,1,-28,1
1152,-6,1,-19,1,-13,1,12,1,3,1,-16,1,-9,1,-42,1,-35,1,-29,1,-25,1,-28,1
1153,-6,1,-19,1,-13,1,12,1,3,1,-16,1,-9,1,-42,1,-35,1,-29,1,-25,1,-28,1
1154,-5,1,-20,1,-15,1,12,1,5,1,-18,1,-9,1,-42,1,-36,1,-29,1,-25,1,-28,1
1155,-4,1,-20,1,-16,1,12,1,6,1,-18,1,-9,1,-42,1,-36,1,-30,1,-25,1,-28,1
1156,-4,1,-21,1,-17,1,12,1,6,1,-19,1,-9,1,-42,1,-36,1,-30,1,-25,1,-28,1
1157,-4,1,-22,1,-18,1,13,1,7,1,-20,1,-8,1,-42,1,-36,1,-30,1,-25,1,-29,1
1158,-4,1,-23,1,-19,1,13,1,7,1,-21,1,-8,1,-42,1,-37,1,-31,1,-26,1,-30,1
1159,-5,1,-24,1,-19,1,14,1,7,1,-22,1,-7,1,-42,1,-38,1,-33,1,-27,1,-31,1
1160,-6,1,-26,1,-20,1,16,1,7,1,-23,1,-6,1,-43,1,-40,1,-35,1,-29,1,-32,1
1161,-7,1,-27,1,-20,1,17,1,6,1,-24,1,-6,1,-43,1,-41,1,-36,1,-30,1,-34,1
1162,-7,1,-28,1,-21,1,17,1,7,1,-25,1,-6,1,-42,1,-41,1,-37,1,-31,1,-35,1
1163,-6,1,-28,1,-22,1,17,1,8,1,-25,1,-6,1,-40,1,-40,1,-37,1,-30,1,-36,1
1164,-4,1,-27,1,-23,1,15,1,9,1,-25,1,-5,1,-38,1,-37,1,-35,1,-29,1,-35,1
1165,-2,1,-25,1,-23,1,13,1,10,1,-24,1,-5,1,-31,1,-31,1,-29,1,-24,1,-32,1
1166,3,1,-23,1,-26,1,10,1,14,1,-24,1,-4,1,-22,1,-24,1,-23,1,-20,1,-28,1
1167,11,1,-21,1,-32,1,5,1,21,1,-26,1,-2,1,-9,1,-13,1,-14,1,-14,1,-23,1
1168,20,1,-17,1,-37,1,-1,1,28,1,-27,1,0,1,8,1,1,1,-2,1,-4,1,-16,1
1169,32,1,-11,1,-43,1,-10,1,37,1,-27,1,3,1,28,1,18,1,12,1,8,1,-7,1
1170,45,1,-2,1,-47,1,-21,1,46,1,-24,1,6,1,49,1,38,1,28,1,22,1,4,1
1171,59,1,8,1,-51,1,-33,1,55,1,-21,1,7,1,71,1,59,1,47,1,38,1,18,1
1172,73,1,20,1,-53,1,-46,1,63,1,-16,1,7,1,90,1,81,1,66,1,57,1,33,1
1173,90,1,35,1,-55,1,-62,1,73,1,-10,1,5,1,108,1,104,1,87,1,78,1,50,1
1174,108,1,49,1,-59,1,-78,1,84,1,-5,1,0,1,125,1,128,1,110,1,100,1,68,1
1175,123,1,63,1,-60,1,-93,1,92,1,2,1,-6,1,144,1,152,1,135,1,124,1,87,1
1176,136,1,82,1,-54,1,-109,1,95,1,14,1,-11,1,165,1,179,1,163,1,148,1,109,1
1177,143,1,103,1,-40,1,-123,1,92,1,32,1,-15,1,187,1,208,1,193,1,176,1,133,1
1178,144,1,126,1,-18,1,-135,1,81,1,54,1,-23,1,206,1,235,1,223,1,202,1,159,1
1179,141,1,147,1,6,1,-144,1,68,1,77,1,-31,1,223,1,262,1,250,1,227,1,182,1
1180,136,1,161,1,25,1,-148,1,56,1,93,1,-38,1,239,1,285,1,272,1,247,1,199,1
1181,128,1,166,1,38,1,-147,1,45,1,102,1,-44,1,247,1,298,1,284,1,258,1,208,1
1182,118,1,162,1,44,1,-140,1,37,1,103,1,-50,1,241,1,295,1,279,1,255,1,206,1
1183,105,1,152,1,47,1,-128,1,29,1,100,1,-54,1,222,1,278,1,263,1,243,1,197,1
1184,90,1,138,1,48,1,-114,1,21,1,93,1,-59,1,190,1,247,1,237,1,221,1,180,1
1185,71,1,121,1,50,1,-96,1,11,1,86,1,-64,1,140,1,199,1,197,1,188,1,154,1
1186,49,1,100,1,51,1,-74,1,-1,1,76,1,-68,1,78,1,137,1,145,1,144,1,121,1
1187,28,1,78,1,50,1,-53,1,-11,1,64,1,-72,1,18,1,74,1,93,1,99,1,87,1
1188,9,1,56,1,47,1,-32,1,-19,1,52,1,-74,1,-28,1,23,1,48,1,59,1,56,1
1189,-5,1,37,1,42,1,-16,1,-23,1,39,1,-75,1,-59,1,-13,1,15,1,28,1,31,1
1190,-14,1,21,1,35,1,-3,1,-24,1,28,1,-75,1,-77,1,-36,1,-7,1,7,1,13,1
1191,-19,1,10,1,29,1,4,1,-24,1,19,1,-75,1,-87,1,-50,1,-22,1,-6,1,0,1
1192,-21,1,1,1,22,1,10,1,-21,1,11,1,-73,1,-91,1,-58,1,-30,1,-15,1,-8,1
1193,-23,1,-5,1,18,1,14,1,-21,1,6,1,-69,1,-92,1,-61,1,-35,1,-19,1,-14,1
1194,-22,1,-8,1,14,1,15,1,-18,1,3,1,-63,1,-89,1,-61,1,-37,1,-21,1,-17,1
1195,-21,1,-9,1,12,1,15,1,-17,1,1,1,-56,1,-83,1,-58,1,-36,1,-21,1,-19,1
1196,-19,1,-10,1,9,1,14,1,-14,1,-1,1,-48,1,-74,1,-53,1,-34,1,-20,1,-19,1
1197,-15,1,-10,1,5,1,12,1,-10,1,-3,1,-40,1,-63,1,-46,1,-30,1,-17,1,-18,1
1198,-12,1,-10,1,2,1,11,1,-7,1,-4,1,-33,1,-54,1,-40,1,-26,1,-14,1,-16,1
1199,-8,1,-11,1,-3,1,9,1,-3,1,-7,1,-28,1,-46,1,-35,1,-22,1,-13,1,-15,1
1200,-5,1,-11,1,-6,1,8,1,0,1,-9,1,-24,1,-40,1,-32,1,-19,1,-12,1,-13,1
1201,-2,1,-10,1,-8,1,6,1,3,1,-9,1,-20,1,-36,1,-30,1,-18,1,-10,1,-11,1
1202,-1,1,-9,1,-8,1,5,1,3,1,-9,1,-17,1,-34,1,-28,1,-17,1,-9,1,-9,1
1203,0,1,-7,1,-7,1,3,1,3,1,-7,1,-13,1,-32,1,-26,1,-16,1,-7,1,-9,1
1204,1,1,-6,1,-7,1,2,1,4,1,-6,1,-10,1,-30,1,-25,1,-15,1,-6,1,-8,1
1205,2,1,-6,1,-8,1,2,1,5,1,-7,1,-7,1,-27,1,-24,1,-14,1,-5,1,-8,1
1206,2,1,-6,1,-8,1,2,1,5,1,-7,1,-4,1,-24,1,-23,1,-13,1,-5,1,-9,1
1207,2,1,-6,1,-8,1,2,1,5,1,-7,1,-3,1,-23,1,-23,1,-12,1,-6,1,-9,1
1208,2,1,-7,1,-9,1,2,1,5,1,-8,1,-2,1,-22,1,-23,1,-12,1,-7,1,-10,1
1209,2,1,-9,1,-11,1,3,1,6,1,-10,1,-2,1,-22,1,-22,1,-12,1,-8,1,-10,1
1210,3,1,-10,1,-13,1,3,1,8,1,-11,1,-2,1,-22,1,-22,1,-12,1,-9,1,-10,1
1211,3,1,-10,1,-13,1,3,1,8,1,-11,1,-2,1,-22,1,-22,1,-13,1,-9,1,-10,1
1212,3,1,-11,1,-14,1,4,1,8,1,-12,1,-2,1,-22,1,-23,1,-13,1,-9,1,-10,1
1213,3,1,-11,1,-14,1,4,1,8,1,-12,1,-2,1,-23,1,-22,1,-13,1,-9,1,-10,1
1214,4,1,-11,1,-15,1,3,1,9,1,-13,1,-1,1,-23,1,-22,1,-13,1,-8,1,-10,1
1215,4,1,-11,1,-15,1,3,1,9,1,-13,1,-1,1,-22,1,-21,1,-13,1,-8,1,-10,1
1216,4,1,-10,1,-14,1,3,1,9,1,-12,1,-1,1,-22,1,-21,1,-13,1,-8,1,-11,1
1217,3,1,-9,1,-12,1,3,1,7,1,-10,1,0,1,-22,1,-19,1,-13,1,-8,1,-11,1
1218,3,1,-10,1,-13,1,3,1,8,1,-11,1,0,1,-21,1,-19,1,-12,1,-8,1,-11,1
1219,4,1,-9,1,-13,1,2,1,8,1,-11,1,0,1,-21,1,-18,1,-11,1,-8,1,-11,1
1220,4,1,-8,1,-12,1,2,1,8,1,-10,1,0,1,-20,1,-18,1,-11,1,-7,1,-11,1
1221,4,1,-8,1,-12,1,2,1,8,1,-10,1,1,1,-20,1,-18,1,-10,1,-7,1,-11,1
1222,4,1,-8,1,-12,1,2,1,8,1,-10,1,1,1,-20,1,-18,1,-10,1,-7,1,-10,1
1223,5,1,-7,1,-12,1,1,1,8,1,-9,1,1,1,-19,1,-17,1,-9,1,-7,1,-10,1
1224,5,1,-7,1,-12,1,1,1,8,1,-9,1,1,1,-19,1,-17,1,-9,1,-6,1,-10,1
1225,5,1,-9,1,-14,1,2,1,9,1,-11,1,2,1,-19,1,-16,1,-9,1,-6,1,-10,1
1226,5,1,-9,1,-14,1,2,1,9,1,-11,1,2,1,-18,1,-16,1,-9,1,-6,1,-10,1
1227,5,1,-10,1,-15,1,2,1,10,1,-12,1,2,1,-17,1,-15,1,-8,1,-5,1,-10,1
1228,5,1,-10,1,-15,1,2,1,10,1,-12,1,2,1,-16,1,-14,1,-8,1,-5,1,-10,1
1229,5,1,-8,1,-13,1,1,1,9,1,-10,1,2,1,-16,1,-14,1,-8,1,-4,1,-10,1
1230,6,1,-7,1,-13,1,0,1,9,1,-10,1,2,1,-16,1,-14,1,-9,1,-4,1,-11,1
1231,5,1,-7,1,-12,1,1,1,8,1,-9,1,2,1,-16,1,-14,1,-9,1,-4,1,-10,1
1232,6,1,-5,1,-11,1,0,1,8,1,-8,1,2,1,-15,1,-13,1,-8,1,-3,1,-10,1
1233,5,1,-6,1,-11,1,0,1,8,1,-8,1,3,1,-15,1,-13,1,-8,1,-2,1,-10,1
1234,6,1,-6,1,-12,1,0,1,9,1,-9,1,3,1,-15,1,-12,1,-8,1,-2,1,-10,1
1235,6,1,-6,1,-12,1,0,1,9,1,-9,1,2,1,-14,1,-12,1,-8,1,-1,1,-10,1
1236,5,1,-7,1,-12,1,1,1,8,1,-9,1,1,1,-14,1,-12,1,-8,1,-2,1,-9,1
1237,5,1,-8,1,-13,1,1,1,9,1,-10,1,1,1,-14,1,-11,1,-8,1,-2,1,-9,1
1238,6,1,-7,1,-13,1,0,1,9,1,-10,1,1,1,-13,1,-11,1,-7,1,-2,1,-9,1
1239,7,1,-6,1,-13,1,0,1,10,1,-9,1,1,1,-12,1,-11,1,-6,1,-2,1,-9,1
1240,8,1,-6,1,-14,1,-1,1,11,1,-10,1,2,1,-12,1,-11,1,-5,1,-1,1,-9,1
1241,8,1,-5,1,-13,1,-1,1,10,1,-9,1,2,1,-11,1,-11,1,-5,1,0,1,-9,1
1242,8,1,-5,1,-13,1,-1,1,10,1,-9,1,2,1,-11,1,-11,1,-4,1,0,1,-10,1
1243,8,1,-5,1,-13,1,-1,1,10,1,-9,1,3,1,-9,1,-11,1,-3,1,1,1,-10,1
1244,9,1,-4,1,-13,1,-2,1,11,1,-8,1,3,1,-9,1,-11,1,-2,1,2,1,-10,1
1245,10,1,-3,1,-13,1,-3,1,11,1,-8,1,3,1,-8,1,-10,1,-2,1,2,1,-9,1
1246,11,1,-3,1,-14,1,-4,1,12,1,-8,1,3,1,-7,1,-9,1,-1,1,3,1,-9,1
1247,11,1,-3,1,-14,1,-4,1,12,1,-8,1,3,1,-7,1,-9,1,-1,1,3,1,-8,1
1248,11,1,-3,1,-14,1,-4,1,12,1,-8,1,3,1,-7,1,-9,1,0,1,4,1,-8,1
1249,11,1,-3,1,-14,1,-4,1,12,1,-8,1,4,1,-7,1,-9,1,0,1,4,1,-8,1
1250,12,1,-2,1,-14,1,-5,1,13,1,-8,1,4,1,-7,1,-8,1,1,1,4,1,-8,1
1251,13,1,-2,1,-15,1,-5,1,14,1,-8,1,4,1,-7,1,-7,1,1,1,4,1,-8,1
1252,13,1,-2,1,-15,1,-5,1,14,1,-8,1,4,1,-6,1,-6,1,2,1,4,1,-8,1
1253,13,1,-1,1,-14,1,-6,1,13,1,-7,1,4,1,-5,1,-6,1,2,1,4,1,-8,1
1254,13,1,-1,1,-14,1,-6,1,13,1,-7,1,4,1,-4,1,-5,1,2,1,5,1,-8,1
1255,13,1,-1,1,-14,1,-6,1,13,1,-7,1,4,1,-3,1,-4,1,3,1,6,1,-7,1
1256,13,1,0,1,-13,1,-6,1,13,1,-6,1,5,1,-3,1,-4,1,4,1,6,1,-8,1
1257,13,1,0,1,-13,1,-6,1,13,1,-6,1,5,1,-1,1,-4,1,4,1,6,1,-8,1
1258,13,1,0,1,-13,1,-6,1,13,1,-6,1,6,1,0,1,-3,1,5,1,7,1,-7,1
1259,14,1,0,1,-14,1,-7,1,14,1,-7,1,7,1,0,1,-3,1,6,1,8,1,-7,1
1260,14,1,1,1,-13,1,-7,1,14,1,-6,1,7,1,0,1,-4,1,6,1,8,1,-7,1
1261,15,1,2,1,-13,1,-8,1,14,1,-5,1,7,1,1,1,-2,1,8,1,9,1,-6,1
1262,15,1,2,1,-13,1,-8,1,14,1,-5,1,7,1,2,1,-1,1,9,1,10,1,-5,1
1263,15,1,3,1,-12,1,-9,1,14,1,-4,1,7,1,3,1,-1,1,9,1,10,1,-4,1
1264,15,1,3,1,-12,1,-9,1,14,1,-4,1,7,1,4,1,0,1,10,1,11,1,-4,1
1265,16,1,3,1,-13,1,-9,1,15,1,-5,1,7,1,6,1,1,1,11,1,12,1,-3,1
1266,17,1,4,1,-13,1,-10,1,15,1,-4,1,7,1,7,1,2,1,12,1,12,1,-4,1
1267,18,1,5,1,-13,1,-11,1,16,1,-4,1,7,1,8,1,3,1,13,1,13,1,-3,1
1268,18,1,5,1,-13,1,-11,1,16,1,-4,1,7,1,9,1,4,1,13,1,14,1,-3,1
1269,18,1,6,1,-12,1,-12,1,15,1,-3,1,8,1,9,1,5,1,14,1,15,1,-3,1
1270,18,1,6,1,-12,1,-12,1,15,1,-3,1,8,1,10,1,7,1,15,1,16,1,-2,1
1271,19,1,7,1,-12,1,-13,1,16,1,-2,1,9,1,11,1,8,1,16,1,18,1,-2,1
1272,20,1,8,1,-12,1,-14,1,16,1,-2,1,9,1,13,1,9,1,17,1,19,1,-1,1
1273,21,1,9,1,-12,1,-15,1,17,1,-1,1,10,1,15,1,10,1,18,1,20,1,0,1
1274,23,1,9,1,-14,1,-16,1,19,1,-2,1,10,1,18,1,12,1,20,1,21,1,1,1
1275,23,1,10,1,-13,1,-16,1,18,1,-1,1,10,1,20,1,13,1,20,1,22,1,3,1
1276,23,1,10,1,-13,1,-16,1,18,1,-1,1,11,1,22,1,15,1,21,1,24,1,4,1
1277,23,1,10,1,-13,1,-16,1,18,1,-1,1,12,1,24,1,16,1,23,1,25,1,5,1
1278,24,1,11,1,-13,1,-17,1,19,1,-1,1,12,1,25,1,17,1,24,1,26,1,6,1
1279,25,1,13,1,-12,1,-19,1,19,1,1,1,13,1,26,1,19,1,26,1,27,1,7,1
1280,27,1,14,1,-13,1,-20,1,20,1,1,1,13,1,28,1,21,1,28,1,29,1,8,1
1281,28,1,15,1,-13,1,-21,1,21,1,1,1,13,1,29,1,23,1,30,1,30,1,9,1
1282,29,1,16,1,-13,1,-22,1,21,1,2,1,13,1,30,1,24,1,32,1,30,1,10,1
1283,30,1,16,1,-14,1,-23,1,22,1,1,1,13,1,32,1,26,1,33,1,32,1,11,1
1284,30,1,17,1,-13,1,-23,1,22,1,2,1,13,1,35,1,28,1,35,1,34,1,12,1
1285,32,1,19,1,-13,1,-25,1,23,1,3,1,13,1,37,1,30,1,37,1,36,1,13,1
1286,33,1,19,1,-14,1,-26,1,24,1,3,1,14,1,40,1,34,1,40,1,38,1,16,1
1287,33,1,20,1,-13,1,-26,1,23,1,4,1,15,1,42,1,36,1,42,1,39,1,17,1
1288,34,1,22,1,-12,1,-28,1,23,1,5,1,15,1,45,1,39,1,44,1,40,1,19,1
1289,36,1,23,1,-13,1,-29,1,25,1,5,1,16,1,49,1,41,1,47,1,42,1,21,1
1290,37,1,24,1,-13,1,-30,1,25,1,6,1,16,1,52,1,43,1,49,1,44,1,22,1
1291,38,1,26,1,-12,1,-32,1,25,1,7,1,17,1,55,1,46,1,51,1,46,1,24,1
1292,40,1,27,1,-13,1,-33,1,27,1,7,1,17,1,57,1,49,1,54,1,48,1,25,1
1293,41,1,29,1,-12,1,-35,1,27,1,9,1,17,1,59,1,52,1,56,1,49,1,26,1
1294,42,1,30,1,-12,1,-36,1,27,1,9,1,18,1,60,1,55,1,59,1,51,1,28,1
1295,43,1,31,1,-12,1,-37,1,28,1,10,1,18,1,63,1,58,1,61,1,52,1,30,1
1296,45,1,32,1,-13,1,-38,1,29,1,10,1,19,1,65,1,61,1,64,1,54,1,32,1
1297,47,1,34,1,-13,1,-40,1,30,1,11,1,19,1,68,1,64,1,65,1,56,1,34,1
1298,48,1,34,1,-14,1,-41,1,31,1,10,1,19,1,71,1,67,1,68,1,59,1,36,1
1299,49,1,36,1,-13,1,-42,1,31,1,12,1,19,1,74,1,70,1,70,1,61,1,38,1
1300,51,1,39,1,-12,1,-45,1,32,1,14,1,19,1,77,1,72,1,73,1,63,1,39,1
1301,52,1,40,1,-12,1,-46,1,32,1,14,1,18,1,80,1,75,1,76,1,65,1,41,1
1302,53,1,41,1,-12,1,-47,1,33,1,15,1,18,1,83,1,77,1,79,1,67,1,42,1
1303,55,1,43,1,-12,1,-49,1,34,1,16,1,18,1,86,1,80,1,82,1,69,1,43,1
1304,57,1,43,1,-14,1,-50,1,36,1,15,1,18,1,89,1,83,1,85,1,71,1,44,1
1305,58,1,44,1,-14,1,-51,1,36,1,15,1,18,1,92,1,86,1,87,1,73,1,45,1
1306,60,1,46,1,-14,1,-53,1,37,1,16,1,19,1,94,1,90,1,90,1,75,1,47,1
1307,61,1,48,1,-13,1,-54,1,37,1,18,1,19,1,96,1,93,1,92,1,76,1,48,1
1308,62,1,48,1,-14,1,-55,1,38,1,17,1,19,1,98,1,96,1,94,1,78,1,50,1
1309,63,1,50,1,-13,1,-56,1,38,1,19,1,19,1,100,1,98,1,96,1,80,1,52,1
1310,64,1,51,1,-13,1,-57,1,39,1,19,1,19,1,103,1,100,1,100,1,82,1,54,1
1311,66,1,52,1,-14,1,-59,1,40,1,19,1,19,1,105,1,102,1,102,1,85,1,56,1
1312,68,1,54,1,-14,1,-61,1,41,1,20,1,18,1,107,1,104,1,104,1,86,1,57,1
1313,69,1,55,1,-14,1,-62,1,42,1,21,1,17,1,109,1,105,1,106,1,88,1,59,1
1314,69,1,54,1,-15,1,-61,1,42,1,20,1,17,1,110,1,107,1,107,1,89,1,60,1
1315,70,1,55,1,-15,1,-62,1,43,1,20,1,16,1,111,1,109,1,108,1,90,1,61,1
1316,70,1,57,1,-13,1,-63,1,42,1,22,1,16,1,112,1,110,1,109,1,91,1,61,1
1317,70,1,57,1,-13,1,-63,1,42,1,22,1,16,1,112,1,111,1,110,1,92,1,62,1
1318,70,1,57,1,-13,1,-63,1,42,1,22,1,15,1,112,1,111,1,110,1,93,1,61,1
1319,71,1,57,1,-14,1,-64,1,43,1,22,1,14,1,112,1,111,1,109,1,93,1,60,1
1320,70,1,56,1,-14,1,-63,1,42,1,21,1,14,1,111,1,110,1,109,1,92,1,59,1
1321,69,1,55,1,-14,1,-62,1,42,1,21,1,13,1,110,1,109,1,108,1,91,1,58,1
1322,68,1,54,1,-14,1,-61,1,41,1,20,1,13,1,109,1,107,1,107,1,90,1,57,1
1323,68,1,53,1,-15,1,-60,1,42,1,19,1,12,1,107,1,106,1,105,1,89,1,55,1
1324,66,1,51,1,-15,1,-58,1,41,1,18,1,11,1,104,1,104,1,102,1,87,1,54,1
1325,64,1,50,1,-14,1,-57,1,39,1,18,1,11,1,101,1,101,1,99,1,84,1,52,1
1326,62,1,49,1,-13,1,-55,1,38,1,18,1,12,1,98,1,98,1,96,1,82,1,50,1
1327,60,1,47,1,-13,1,-53,1,37,1,17,1,11,1,93,1,94,1,93,1,79,1,48,1
1328,58,1,45,1,-13,1,-51,1,36,1,16,1,11,1,89,1,89,1,89,1,75,1,46,1
1329,55,1,42,1,-13,1,-48,1,34,1,15,1,10,1,83,1,85,1,85,1,71,1,42,1
1330,53,1,38,1,-15,1,-45,1,34,1,12,1,9,1,78,1,80,1,81,1,66,1,39,1
1331,50,1,37,1,-13,1,-43,1,32,1,12,1,9,1,73,1,75,1,77,1,62,1,35,1
1332,47,1,34,1,-13,1,-40,1,30,1,11,1,8,1,67,1,70,1,72,1,58,1,31,1
1333,44,1,32,1,-12,1,-38,1,28,1,10,1,7,1,62,1,65,1,68,1,53,1,27,1
1334,42,1,31,1,-11,1,-36,1,27,1,10,1,7,1,57,1,61,1,63,1,49,1,24,1
1335,40,1,28,1,-12,1,-34,1,26,1,8,1,7,1,52,1,56,1,58,1,45,1,21,1
1336,38,1,24,1,-14,1,-31,1,26,1,5,1,6,1,47,1,51,1,52,1,41,1,17,1
1337,35,1,21,1,-14,1,-28,1,25,1,4,1,6,1,42,1,46,1,47,1,37,1,13,1
1338,32,1,17,1,-15,1,-24,1,24,1,1,1,6,1,37,1,41,1,43,1,33,1,9,1
1339,29,1,14,1,-15,1,-21,1,22,1,0,1,6,1,32,1,36,1,39,1,29,1,6,1
1340,26,1,11,1,-15,1,-18,1,21,1,-2,1,5,1,27,1,30,1,35,1,25,1,3,1
1341,24,1,8,1,-16,1,-16,1,20,1,-4,1,5,1,23,1,26,1,31,1,21,1,0,1
1342,23,1,7,1,-16,1,-15,1,20,1,-4,1,4,1,19,1,22,1,27,1,18,1,-2,1
1343,21,1,5,1,-16,1,-13,1,19,1,-5,1,3,1,14,1,18,1,23,1,14,1,-4,1
1344,18,1,3,1,-15,1,-10,1,17,1,-6,1,2,1,9,1,14,1,20,1,10,1,-6,1
1345,17,1,2,1,-15,1,-9,1,16,1,-6,1,1,1,5,1,12,1,17,1,8,1,-8,1
1346,15,1,1,1,-14,1,-8,1,15,1,-6,1,1,1,1,1,9,1,14,1,6,1,-9,1
1347,13,1,0,1,-13,1,-6,1,13,1,-6,1,1,1,-2,1,7,1,12,1,4,1,-10,1
1348,11,1,-2,1,-13,1,-4,1,12,1,-7,1,0,1,-4,1,5,1,9,1,2,1,-12,1
1349,10,1,-3,1,-13,1,-3,1,11,1,-8,1,0,1,-7,1,2,1,6,1,0,1,-14,1
1350,9,1,-5,1,-14,1,-2,1,11,1,-9,1,-1,1,-10,1,0,1,3,1,-2,1,-16,1
1351,8,1,-6,1,-14,1,-1,1,11,1,-10,1,-1,1,-12,1,-2,1,1,1,-4,1,-18,1
1352,8,1,-7,1,-15,1,0,1,11,1,-11,1,-1,1,-14,1,-5,1,-1,1,-6,1,-19,1
1353,8,1,-7,1,-15,1,0,1,11,1,-11,1,-1,1,-16,1,-6,1,-3,1,-8,1,-20,1
1354,6,1,-9,1,-15,1,1,1,10,1,-12,1,-1,1,-18,1,-9,1,-4,1,-9,1,-21,1
1355,4,1,-11,1,-15,1,3,1,9,1,-13,1,-1,1,-19,1,-11,1,-6,1,-11,1,-23,1
1356,3,1,-13,1,-16,1,5,1,9,1,-14,1,-1,1,-20,1,-12,1,-6,1,-11,1,-25,1
1357,2,1,-14,1,-16,1,6,1,9,1,-15,1,0,1,-21,1,-13,1,-7,1,-12,1,-26,1
1358,2,1,-14,1,-16,1,6,1,9,1,-15,1,-1,1,-22,1,-15,1,-9,1,-13,1,-27,1
1359,1,1,-14,1,-15,1,6,1,8,1,-14,1,-1,1,-24,1,-17,1,-10,1,-14,1,-29,1
1360,1,1,-15,1,-16,1,7,1,8,1,-15,1,-2,1,-26,1,-18,1,-11,1,-15,1,-30,1
1361,0,1,-16,1,-16,1,8,1,8,1,-16,1,-2,1,-27,1,-19,1,-12,1,-16,1,-31,1
1362,0,1,-16,1,-16,1,8,1,8,1,-16,1,-2,1,-28,1,-21,1,-13,1,-17,1,-32,1
1363,0,1,-16,1,-16,1,8,1,8,1,-16,1,-1,1,-29,1,-21,1,-14,1,-18,1,-32,1
1364,0,1,-16,1,-16,1,8,1,8,1,-16,1,-2,1,-29,1,-22,1,-14,1,-18,1,-33,1
1365,-1,1,-16,1,-15,1,8,1,7,1,-16,1,-2,1,-29,1,-23,1,-14,1,-18,1,-33,1
1366,-1,1,-16,1,-15,1,8,1,7,1,-16,1,-2,1,-29,1,-23,1,-15,1,-19,1,-34,1
1367,-2,1,-16,1,-14,1,9,1,6,1,-15,1,-2,1,-30,1,-23,1,-15,1,-19,1,-35,1
1368,-2,1,-16,1,-14,1,9,1,6,1,-15,1,-3,1,-31,1,-24,1,-15,1,-20,1,-36,1
1369,-3,1,-17,1,-14,1,10,1,5,1,-16,1,-3,1,-31,1,-24,1,-15,1,-20,1,-37,1
1370,-3,1,-18,1,-15,1,10,1,6,1,-17,1,-4,1,-32,1,-24,1,-16,1,-20,1,-37,1
1371,-4,1,-18,1,-14,1,11,1,5,1,-16,1,-5,1,-33,1,-25,1,-16,1,-21,1,-38,1
1372,-3,1,-19,1,-16,1,11,1,6,1,-18,1,-5,1,-32,1,-24,1,-16,1,-21,1,-37,1
1373,-2,1,-18,1,-16,1,10,1,7,1,-17,1,-4,1,-31,1,-23,1,-16,1,-21,1,-37,1
1374,-2,1,-17,1,-15,1,9,1,6,1,-16,1,-4,1,-31,1,-23,1,-16,1,-21,1,-37,1
1375,-2,1,-17,1,-15,1,9,1,6,1,-16,1,-3,1,-30,1,-21,1,-15,1,-20,1,-37,1
1376,-2,1,-17,1,-15,1,9,1,6,1,-16,1,-3,1,-30,1,-21,1,-17,1,-20,1,-37,1
1377,-1,1,-17,1,-16,1,9,1,7,1,-17,1,-4,1,-30,1,-21,1,-17,1,-19,1,-37,1
1378,-1,1,-17,1,-16,1,9,1,7,1,-17,1,-4,1,-30,1,-21,1,-16,1,-19,1,-37,1
1379,0,1,-17,1,-17,1,8,1,8,1,-17,1,-4,1,-30,1,-21,1,-16,1,-19,1,-37,1
1380,0,1,-16,1,-16,1,8,1,8,1,-16,1,-4,1,-31,1,-21,1,-16,1,-20,1,-37,1
1381,-1,1,-17,1,-16,1,9,1,7,1,-17,1,-4,1,-31,1,-21,1,-16,1,-20,1,-36,1
1382,-1,1,-18,1,-17,1,9,1,8,1,-18,1,-4,1,-31,1,-21,1,-16,1,-21,1,-36,1
1383,-1,1,-18,1,-17,1,9,1,8,1,-18,1,-4,1,-32,1,-21,1,-16,1,-21,1,-37,1
1384,-1,1,-19,1,-18,1,10,1,8,1,-19,1,-3,1,-31,1,-20,1,-16,1,-21,1,-36,1
1385,-2,1,-18,1,-16,1,10,1,7,1,-17,1,-3,1,-30,1,-20,1,-16,1,-21,1,-36,1
1386,-2,1,-18,1,-16,1,10,1,7,1,-17,1,-2,1,-29,1,-19,1,-15,1,-21,1,-35,1
1387,-3,1,-18,1,-15,1,10,1,6,1,-17,1,-2,1,-28,1,-19,1,-15,1,-21,1,-35,1
1388,-3,1,-18,1,-15,1,10,1,6,1,-17,1,-2,1,-29,1,-19,1,-15,1,-22,1,-35,1
1389,-3,1,-17,1,-14,1,10,1,5,1,-16,1,-2,1,-29,1,-19,1,-14,1,-22,1,-35,1
1390,-2,1,-16,1,-14,1,9,1,6,1,-15,1,-2,1,-29,1,-19,1,-14,1,-21,1,-35,1
1391,-2,1,-16,1,-14,1,9,1,6,1,-15,1,-3,1,-29,1,-19,1,-14,1,-21,1,-35,1
1392,-2,1,-16,1,-14,1,9,1,6,1,-15,1,-4,1,-29,1,-19,1,-15,1,-21,1,-35,1
1393,-1,1,-16,1,-15,1,8,1,7,1,-16,1,-4,1,-29,1,-19,1,-15,1,-21,1,-35,1
1394,0,1,-16,1,-16,1,8,1,8,1,-16,1,-4,1,-28,1,-18,1,-14,1,-20,1,-34,1
1395,0,1,-15,1,-15,1,7,1,7,1,-15,1,-4,1,-27,1,-17,1,-14,1,-20,1,-34,1
1396,0,1,-16,1,-16,1,8,1,8,1,-16,1,-4,1,-27,1,-17,1,-14,1,-20,1,-35,1
1397,0,1,-17,1,-17,1,8,1,8,1,-17,1,-4,1,-27,1,-17,1,-14,1,-20,1,-35,1
1398,0,1,-16,1,-16,1,8,1,8,1,-16,1,-4,1,-27,1,-17,1,-13,1,-20,1,-36,1
1399,-1,1,-16,1,-15,1,8,1,7,1,-16,1,-4,1,-26,1,-16,1,-13,1,-20,1,-36,1
1400,-1,1,-16,1,-15,1,8,1,7,1,-16,1,-4,1,-26,1,-16,1,-14,1,-21,1,-36,1
1401,-2,1,-16,1,-14,1,9,1,6,1,-15,1,-5,1,-26,1,-17,1,-13,1,-21,1,-36,1
1402,-3,1,-15,1,-12,1,9,1,4,1,-14,1,-4,1,-26,1,-17,1,-13,1,-21,1,-36,1
1403,-3,1,-16,1,-13,1,9,1,5,1,-15,1,-4,1,-26,1,-17,1,-12,1,-20,1,-35,1
1404,-3,1,-16,1,-13,1,9,1,5,1,-15,1,-4,1,-26,1,-17,1,-12,1,-20,1,-34,1
1405,-2,1,-16,1,-14,1,9,1,6,1,-15,1,-4,1,-25,1,-17,1,-11,1,-20,1,-33,1
1406,-1,1,-15,1,-14,1,8,1,6,1,-15,1,-3,1,-24,1,-15,1,-10,1,-19,1,-32,1
1407,-1,1,-16,1,-15,1,8,1,7,1,-16,1,-3,1,-24,1,-15,1,-10,1,-19,1,-32,1
1408,-1,1,-16,1,-15,1,8,1,7,1,-16,1,-4,1,-25,1,-15,1,-10,1,-20,1,-32,1
1409,0,1,-16,1,-16,1,8,1,8,1,-16,1,-3,1,-24,1,-15,1,-10,1,-20,1,-33,1
1410,0,1,-15,1,-15,1,7,1,7,1,-15,1,-3,1,-24,1,-15,1,-10,1,-19,1,-33,1
1411,0,1,-15,1,-15,1,7,1,7,1,-15,1,-3,1,-25,1,-16,1,-11,1,-20,1,-33,1
1412,-1,1,-15,1,-14,1,8,1,6,1,-15,1,-3,1,-25,1,-16,1,-11,1,-20,1,-34,1
1413,-1,1,-14,1,-13,1,7,1,6,1,-14,1,-3,1,-25,1,-16,1,-11,1,-20,1,-34,1
1414,-2,1,-14,1,-12,1,8,1,5,1,-13,1,-3,1,-25,1,-16,1,-11,1,-20,1,-36,1
1415,-2,1,-14,1,-12,1,8,1,5,1,-13,1,-3,1,-25,1,-15,1,-10,1,-20,1,-35,1
1416,-2,1,-15,1,-13,1,8,1,5,1,-14,1,-2,1,-25,1,-16,1,-10,1,-20,1,-35,1
1417,-1,1,-14,1,-13,1,7,1,6,1,-14,1,-2,1,-25,1,-16,1,-10,1,-21,1,-35,1
1418,0,1,-13,1,-13,1,6,1,6,1,-13,1,-2,1,-25,1,-16,1,-9,1,-20,1,-35,1
1419,0,1,-14,1,-14,1,7,1,7,1,-14,1,-2,1,-25,1,-16,1,-9,1,-20,1,-35,1
1420,1,1,-14,1,-15,1,6,1,8,1,-14,1,-2,1,-26,1,-16,1,-9,1,-19,1,-34,1
1421,0,1,-14,1,-14,1,7,1,7,1,-14,1,-2,1,-26,1,-16,1,-9,1,-19,1,-34,1
1422,0,1,-14,1,-14,1,7,1,7,1,-14,1,-3,1,-26,1,-17,1,-9,1,-18,1,-34,1
1423,0,1,-13,1,-13,1,6,1,6,1,-13,1,-3,1,-27,1,-17,1,-10,1,-18,1,-34,1
1424,0,1,-13,1,-13,1,6,1,6,1,-13,1,-4,1,-26,1,-16,1,-9,1,-17,1,-33,1
1425,0,1,-13,1,-13,1,6,1,6,1,-13,1,-4,1,-25,1,-16,1,-9,1,-17,1,-33,1
1426,0,1,-12,1,-12,1,6,1,6,1,-12,1,-4,1,-25,1,-16,1,-9,1,-17,1,-34,1
1427,1,1,-12,1,-13,1,5,1,7,1,-12,1,-3,1,-24,1,-16,1,-9,1,-18,1,-34,1
1428,1,1,-12,1,-13,1,5,1,7,1,-12,1,-3,1,-24,1,-16,1,-9,1,-18,1,-34,1
1429,1,1,-12,1,-13,1,5,1,7,1,-12,1,-3,1,-25,1,-17,1,-10,1,-19,1,-34,1
1430,1,1,-12,1,-13,1,5,1,7,1,-12,1,-4,1,-25,1,-18,1,-10,1,-19,1,-34,1
1431,1,1,-13,1,-14,1,6,1,7,1,-13,1,-4,1,-25,1,-18,1,-10,1,-19,1,-34,1
1432,1,1,-14,1,-15,1,6,1,8,1,-14,1,-3,1,-25,1,-19,1,-11,1,-19,1,-34,1
1433,1,1,-14,1,-15,1,6,1,8,1,-14,1,-2,1,-25,1,-19,1,-12,1,-19,1,-34,1
1434,0,1,-14,1,-14,1,7,1,7,1,-14,1,-2,1,-25,1,-19,1,-12,1,-20,1,-35,1
1435,0,1,-15,1,-15,1,7,1,7,1,-15,1,-2,1,-25,1,-19,1,-13,1,-20,1,-35,1
1436,0,1,-15,1,-15,1,7,1,7,1,-15,1,0,1,-25,1,-17,1,-12,1,-20,1,-36,1
1437,0,1,-16,1,-16,1,8,1,8,1,-16,1,0,1,-25,1,-17,1,-12,1,-19,1,-35,1
1438,1,1,-15,1,-16,1,7,1,8,1,-15,1,0,1,-25,1,-17,1,-12,1,-19,1,-35,1
1439,1,1,-14,1,-15,1,6,1,8,1,-14,1,-1,1,-25,1,-17,1,-12,1,-19,1,-36,1
1440,1,1,-14,1,-15,1,6,1,8,1,-14,1,-1,1,-26,1,-16,1,-12,1,-19,1,-36,1
1441,1,1,-14,1,-15,1,6,1,8,1,-14,1,-2,1,-26,1,-16,1,-12,1,-20,1,-36,1
1442,1,1,-13,1,-14,1,6,1,7,1,-13,1,-2,1,-26,1,-16,1,-13,1,-20,1,-36,1
1443,0,1,-14,1,-14,1,7,1,7,1,-14,1,-2,1,-26,1,-16,1,-13,1,-20,1,-37,1
1444,0,1,-14,1,-14,1,7,1,7,1,-14,1,-3,1,-26,1,-16,1,-13,1,-21,1,-38,1
1445,-1,1,-14,1,-13,1,7,1,6,1,-14,1,-3,1,-26,1,-16,1,-13,1,-22,1,-38,1
1446,-1,1,-14,1,-13,1,7,1,6,1,-14,1,-3,1,-26,1,-17,1,-13,1,-22,1,-39,1
1447,-1,1,-14,1,-13,1,7,1,6,1,-14,1,-3,1,-26,1,-17,1,-14,1,-23,1,-39,1
1448,-1,1,-14,1,-13,1,7,1,6,1,-14,1,-4,1,-26,1,-17,1,-14,1,-23,1,-38,1
1449,0,1,-14,1,-14,1,7,1,7,1,-14,1,-4,1,-27,1,-18,1,-14,1,-23,1,-38,1
1450,-1,1,-14,1,-13,1,7,1,6,1,-14,1,-4,1,-28,1,-19,1,-15,1,-22,1,-38,1
1451,-1,1,-15,1,-14,1,8,1,6,1,-15,1,-4,1,-28,1,-19,1,-15,1,-22,1,-37,1
1452,-1,1,-15,1,-14,1,8,1,6,1,-15,1,-3,1,-28,1,-19,1,-16,1,-22,1,-37,1
1453,0,1,-15,1,-15,1,7,1,7,1,-15,1,-3,1,-28,1,-19,1,-16,1,-22,1,-36,1
1454,1,1,-15,1,-16,1,7,1,8,1,-15,1,-3,1,-27,1,-19,1,-16,1,-23,1,-36,1
1455,0,1,-15,1,-15,1,7,1,7,1,-15,1,-3,1,-27,1,-19,1,-16,1,-23,1,-37,1
1456,0,1,-15,1,-15,1,7,1,7,1,-15,1,-3,1,-28,1,-19,1,-17,1,-24,1,-38,1
1457,-1,1,-16,1,-15,1,8,1,7,1,-16,1,-4,1,-29,1,-19,1,-17,1,-24,1,-38,1
1458,-1,1,-16,1,-15,1,8,1,7,1,-16,1,-4,1,-29,1,-18,1,-17,1,-24,1,-38,1
1459,-1,1,-16,1,-15,1,8,1,7,1,-16,1,-4,1,-29,1,-18,1,-16,1,-23,1,-38,1
1460,-1,1,-16,1,-15,1,8,1,7,1,-16,1,-4,1,-29,1,-18,1,-17,1,-23,1,-38,1
1461,-1,1,-16,1,-15,1,8,1,7,1,-16,1,-5,1,-30,1,-18,1,-17,1,-24,1,-39,1
1462,0,1,-16,1,-16,1,8,1,8,1,-16,1,-5,1,-30,1,-17,1,-17,1,-24,1,-39,1
1463,-1,1,-17,1,-16,1,9,1,7,1,-17,1,-5,1,-30,1,-18,1,-18,1,-25,1,-39,1
1464,-1,1,-16,1,-15,1,8,1,7,1,-16,1,-4,1,-29,1,-18,1,-19,1,-24,1,-38,1
1465,-1,1,-16,1,-15,1,8,1,7,1,-16,1,-4,1,-28,1,-17,1,-19,1,-24,1,-37,1
1466,-2,1,-16,1,-14,1,9,1,6,1,-15,1,-5,1,-29,1,-19,1,-20,1,-24,1,-36,1
1467,-3,1,-17,1,-14,1,10,1,5,1,-16,1,-6,1,-29,1,-19,1,-21,1,-25,1,-36,1
1468,-2,1,-17,1,-15,1,9,1,6,1,-16,1,-6,1,-29,1,-20,1,-21,1,-25,1,-36,1
1469,-1,1,-17,1,-16,1,9,1,7,1,-17,1,-7,1,-29,1,-21,1,-21,1,-25,1,-36,1
1470,-1,1,-18,1,-17,1,9,1,8,1,-18,1,-7,1,-30,1,-21,1,-21,1,-26,1,-36,1
1471,-3,1,-19,1,-16,1,11,1,6,1,-18,1,-7,1,-31,1,-21,1,-22,1,-26,1,-36,1
1472,-3,1,-18,1,-15,1,10,1,6,1,-17,1,-8,1,-32,1,-21,1,-22,1,-26,1,-36,1
1473,-2,1,-17,1,-15,1,9,1,6,1,-16,1,-7,1,-31,1,-21,1,-22,1,-25,1,-37,1
1474,-3,1,-17,1,-14,1,10,1,5,1,-16,1,-8,1,-31,1,-21,1,-21,1,-25,1,-36,1
1475,-2,1,-16,1,-14,1,9,1,6,1,-15,1,-8,1,-31,1,-21,1,-22,1,-25,1,-37,1
1476,-2,1,-15,1,-13,1,8,1,5,1,-14,1,-8,1,-31,1,-21,1,-22,1,-25,1,-37,1
1477,-1,1,-15,1,-14,1,8,1,6,1,-15,1,-7,1,-31,1,-21,1,-21,1,-25,1,-36,1
1478,-1,1,-16,1,-15,1,8,1,7,1,-16,1,-6,1,-31,1,-22,1,-21,1,-25,1,-37,1
1479,-1,1,-16,1,-15,1,8,1,7,1,-16,1,-5,1,-31,1,-22,1,-22,1,-26,1,-37,1
1480,-1,1,-17,1,-16,1,9,1,7,1,-17,1,-6,1,-32,1,-22,1,-22,1,-27,1,-37,1
1481,-1,1,-18,1,-17,1,9,1,8,1,-18,1,-6,1,-32,1,-23,1,-22,1,-28,1,-38,1
1482,-1,1,-18,1,-17,1,9,1,8,1,-18,1,-6,1,-32,1,-23,1,-23,1,-28,1,-38,1
1483,-1,1,-18,1,-17,1,9,1,8,1,-18,1,-5,1,-33,1,-23,1,-22,1,-28,1,-37,1
1484,-1,1,-18,1,-17,1,9,1,8,1,-18,1,-6,1,-33,1,-23,1,-23,1,-28,1,-36,1
1485,-2,1,-18,1,-16,1,10,1,7,1,-17,1,-6,1,-33,1,-23,1,-23,1,-28,1,-35,1
1486,-1,1,-18,1,-17,1,9,1,8,1,-18,1,-6,1,-33,1,-24,1,-22,1,-28,1,-34,1
1487,-1,1,-19,1,-18,1,10,1,8,1,-19,1,-6,1,-33,1,-23,1,-23,1,-28,1,-34,1
1488,-1,1,-19,1,-18,1,10,1,8,1,-19,1,-6,1,-34,1,-23,1,-23,1,-28,1,-34,1
1489,-1,1,-19,1,-18,1,10,1,8,1,-19,1,-6,1,-34,1,-23,1,-22,1,-28,1,-35,1
1490,0,1,-18,1,-18,1,9,1,9,1,-18,1,-6,1,-34,1,-23,1,-21,1,-28,1,-35,1
1491,-1,1,-18,1,-17,1,9,1,8,1,-18,1,-7,1,-35,1,-23,1,-21,1,-28,1,-36,1
1492,-1,1,-18,1,-17,1,9,1,8,1,-18,1,-7,1,-36,1,-23,1,-21,1,-28,1,-37,1
1493,-2,1,-18,1,-16,1,10,1,7,1,-17,1,-8,1,-36,1,-23,1,-22,1,-29,1,-38,1
1494,-2,1,-19,1,-17,1,10,1,7,1,-18,1,-8,1,-36,1,-23,1,-23,1,-29,1,-38,1
1495,-2,1,-19,1,-17,1,10,1,7,1,-18,1,-8,1,-36,1,-23,1,-23,1,-29,1,-38,1
1496,-3,1,-19,1,-16,1,11,1,6,1,-18,1,-8,1,-36,1,-23,1,-23,1,-29,1,-37,1
1497,-3,1,-18,1,-15,1,10,1,6,1,-17,1,-9,1,-36,1,-24,1,-24,1,-30,1,-37,1
1498,-3,1,-18,1,-15,1,10,1,6,1,-17,1,-9,1,-36,1,-24,1,-24,1,-29,1,-36,1
1499,-2,1,-17,1,-15,1,9,1,6,1,-16,1,-9,1,-36,1,-24,1,-24,1,-29,1,-35,1
1500,-2,1,-17,1,-15,1,9,1,6,1,-16,1,-10,1,-36,1,-24,1,-24,1,-29,1,-35,1
1501,-3,1,-18,1,-15,1,10,1,6,1,-17,1,-10,1,-37,1,-24,1,-25,1,-29,1,-35,1
1502,-4,1,-19,1,-15,1,11,1,5,1,-17,1,-11,1,-37,1,-24,1,-24,1,-29,1,-35,1
1503,-5,1,-19,1,-14,1,12,1,4,1,-17,1,-11,1,-37,1,-24,1,-24,1,-28,1,-34,1
1504,-4,1,-19,1,-15,1,11,1,5,1,-17,1,-10,1,-36,1,-23,1,-23,1,-28,1,-34,1
1505,-3,1,-19,1,-16,1,11,1,6,1,-18,1,-11,1,-35,1,-23,1,-23,1,-27,1,-34,1
1506,-3,1,-19,1,-16,1,11,1,6,1,-18,1,-11,1,-35,1,-23,1,-24,1,-27,1,-34,1
1507,-5,1,-19,1,-14,1,12,1,4,1,-17,1,-11,1,-35,1,-23,1,-23,1,-26,1,-33,1
1508,-4,1,-18,1,-14,1,11,1,5,1,-16,1,-11,1,-34,1,-22,1,-23,1,-26,1,-32,1
1509,-4,1,-18,1,-14,1,11,1,5,1,-16,1,-10,1,-35,1,-22,1,-23,1,-26,1,-31,1
1510,-4,1,-17,1,-13,1,10,1,4,1,-15,1,-11,1,-35,1,-23,1,-24,1,-28,1,-32,1
1511,-4,1,-18,1,-14,1,11,1,5,1,-16,1,-11,1,-36,1,-23,1,-24,1,-28,1,-32,1
1512,-3,1,-18,1,-15,1,10,1,6,1,-17,1,-11,1,-36,1,-24,1,-24,1,-29,1,-31,1
1513,-3,1,-18,1,-15,1,10,1,6,1,-17,1,-11,1,-36,1,-24,1,-24,1,-29,1,-32,1
1514,-3,1,-18,1,-15,1,10,1,6,1,-17,1,-11,1,-36,1,-25,1,-24,1,-29,1,-32,1
1515,-2,1,-18,1,-16,1,10,1,7,1,-17,1,-10,1,-36,1,-25,1,-24,1,-29,1,-32,1
1516,-2,1,-18,1,-16,1,10,1,7,1,-17,1,-10,1,-35,1,-25,1,-25,1,-29,1,-33,1
1517,-3,1,-20,1,-17,1,11,1,7,1,-19,1,-10,1,-35,1,-25,1,-26,1,-30,1,-33,1
1518,-4,1,-21,1,-17,1,12,1,6,1,-19,1,-10,1,-35,1,-25,1,-26,1,-30,1,-33,1
1519,-4,1,-20,1,-16,1,12,1,6,1,-18,1,-10,1,-35,1,-25,1,-26,1,-29,1,-33,1
1520,-4,1,-20,1,-16,1,12,1,6,1,-18,1,-10,1,-35,1,-25,1,-26,1,-29,1,-32,1
1521,-5,1,-20,1,-15,1,12,1,5,1,-18,1,-9,1,-35,1,-25,1,-26,1,-29,1,-32,1
1522,-5,1,-20,1,-15,1,12,1,5,1,-18,1,-9,1,-36,1,-26,1,-27,1,-29,1,-33,1
1523,-4,1,-20,1,-16,1,12,1,6,1,-18,1,-9,1,-36,1,-26,1,-27,1,-28,1,-32,1
1524,-3,1,-20,1,-17,1,11,1,7,1,-19,1,-9,1,-36,1,-26,1,-26,1,-27,1,-33,1
1525,-2,1,-20,1,-18,1,11,1,8,1,-19,1,-9,1,-36,1,-26,1,-25,1,-27,1,-33,1
1526,-2,1,-20,1,-18,1,11,1,8,1,-19,1,-10,1,-36,1,-26,1,-25,1,-26,1,-33,1
1527,-3,1,-20,1,-17,1,11,1,7,1,-19,1,-9,1,-37,1,-27,1,-25,1,-26,1,-33,1
1528,-3,1,-20,1,-17,1,11,1,7,1,-19,1,-8,1,-38,1,-27,1,-25,1,-26,1,-33,1
1529,-4,1,-20,1,-16,1,12,1,6,1,-18,1,-8,1,-38,1,-26,1,-25,1,-27,1,-32,1
1530,-4,1,-20,1,-16,1,12,1,6,1,-18,1,-8,1,-38,1,-26,1,-25,1,-27,1,-32,1
1531,-3,1,-18,1,-15,1,10,1,6,1,-17,1,-9,1,-38,1,-26,1,-25,1,-27,1,-32,1
1532,-3,1,-18,1,-15,1,10,1,6,1,-17,1,-9,1,-38,1,-26,1,-25,1,-26,1,-32,1
1533,-3,1,-18,1,-15,1,10,1,6,1,-17,1,-9,1,-37,1,-27,1,-26,1,-26,1,-32,1
1534,-3,1,-18,1,-15,1,10,1,6,1,-17,1,-9,1,-36,1,-26,1,-26,1,-25,1,-31,1
1535,-3,1,-18,1,-15,1,10,1,6,1,-17,1,-8,1,-35,1,-26,1,-26,1,-24,1,-31,1
1536,-4,1,-20,1,-16,1,12,1,6,1,-18,1,-8,1,-35,1,-26,1,-26,1,-24,1,-31,1
1537,-4,1,-19,1,-15,1,11,1,5,1,-17,1,-8,1,-34,1,-26,1,-28,1,-24,1,-31,1
1538,-3,1,-19,1,-16,1,11,1,6,1,-18,1,-8,1,-34,1,-25,1,-29,1,-24,1,-30,1
1539,-2,1,-19,1,-17,1,10,1,7,1,-18,1,-8,1,-34,1,-24,1,-29,1,-24,1,-30,1
1540,-2,1,-18,1,-16,1,10,1,7,1,-17,1,-8,1,-35,1,-24,1,-29,1,-24,1,-31,1
1541,-2,1,-18,1,-16,1,10,1,7,1,-17,1,-8,1,-35,1,-23,1,-28,1,-24,1,-31,1
1542,-3,1,-19,1,-16,1,11,1,6,1,-18,1,-8,1,-36,1,-23,1,-28,1,-25,1,-31,1
1543,-4,1,-19,1,-15,1,11,1,5,1,-17,1,-8,1,-36,1,-24,1,-27,1,-25,1,-31,1
1544,-4,1,-19,1,-15,1,11,1,5,1,-17,1,-8,1,-35,1,-23,1,-27,1,-25,1,-30,1
1545,-3,1,-19,1,-16,1,11,1,6,1,-18,1,-8,1,-35,1,-23,1,-26,1,-24,1,-29,1
1546,-2,1,-19,1,-17,1,10,1,7,1,-18,1,-8,1,-35,1,-23,1,-27,1,-24,1,-28,1
1547,-3,1,-19,1,-16,1,11,1,6,1,-18,1,-8,1,-35,1,-24,1,-27,1,-24,1,-27,1
1548,-3,1,-20,1,-17,1,11,1,7,1,-19,1,-9,1,-36,1,-24,1,-28,1,-24,1,-27,1
1549,-3,1,-20,1,-17,1,11,1,7,1,-19,1,-8,1,-36,1,-24,1,-27,1,-24,1,-28,1
1550,-3,1,-19,1,-16,1,11,1,6,1,-18,1,-8,1,-36,1,-24,1,-27,1,-23,1,-27,1
1551,-3,1,-20,1,-17,1,11,1,7,1,-19,1,-9,1,-37,1,-24,1,-27,1,-23,1,-27,1
1552,-3,1,-19,1,-16,1,11,1,6,1,-18,1,-10,1,-37,1,-23,1,-26,1,-22,1,-26,1
1553,-4,1,-18,1,-14,1,11,1,5,1,-16,1,-9,1,-37,1,-23,1,-25,1,-22,1,-26,1
1554,-4,1,-18,1,-14,1,11,1,5,1,-16,1,-9,1,-38,1,-23,1,-26,1,-23,1,-26,1
1555,-4,1,-18,1,-14,1,11,1,5,1,-16,1,-8,1,-38,1,-22,1,-26,1,-23,1,-26,1
1556,-5,1,-18,1,-13,1,11,1,4,1,-16,1,-8,1,-38,1,-23,1,-27,1,-24,1,-26,1
1557,-5,1,-20,1,-15,1,12,1,5,1,-18,1,-8,1,-38,1,-22,1,-27,1,-24,1,-27,1
1558,-3,1,-20,1,-17,1,11,1,7,1,-19,1,-8,1,-37,1,-21,1,-27,1,-23,1,-26,1
1559,-2,1,-19,1,-17,1,10,1,7,1,-18,1,-8,1,-36,1,-21,1,-28,1,-23,1,-25,1
1560,-2,1,-19,1,-17,1,10,1,7,1,-18,1,-8,1,-37,1,-22,1,-28,1,-23,1,-26,1
1561,-2,1,-18,1,-16,1,10,1,7,1,-17,1,-9,1,-37,1,-22,1,-28,1,-23,1,-26,1
1562,-2,1,-18,1,-16,1,10,1,7,1,-17,1,-9,1,-37,1,-22,1,-29,1,-23,1,-26,1
1563,-3,1,-18,1,-15,1,10,1,6,1,-17,1,-9,1,-38,1,-22,1,-29,1,-23,1,-26,1
1564,-4,1,-19,1,-15,1,11,1,5,1,-17,1,-9,1,-38,1,-21,1,-28,1,-23,1,-26,1
1565,-4,1,-19,1,-15,1,11,1,5,1,-17,1,-9,1,-37,1,-21,1,-28,1,-23,1,-26,1
1566,-4,1,-19,1,-15,1,11,1,5,1,-17,1,-9,1,-37,1,-21,1,-28,1,-22,1,-25,1
1567,-4,1,-20,1,-16,1,12,1,6,1,-18,1,-9,1,-37,1,-21,1,-28,1,-22,1,-24,1
1568,-4,1,-20,1,-16,1,12,1,6,1,-18,1,-9,1,-37,1,-22,1,-28,1,-22,1,-25,1
1569,-4,1,-19,1,-15,1,11,1,5,1,-17,1,-9,1,-38,1,-21,1,-27,1,-23,1,-25,1
1570,-3,1,-19,1,-16,1,11,1,6,1,-18,1,-10,1,-38,1,-21,1,-27,1,-23,1,-25,1
1571,-4,1,-20,1,-16,1,12,1,6,1,-18,1,-11,1,-39,1,-22,1,-27,1,-24,1,-26,1
1572,-4,1,-21,1,-17,1,12,1,6,1,-19,1,-10,1,-40,1,-22,1,-27,1,-23,1,-26,1
1573,-3,1,-20,1,-17,1,11,1,7,1,-19,1,-9,1,-39,1,-21,1,-27,1,-23,1,-26,1
1574,-3,1,-18,1,-15,1,10,1,6,1,-17,1,-8,1,-38,1,-21,1,-27,1,-23,1,-26,1
1575,-4,1,-18,1,-14,1,11,1,5,1,-16,1,-7,1,-38,1,-21,1,-27,1,-23,1,-26,1
1576,-4,1,-18,1,-14,1,11,1,5,1,-16,1,-7,1,-38,1,-21,1,-27,1,-22,1,-25,1
1577,-4,1,-18,1,-14,1,11,1,5,1,-16,1,-7,1,-38,1,-21,1,-28,1,-22,1,-25,1
1578,-4,1,-18,1,-14,1,11,1,5,1,-16,1,-8,1,-38,1,-20,1,-28,1,-21,1,-25,1
1579,-4,1,-19,1,-15,1,11,1,5,1,-17,1,-8,1,-39,1,-20,1,-29,1,-21,1,-24,1
1580,-4,1,-19,1,-15,1,11,1,5,1,-17,1,-9,1,-40,1,-20,1,-30,1,-21,1,-24,1
1581,-3,1,-18,1,-15,1,10,1,6,1,-17,1,-8,1,-40,1,-20,1,-30,1,-21,1,-23,1
1582,-3,1,-19,1,-16,1,11,1,6,1,-18,1,-7,1,-40,1,-20,1,-30,1,-21,1,-23,1
1583,-3,1,-19,1,-16,1,11,1,6,1,-18,1,-7,1,-40,1,-20,1,-30,1,-21,1,-23,1
1584,-3,1,-19,1,-16,1,11,1,6,1,-18,1,-8,1,-40,1,-21,1,-29,1,-21,1,-23,1
1585,-5,1,-21,1,-16,1,13,1,5,1,-19,1,-8,1,-39,1,-21,1,-29,1,-21,1,-23,1
1586,-5,1,-20,1,-15,1,12,1,5,1,-18,1,-7,1,-37,1,-21,1,-28,1,-20,1,-23,1
1587,-4,1,-19,1,-15,1,11,1,5,1,-17,1,-6,1,-36,1,-22,1,-28,1,-20,1,-23,1
1588,-4,1,-19,1,-15,1,11,1,5,1,-17,1,-6,1,-36,1,-22,1,-28,1,-20,1,-22,1
1589,-4,1,-20,1,-16,1,12,1,6,1,-18,1,-6,1,-37,1,-22,1,-28,1,-20,1,-22,1
1590,-3,1,-20,1,-17,1,11,1,7,1,-19,1,-6,1,-38,1,-22,1,-28,1,-20,1,-21,1
1591,-2,1,-20,1,-18,1,11,1,8,1,-19,1,-6,1,-39,1,-22,1,-27,1,-19,1,-21,1
1592,-2,1,-19,1,-17,1,10,1,7,1,-18,1,-6,1,-38,1,-23,1,-27,1,-20,1,-21,1
1593,-2,1,-19,1,-17,1,10,1,7,1,-18,1,-6,1,-38,1,-23,1,-27,1,-20,1,-21,1
1594,-2,1,-20,1,-18,1,11,1,8,1,-19,1,-7,1,-37,1,-24,1,-27,1,-20,1,-20,1
1595,-3,1,-21,1,-18,1,12,1,7,1,-20,1,-7,1,-38,1,-26,1,-27,1,-20,1,-21,1
1596,-3,1,-21,1,-18,1,12,1,7,1,-20,1,-8,1,-39,1,-27,1,-28,1,-21,1,-21,1
1597,-4,1,-21,1,-17,1,12,1,6,1,-19,1,-9,1,-39,1,-27,1,-29,1,-21,1,-21,1
1598,-4,1,-21,1,-17,1,12,1,6,1,-19,1,-9,1,-39,1,-28,1,-30,1,-22,1,-21,1
1599,-4,1,-21,1,-17,1,12,1,6,1,-19,1,-9,1,-39,1,-29,1,-31,1,-22,1,-21,1
1600,-3,1,-20,1,-17,1,11,1,7,1,-19,1,-9,1,-39,1,-28,1,-30,1,-21,1,-20,1
1601,-3,1,-19,1,-16,1,11,1,6,1,-18,1,-8,1,-39,1,-28,1,-30,1,-21,1,-20,1
1602,-3,1,-19,1,-16,1,11,1,6,1,-18,1,-8,1,-40,1,-29,1,-30,1,-21,1,-20,1
1603,-3,1,-19,1,-16,1,11,1,6,1,-18,1,-7,1,-40,1,-29,1,-29,1,-21,1,-20,1
1604,-2,1,-19,1,-17,1,10,1,7,1,-18,1,-7,1,-41,1,-29,1,-29,1,-21,1,-20,1
1605,-1,1,-18,1,-17,1,9,1,8,1,-18,1,-7,1,-40,1,-29,1,-29,1,-21,1,-20,1
1606,-1,1,-18,1,-17,1,9,1,8,1,-18,1,-7,1,-39,1,-28,1,-29,1,-21,1,-19,1
1607,-2,1,-19,1,-17,1,10,1,7,1,-18,1,-7,1,-39,1,-28,1,-29,1,-21,1,-19,1
1608,-3,1,-19,1,-16,1,11,1,6,1,-18,1,-7,1,-38,1,-28,1,-29,1,-20,1,-19,1
1609,-2,1,-19,1,-17,1,10,1,7,1,-18,1,-7,1,-37,1,-28,1,-29,1,-20,1,-19,1
1610,-1,1,-18,1,-17,1,9,1,8,1,-18,1,-7,1,-37,1,-28,1,-29,1,-20,1,-18,1
1611,-1,1,-17,1,-16,1,9,1,7,1,-17,1,-7,1,-37,1,-27,1,-29,1,-20,1,-18,1
1612,-2,1,-18,1,-16,1,10,1,7,1,-17,1,-7,1,-37,1,-27,1,-29,1,-20,1,-18,1
1613,-2,1,-18,1,-16,1,10,1,7,1,-17,1,-7,1,-37,1,-26,1,-29,1,-20,1,-17,1
1614,0,1,-16,1,-16,1,8,1,8,1,-16,1,-8,1,-36,1,-26,1,-28,1,-19,1,-17,1
1615,0,1,-14,1,-14,1,7,1,7,1,-14,1,-8,1,-36,1,-25,1,-28,1,-19,1,-16,1
1616,1,1,-13,1,-14,1,6,1,7,1,-13,1,-8,1,-36,1,-24,1,-27,1,-18,1,-15,1
1617,0,1,-13,1,-13,1,6,1,6,1,-13,1,-7,1,-35,1,-23,1,-26,1,-18,1,-15,1
1618,0,1,-13,1,-13,1,6,1,6,1,-13,1,-6,1,-34,1,-23,1,-26,1,-18,1,-15,1
1619,1,1,-12,1,-13,1,5,1,7,1,-12,1,-4,1,-33,1,-23,1,-25,1,-17,1,-14,1
1620,2,1,-12,1,-14,1,5,1,8,1,-13,1,-2,1,-32,1,-23,1,-25,1,-16,1,-13,1
1621,3,1,-12,1,-15,1,4,1,9,1,-13,1,-2,1,-32,1,-23,1,-25,1,-15,1,-13,1
1622,3,1,-13,1,-16,1,5,1,9,1,-14,1,-3,1,-32,1,-21,1,-26,1,-16,1,-13,1
1623,2,1,-13,1,-15,1,5,1,8,1,-14,1,-3,1,-32,1,-21,1,-26,1,-15,1,-13,1
1624,2,1,-14,1,-16,1,6,1,9,1,-15,1,-2,1,-30,1,-20,1,-26,1,-16,1,-13,1
1625,1,1,-14,1,-15,1,6,1,8,1,-14,1,-2,1,-29,1,-20,1,-26,1,-16,1,-12,1
1626,2,1,-13,1,-15,1,5,1,8,1,-14,1,-1,1,-28,1,-19,1,-26,1,-15,1,-11,1
1627,3,1,-13,1,-16,1,5,1,9,1,-14,1,-1,1,-28,1,-18,1,-25,1,-15,1,-11,1
1628,2,1,-15,1,-17,1,6,1,9,1,-16,1,-1,1,-26,1,-17,1,-24,1,-13,1,-11,1
1629,3,1,-16,1,-19,1,6,1,11,1,-17,1,-1,1,-25,1,-17,1,-23,1,-12,1,-10,1
1630,5,1,-16,1,-21,1,5,1,13,1,-18,1,-1,1,-25,1,-16,1,-23,1,-11,1,-10,1
1631,6,1,-17,1,-23,1,5,1,14,1,-20,1,-2,1,-25,1,-16,1,-22,1,-11,1,-9,1
1632,6,1,-16,1,-22,1,5,1,14,1,-19,1,-4,1,-25,1,-16,1,-23,1,-11,1,-8,1
1633,7,1,-15,1,-22,1,4,1,14,1,-18,1,-5,1,-25,1,-16,1,-23,1,-10,1,-7,1
1634,8,1,-14,1,-22,1,3,1,15,1,-18,1,-5,1,-25,1,-16,1,-22,1,-10,1,-6,1
1635,9,1,-13,1,-22,1,2,1,15,1,-17,1,-6,1,-25,1,-15,1,-22,1,-9,1,-4,1
1636,10,1,-11,1,-21,1,0,1,15,1,-16,1,-6,1,-26,1,-16,1,-23,1,-9,1,-4,1
1637,10,1,-11,1,-21,1,0,1,15,1,-16,1,-7,1,-27,1,-16,1,-24,1,-9,1,-4,1
1638,10,1,-12,1,-22,1,1,1,16,1,-17,1,-8,1,-29,1,-17,1,-25,1,-11,1,-4,1
1639,9,1,-13,1,-22,1,2,1,15,1,-17,1,-10,1,-31,1,-18,1,-26,1,-12,1,-5,1
1640,8,1,-14,1,-22,1,3,1,15,1,-18,1,-11,1,-33,1,-19,1,-26,1,-13,1,-6,1
1641,7,1,-14,1,-21,1,3,1,14,1,-17,1,-12,1,-34,1,-21,1,-28,1,-15,1,-6,1
1642,6,1,-13,1,-19,1,3,1,12,1,-16,1,-12,1,-36,1,-23,1,-30,1,-16,1,-7,1
1643,6,1,-13,1,-19,1,3,1,12,1,-16,1,-13,1,-37,1,-23,1,-31,1,-17,1,-7,1
1644,5,1,-14,1,-19,1,4,1,12,1,-16,1,-13,1,-37,1,-23,1,-31,1,-17,1,-7,1
1645,5,1,-15,1,-20,1,5,1,12,1,-17,1,-12,1,-37,1,-22,1,-32,1,-17,1,-7,1
1646,5,1,-15,1,-20,1,5,1,12,1,-17,1,-11,1,-37,1,-23,1,-32,1,-18,1,-7,1
1647,5,1,-16,1,-21,1,5,1,13,1,-18,1,-10,1,-36,1,-23,1,-32,1,-17,1,-7,1
1648,5,1,-16,1,-21,1,5,1,13,1,-18,1,-10,1,-36,1,-23,1,-31,1,-17,1,-7,1
1649,4,1,-16,1,-20,1,6,1,12,1,-18,1,-10,1,-36,1,-23,1,-31,1,-16,1,-7,1
1650,3,1,-17,1,-20,1,7,1,11,1,-18,1,-11,1,-36,1,-23,1,-32,1,-15,1,-6,1
1651,4,1,-16,1,-20,1,6,1,12,1,-18,1,-11,1,-36,1,-24,1,-32,1,-15,1,-6,1
1652,5,1,-15,1,-20,1,5,1,12,1,-17,1,-12,1,-36,1,-24,1,-32,1,-15,1,-6,1
1653,5,1,-16,1,-21,1,5,1,13,1,-18,1,-12,1,-36,1,-24,1,-32,1,-16,1,-6,1
1654,6,1,-16,1,-22,1,5,1,14,1,-19,1,-11,1,-35,1,-24,1,-32,1,-16,1,-5,1
1655,5,1,-16,1,-21,1,5,1,13,1,-18,1,-11,1,-36,1,-24,1,-32,1,-17,1,-5,1
1656,4,1,-18,1,-22,1,7,1,13,1,-20,1,-10,1,-35,1,-23,1,-33,1,-17,1,-5,1
1657,4,1,-17,1,-21,1,6,1,12,1,-19,1,-10,1,-36,1,-24,1,-34,1,-17,1,-5,1
1658,4,1,-17,1,-21,1,6,1,12,1,-19,1,-11,1,-37,1,-25,1,-34,1,-17,1,-5,1
1659,2,1,-18,1,-20,1,8,1,11,1,-19,1,-11,1,-38,1,-25,1,-34,1,-16,1,-6,1
1660,1,1,-18,1,-19,1,8,1,10,1,-18,1,-12,1,-38,1,-26,1,-34,1,-16,1,-6,1
1661,0,1,-18,1,-18,1,9,1,9,1,-18,1,-12,1,-38,1,-27,1,-35,1,-17,1,-7,1
1662,-1,1,-18,1,-17,1,9,1,8,1,-18,1,-12,1,-38,1,-27,1,-35,1,-18,1,-8,1
1663,-2,1,-18,1,-16,1,10,1,7,1,-17,1,-12,1,-38,1,-27,1,-35,1,-18,1,-9,1
1664,-3,1,-19,1,-16,1,11,1,6,1,-18,1,-13,1,-40,1,-27,1,-37,1,-19,1,-9,1
1665,-3,1,-19,1,-16,1,11,1,6,1,-18,1,-12,1,-41,1,-26,1,-37,1,-20,1,-9,1
1666,-2,1,-19,1,-17,1,10,1,7,1,-18,1,-10,1,-41,1,-25,1,-37,1,-20,1,-9,1
1667,-2,1,-19,1,-17,1,10,1,7,1,-18,1,-10,1,-41,1,-25,1,-37,1,-20,1,-10,1
1668,-3,1,-20,1,-17,1,11,1,7,1,-19,1,-10,1,-42,1,-26,1,-37,1,-20,1,-11,1
1669,-4,1,-21,1,-17,1,12,1,6,1,-19,1,-10,1,-42,1,-26,1,-38,1,-20,1,-12,1
1670,-5,1,-21,1,-16,1,13,1,5,1,-19,1,-10,1,-42,1,-27,1,-38,1,-20,1,-12,1
1671,-4,1,-20,1,-16,1,12,1,6,1,-18,1,-10,1,-42,1,-27,1,-37,1,-19,1,-11,1
1672,-4,1,-21,1,-17,1,12,1,6,1,-19,1,-10,1,-42,1,-27,1,-38,1,-19,1,-11,1
1673,-5,1,-21,1,-16,1,13,1,5,1,-19,1,-9,1,-42,1,-27,1,-37,1,-19,1,-11,1
1674,-5,1,-22,1,-17,1,13,1,6,1,-20,1,-9,1,-42,1,-27,1,-37,1,-19,1,-10,1
1675,-5,1,-23,1,-18,1,14,1,6,1,-21,1,-11,1,-43,1,-28,1,-38,1,-19,1,-10,1
1676,-4,1,-22,1,-18,1,13,1,7,1,-20,1,-12,1,-44,1,-28,1,-37,1,-20,1,-11,1
1677,-5,1,-22,1,-17,1,13,1,6,1,-20,1,-12,1,-45,1,-29,1,-37,1,-20,1,-11,1
1678,-5,1,-22,1,-17,1,13,1,6,1,-20,1,-13,1,-45,1,-30,1,-37,1,-20,1,-11,1
1679,-5,1,-20,1,-15,1,12,1,5,1,-18,1,-13,1,-45,1,-30,1,-37,1,-19,1,-12,1
1680,-4,1,-20,1,-16,1,12,1,6,1,-18,1,-13,1,-45,1,-31,1,-37,1,-19,1,-13,1
1681,-4,1,-20,1,-16,1,12,1,6,1,-18,1,-12,1,-45,1,-32,1,-37,1,-19,1,-13,1
1682,-4,1,-20,1,-16,1,12,1,6,1,-18,1,-11,1,-45,1,-32,1,-37,1,-20,1,-14,1
1683,-4,1,-19,1,-15,1,11,1,5,1,-17,1,-10,1,-45,1,-32,1,-37,1,-19,1,-14,1
1684,-4,1,-19,1,-15,1,11,1,5,1,-17,1,-10,1,-44,1,-31,1,-36,1,-19,1,-14,1
1685,-4,1,-20,1,-16,1,12,1,6,1,-18,1,-10,1,-45,1,-32,1,-36,1,-20,1,-15,1
1686,-5,1,-20,1,-15,1,12,1,5,1,-18,1,-9,1,-45,1,-30,1,-36,1,-20,1,-15,1
1687,-5,1,-20,1,-15,1,12,1,5,1,-18,1,-8,1,-45,1,-30,1,-36,1,-20,1,-15,1
1688,-5,1,-20,1,-15,1,12,1,5,1,-18,1,-8,1,-45,1,-31,1,-36,1,-20,1,-15,1
1689,-6,1,-20,1,-14,1,13,1,4,1,-17,1,-9,1,-45,1,-32,1,-35,1,-20,1,-15,1
1690,-6,1,-19,1,-13,1,12,1,3,1,-16,1,-9,1,-45,1,-31,1,-34,1,-20,1,-14,1
1691,-5,1,-18,1,-13,1,11,1,4,1,-16,1,-10,1,-44,1,-31,1,-34,1,-20,1,-14,1
1692,-6,1,-18,1,-12,1,12,1,3,1,-15,1,-10,1,-44,1,-31,1,-36,1,-21,1,-15,1
1693,-7,1,-20,1,-13,1,13,1,3,1,-17,1,-10,1,-43,1,-30,1,-35,1,-21,1,-15,1
1694,-6,1,-21,1,-15,1,13,1,4,1,-18,1,-10,1,-43,1,-30,1,-34,1,-21,1,-15,1
1695,-5,1,-20,1,-15,1,12,1,5,1,-18,1,-10,1,-43,1,-30,1,-33,1,-21,1,-15,1
1696,-4,1,-20,1,-16,1,12,1,6,1,-18,1,-10,1,-43,1,-29,1,-33,1,-21,1,-15,1
1697,-4,1,-19,1,-15,1,11,1,5,1,-17,1,-10,1,-42,1,-29,1,-33,1,-21,1,-15,1
1698,-4,1,-20,1,-16,1,12,1,6,1,-18,1,-10,1,-42,1,-29,1,-33,1,-21,1,-16,1
1699,-5,1,-21,1,-16,1,13,1,5,1,-19,1,-10,1,-42,1,-29,1,-34,1,-21,1,-16,1
1700,-5,1,-21,1,-16,1,13,1,5,1,-19,1,-10,1,-42,1,-29,1,-34,1,-21,1,-15,1
1701,-5,1,-21,1,-16,1,13,1,5,1,-19,1,-11,1,-43,1,-29,1,-34,1,-20,1,-15,1
1702,-5,1,-21,1,-16,1,13,1,5,1,-19,1,-11,1,-44,1,-29,1,-35,1,-20,1,-15,1
1703,-5,1,-21,1,-16,1,13,1,5,1,-19,1,-11,1,-45,1,-30,1,-35,1,-20,1,-16,1
1704,-5,1,-20,1,-15,1,12,1,5,1,-18,1,-10,1,-45,1,-31,1,-35,1,-20,1,-16,1
1705,-4,1,-20,1,-16,1,12,1,6,1,-18,1,-9,1,-45,1,-32,1,-35,1,-20,1,-17,1
1706,-5,1,-22,1,-17,1,13,1,6,1,-20,1,-9,1,-47,1,-35,1,-36,1,-22,1,-18,1
1707,-5,1,-24,1,-19,1,14,1,7,1,-22,1,-8,1,-47,1,-36,1,-38,1,-23,1,-20,1
1708,-6,1,-26,1,-20,1,16,1,7,1,-23,1,-7,1,-47,1,-38,1,-38,1,-25,1,-21,1
1709,-5,1,-28,1,-23,1,16,1,9,1,-26,1,-6,1,-46,1,-38,1,-39,1,-25,1,-22,1
1710,-3,1,-28,1,-25,1,15,1,11,1,-27,1,-6,1,-44,1,-37,1,-39,1,-25,1,-22,1
1711,-2,1,-28,1,-26,1,15,1,12,1,-27,1,-5,1,-42,1,-35,1,-38,1,-25,1,-22,1
1712,0,1,-27,1,-27,1,13,1,13,1,-27,1,-4,1,-37,1,-31,1,-36,1,-22,1,-20,1
1713,4,1,-25,1,-29,1,10,1,16,1,-27,1,-2,1,-29,1,-25,1,-31,1,-18,1,-17,1
1714,10,1,-23,1,-33,1,6,1,21,1,-28,1,-1,1,-18,1,-16,1,-23,1,-13,1,-13,1
1715,19,1,-21,1,-40,1,1,1,29,1,-30,1,-1,1,-4,1,-4,1,-13,1,-4,1,-7,1
1716,30,1,-16,1,-46,1,-7,1,38,1,-31,1,1,1,13,1,10,1,0,1,5,1,0,1
1717,42,1,-10,1,-52,1,-16,1,47,1,-31,1,5,1,33,1,26,1,13,1,17,1,8,1
1718,56,1,-1,1,-57,1,-27,1,56,1,-29,1,8,1,54,1,46,1,29,1,31,1,19,1
1719,72,1,10,1,-62,1,-41,1,67,1,-26,1,9,1,75,1,68,1,49,1,48,1,33,1
1720,88,1,23,1,-65,1,-55,1,77,1,-21,1,7,1,96,1,91,1,70,1,67,1,49,1
1721,104,1,36,1,-68,1,-70,1,86,1,-16,1,5,1,115,1,115,1,93,1,89,1,66,1
1722,119,1,51,1,-68,1,-85,1,94,1,-8,1,1,1,135,1,140,1,117,1,112,1,86,1
1723,131,1,67,1,-64,1,-99,1,98,1,2,1,-2,1,156,1,167,1,144,1,137,1,107,1
1724,139,1,86,1,-53,1,-112,1,96,1,17,1,-4,1,180,1,198,1,173,1,165,1,131,1
1725,141,1,110,1,-31,1,-125,1,86,1,40,1,-6,1,203,1,229,1,203,1,193,1,157,1
1726,138,1,134,1,-4,1,-136,1,71,1,65,1,-10,1,225,1,259,1,233,1,220,1,182,1
