TS,I,If,II,IIf,III,IIIf,aVR,aVRf,aVL,aVLf,aVF,aVFf,V1,V1f,V2,V2f,V3,V3f,V4,V4f,V5,V5f,V6,V6f
1,1,1,-6,1,-7,1,2,1,4,1,-6,1,-11,1,-15,1,-11,1,-22,1,-13,1,-6,1
2,0,1,-6,1,-6,1,3,1,3,1,-6,1,-10,1,-14,1,-10,1,-22,1,-12,1,-5,1
3,-1,1,-6,1,-5,1,3,1,2,1,-6,1,-9,1,-13,1,-9,1,-20,1,-11,1,-4,1
4,-3,1,-5,1,-2,1,4,1,-1,1,-4,1,-8,1,-13,1,-8,1,-20,1,-11,1,-4,1
5,-5,1,-5,1,0,1,5,1,-3,1,-3,1,-7,1,-12,1,-7,1,-19,1,-10,1,-3,1
6,-7,1,-5,1,2,1,6,1,-5,1,-2,1,-6,1,-11,1,-5,1,-18,1,-9,1,-2,1
7,-11,1,-5,1,6,1,8,1,-9,1,0,1,-6,1,-10,1,-5,1,-17,1,-8,1,-1,1
8,-14,1,-5,1,9,1,9,1,-12,1,2,1,-5,1,-10,1,-4,1,-16,1,-7,1,0,1
9,-17,1,-5,1,12,1,11,1,-15,1,3,1,-4,1,-9,1,-4,1,-15,1,-6,1,0,1
10,-19,1,-5,1,14,1,12,1,-17,1,4,1,-3,1,-8,1,-3,1,-14,1,-5,1,1,1
11,-20,1,-5,1,15,1,12,1,-18,1,5,1,-2,1,-7,1,-2,1,-14,1,-3,1,2,1
12,-23,1,-6,1,17,1,14,1,-20,1,5,1,-2,1,-7,1,-2,1,-13,1,-2,1,1,1
13,-25,1,-6,1,19,1,15,1,-22,1,6,1,-1,1,-6,1,-1,1,-12,1,-2,1,2,1
14,-27,1,-7,1,20,1,17,1,-24,1,6,1,0,1,-5,1,-1,1,-11,1,-1,1,2,1
15,-28,1,-6,1,22,1,17,1,-25,1,8,1,0,1,-5,1,-1,1,-11,1,-1,1,3,1
16,-29,1,-6,1,23,1,17,1,-26,1,8,1,0,1,-4,1,0,1,-9,1,-1,1,4,1
17,-32,1,-5,1,27,1,18,1,-30,1,11,1,1,1,-3,1,1,1,-9,1,-1,1,4,1
18,-34,1,-5,1,29,1,19,1,-32,1,12,1,1,1,-3,1,2,1,-9,1,-1,1,5,1
19,-36,1,-6,1,30,1,21,1,-33,1,12,1,2,1,-3,1,2,1,-8,1,0,1,5,1
20,-38,1,-6,1,32,1,22,1,-35,1,13,1,3,1,-2,1,3,1,-7,1,0,1,7,1
21,-40,1,-6,1,34,1,23,1,-37,1,14,1,3,1,-3,1,4,1,-8,1,1,1,7,1
22,-41,1,-6,1,35,1,23,1,-38,1,14,1,4,1,-2,1,4,1,-7,1,2,1,9,1
23,-43,1,-6,1,37,1,24,1,-40,1,15,1,5,1,-1,1,4,1,-6,1,3,1,10,1
24,-45,1,-6,1,39,1,25,1,-42,1,16,1,6,1,0,1,5,1,-6,1,4,1,11,1
25,-49,1,-6,1,43,1,27,1,-46,1,18,1,8,1,1,1,6,1,-5,1,5,1,12,1
26,-53,1,-6,1,47,1,29,1,-50,1,20,1,9,1,3,1,7,1,-3,1,6,1,13,1
27,-57,1,-5,1,52,1,31,1,-55,1,23,1,10,1,4,1,7,1,-3,1,7,1,12,1
28,-59,1,-5,1,54,1,32,1,-57,1,24,1,10,1,4,1,8,1,-2,1,7,1,12,1
29,-60,1,-4,1,56,1,32,1,-58,1,26,1,10,1,4,1,8,1,-2,1,7,1,12,1
30,-59,1,-4,1,55,1,31,1,-57,1,25,1,11,1,5,1,9,1,-1,1,8,1,12,1
31,-59,1,-4,1,55,1,31,1,-57,1,25,1,12,1,5,1,10,1,0,1,9,1,13,1
32,-60,1,-4,1,56,1,32,1,-58,1,26,1,12,1,5,1,11,1,0,1,10,1,14,1
33,-61,1,-4,1,57,1,32,1,-59,1,26,1,14,1,7,1,13,1,2,1,11,1,16,1
34,-63,1,-2,1,61,1,32,1,-62,1,29,1,15,1,8,1,14,1,4,1,13,1,18,1
35,-64,1,-1,1,63,1,32,1,-64,1,31,1,17,1,9,1,16,1,5,1,14,1,19,1
36,-66,1,0,1,66,1,33,1,-66,1,33,1,18,1,10,1,16,1,6,1,15,1,20,1
37,-67,1,2,1,69,1,32,1,-68,1,35,1,19,1,11,1,17,1,6,1,16,1,20,1
38,-67,1,3,1,70,1,32,1,-68,1,36,1,20,1,12,1,18,1,7,1,17,1,21,1
39,-68,1,4,1,72,1,32,1,-70,1,38,1,21,1,13,1,19,1,9,1,18,1,22,1
40,-70,1,5,1,75,1,32,1,-72,1,40,1,22,1,14,1,19,1,9,1,19,1,23,1
41,-72,1,6,1,78,1,33,1,-75,1,42,1,23,1,15,1,19,1,10,1,20,1,24,1
42,-74,1,7,1,81,1,33,1,-77,1,44,1,24,1,16,1,21,1,12,1,21,1,26,1
43,-75,1,8,1,83,1,33,1,-79,1,45,1,24,1,16,1,21,1,13,1,21,1,27,1
44,-77,1,10,1,87,1,33,1,-82,1,48,1,24,1,16,1,22,1,14,1,21,1,28,1
45,-78,1,9,1,87,1,34,1,-82,1,48,1,25,1,18,1,23,1,14,1,22,1,28,1
46,-79,1,9,1,88,1,35,1,-83,1,48,1,26,1,19,1,24,1,16,1,23,1,29,1
47,-79,1,9,1,88,1,35,1,-83,1,48,1,27,1,19,1,25,1,16,1,24,1,29,1
48,-81,1,9,1,90,1,36,1,-85,1,49,1,27,1,19,1,26,1,16,1,25,1,30,1
49,-82,1,9,1,91,1,36,1,-86,1,50,1,27,1,20,1,27,1,17,1,25,1,30,1
50,-84,1,9,1,93,1,37,1,-88,1,51,1,27,1,22,1,27,1,19,1,26,1,31,1
51,-84,1,9,1,93,1,37,1,-88,1,51,1,28,1,22,1,28,1,20,1,28,1,32,1
52,-84,1,9,1,93,1,37,1,-88,1,51,1,28,1,23,1,28,1,19,1,28,1,33,1
53,-85,1,10,1,95,1,37,1,-90,1,52,1,29,1,24,1,29,1,20,1,29,1,34,1
54,-87,1,12,1,99,1,37,1,-93,1,55,1,30,1,25,1,30,1,21,1,30,1,36,1
55,-88,1,13,1,101,1,37,1,-94,1,57,1,30,1,25,1,30,1,21,1,31,1,36,1
56,-90,1,14,1,104,1,38,1,-97,1,59,1,29,1,24,1,31,1,22,1,33,1,37,1
57,-92,1,14,1,106,1,39,1,-99,1,60,1,27,1,23,1,31,1,23,1,33,1,37,1
58,-94,1,15,1,109,1,39,1,-101,1,62,1,26,1,23,1,31,1,23,1,33,1,37,1
59,-94,1,14,1,108,1,40,1,-101,1,61,1,24,1,22,1,31,1,23,1,33,1,37,1
60,-93,1,15,1,108,1,39,1,-100,1,61,1,24,1,22,1,31,1,23,1,33,1,38,1
61,-93,1,15,1,108,1,39,1,-100,1,61,1,23,1,22,1,31,1,22,1,34,1,39,1
62,-93,1,15,1,108,1,39,1,-100,1,61,1,22,1,21,1,31,1,22,1,34,1,40,1
63,-92,1,15,1,107,1,38,1,-99,1,61,1,21,1,21,1,31,1,22,1,34,1,41,1
64,-93,1,14,1,107,1,39,1,-100,1,60,1,21,1,21,1,31,1,22,1,34,1,41,1
65,-95,1,13,1,108,1,41,1,-101,1,60,1,20,1,21,1,31,1,22,1,35,1,42,1
66,-97,1,12,1,109,1,42,1,-103,1,60,1,20,1,20,1,30,1,22,1,35,1,42,1
67,-99,1,11,1,110,1,44,1,-104,1,60,1,20,1,20,1,30,1,22,1,35,1,41,1
68,-100,1,10,1,110,1,45,1,-105,1,60,1,20,1,20,1,30,1,21,1,35,1,41,1
69,-100,1,9,1,109,1,45,1,-104,1,59,1,21,1,19,1,30,1,20,1,36,1,41,1
70,-100,1,8,1,108,1,46,1,-104,1,58,1,21,1,19,1,29,1,20,1,35,1,41,1
71,-101,1,7,1,108,1,47,1,-104,1,57,1,21,1,19,1,29,1,20,1,34,1,41,1
72,-103,1,5,1,108,1,49,1,-105,1,56,1,22,1,19,1,29,1,20,1,35,1,42,1
73,-106,1,4,1,110,1,51,1,-108,1,57,1,22,1,18,1,28,1,20,1,34,1,42,1
74,-109,1,2,1,111,1,53,1,-110,1,56,1,22,1,18,1,28,1,19,1,34,1,42,1
75,-112,1,0,1,112,1,56,1,-112,1,56,1,23,1,19,1,28,1,20,1,34,1,42,1
76,-115,1,-1,1,114,1,58,1,-115,1,56,1,24,1,20,1,30,1,20,1,36,1,43,1
77,-118,1,-1,1,117,1,59,1,-118,1,58,1,26,1,21,1,31,1,21,1,36,1,42,1
78,-120,1,-1,1,119,1,60,1,-120,1,59,1,28,1,22,1,32,1,22,1,36,1,42,1
79,-123,1,-2,1,121,1,62,1,-122,1,59,1,29,1,22,1,32,1,22,1,36,1,42,1
80,-124,1,-3,1,121,1,63,1,-123,1,59,1,29,1,22,1,31,1,23,1,36,1,42,1
81,-125,1,-4,1,121,1,64,1,-123,1,58,1,30,1,22,1,31,1,22,1,35,1,40,1
82,-126,1,-5,1,121,1,65,1,-124,1,58,1,31,1,22,1,30,1,21,1,34,1,39,1
83,-128,1,-6,1,122,1,67,1,-125,1,58,1,31,1,22,1,29,1,21,1,32,1,38,1
84,-129,1,-7,1,122,1,68,1,-126,1,57,1,31,1,21,1,28,1,20,1,31,1,37,1
85,-130,1,-9,1,121,1,69,1,-126,1,56,1,31,1,21,1,28,1,19,1,30,1,37,1
86,-129,1,-9,1,120,1,69,1,-125,1,55,1,30,1,21,1,28,1,19,1,30,1,37,1
87,-130,1,-10,1,120,1,70,1,-125,1,55,1,29,1,20,1,28,1,17,1,30,1,36,1
88,-131,1,-11,1,120,1,71,1,-126,1,54,1,29,1,20,1,27,1,16,1,29,1,36,1
89,-132,1,-11,1,121,1,71,1,-127,1,55,1,29,1,20,1,27,1,16,1,30,1,36,1
90,-132,1,-11,1,121,1,71,1,-127,1,55,1,29,1,20,1,26,1,16,1,30,1,36,1
91,-134,1,-12,1,122,1,73,1,-128,1,55,1,30,1,20,1,26,1,16,1,30,1,36,1
92,-135,1,-13,1,122,1,74,1,-129,1,54,1,30,1,20,1,27,1,17,1,31,1,36,1
93,-136,1,-13,1,123,1,74,1,-130,1,55,1,31,1,21,1,27,1,18,1,31,1,36,1
94,-137,1,-13,1,124,1,75,1,-131,1,55,1,31,1,20,1,28,1,19,1,31,1,36,1
95,-138,1,-12,1,126,1,75,1,-132,1,57,1,31,1,21,1,28,1,18,1,31,1,36,1
96,-138,1,-12,1,126,1,75,1,-132,1,57,1,31,1,21,1,29,1,18,1,31,1,36,1
97,-137,1,-12,1,125,1,74,1,-131,1,56,1,31,1,20,1,29,1,17,1,30,1,36,1
98,-137,1,-12,1,125,1,74,1,-131,1,56,1,31,1,21,1,28,1,17,1,30,1,36,1
99,-137,1,-12,1,125,1,74,1,-131,1,56,1,31,1,21,1,28,1,18,1,30,1,36,1
100,-138,1,-13,1,125,1,75,1,-132,1,56,1,31,1,21,1,29,1,19,1,30,1,36,1
101,-138,1,-13,1,125,1,75,1,-132,1,56,1,32,1,22,1,29,1,20,1,31,1,37,1
102,-138,1,-12,1,126,1,75,1,-132,1,57,1,32,1,22,1,29,1,20,1,31,1,37,1
103,-139,1,-12,1,127,1,75,1,-133,1,57,1,33,1,22,1,30,1,20,1,32,1,38,1
104,-139,1,-12,1,127,1,75,1,-133,1,57,1,33,1,22,1,30,1,20,1,31,1,38,1
105,-141,1,-12,1,129,1,76,1,-135,1,58,1,33,1,23,1,31,1,21,1,32,1,37,1
106,-142,1,-13,1,129,1,77,1,-136,1,58,1,34,1,23,1,32,1,22,1,32,1,37,1
107,-142,1,-13,1,129,1,77,1,-136,1,58,1,35,1,23,1,32,1,22,1,32,1,37,1
108,-142,1,-13,1,129,1,77,1,-136,1,58,1,35,1,24,1,32,1,21,1,32,1,36,1
109,-143,1,-13,1,130,1,78,1,-137,1,58,1,35,1,24,1,32,1,21,1,32,1,36,1
110,-143,1,-13,1,130,1,78,1,-137,1,58,1,35,1,25,1,32,1,21,1,32,1,37,1
111,-141,1,-13,1,128,1,77,1,-135,1,57,1,35,1,25,1,32,1,21,1,31,1,37,1
112,-140,1,-12,1,128,1,76,1,-134,1,58,1,35,1,26,1,32,1,22,1,30,1,37,1
113,-141,1,-11,1,130,1,76,1,-136,1,59,1,36,1,29,1,36,1,26,1,31,1,38,1
114,-142,1,-10,1,132,1,76,1,-137,1,61,1,38,1,36,1,42,1,31,1,34,1,39,1
115,-141,1,-8,1,133,1,74,1,-137,1,62,1,41,1,45,1,51,1,39,1,38,1,40,1
116,-139,1,-6,1,133,1,72,1,-136,1,63,1,44,1,55,1,61,1,48,1,43,1,42,1
117,-136,1,-2,1,134,1,69,1,-135,1,66,1,46,1,67,1,73,1,59,1,51,1,46,1
118,-133,1,2,1,135,1,65,1,-134,1,68,1,49,1,78,1,86,1,71,1,60,1,50,1
119,-126,1,5,1,131,1,60,1,-128,1,68,1,53,1,97,1,105,1,88,1,72,1,55,1
120,-115,1,7,1,122,1,54,1,-118,1,64,1,56,1,119,1,128,1,109,1,86,1,62,1
121,-101,1,9,1,110,1,46,1,-105,1,59,1,57,1,143,1,154,1,135,1,104,1,71,1
122,-83,1,12,1,95,1,35,1,-89,1,53,1,57,1,166,1,180,1,163,1,126,1,83,1
123,-63,1,17,1,80,1,23,1,-71,1,48,1,54,1,183,1,202,1,190,1,151,1,99,1
124,-42,1,24,1,66,1,9,1,-54,1,45,1,48,1,187,1,214,1,210,1,177,1,116,1
125,-22,1,32,1,54,1,-5,1,-38,1,43,1,37,1,178,1,215,1,220,1,200,1,133,1
126,-1,1,40,1,41,1,-19,1,-21,1,40,1,24,1,161,1,208,1,222,1,217,1,148,1
127,16,1,51,1,35,1,-33,1,-9,1,43,1,8,1,134,1,192,1,213,1,226,1,161,1
128,28,1,61,1,33,1,-44,1,-2,1,47,1,-9,1,95,1,160,1,188,1,222,1,167,1
129,31,1,67,1,36,1,-49,1,-2,1,52,1,-27,1,45,1,113,1,147,1,206,1,167,1
130,25,1,68,1,43,1,-46,1,-9,1,56,1,-42,1,-7,1,58,1,95,1,174,1,157,1
131,10,1,68,1,58,1,-39,1,-24,1,63,1,-52,1,-62,1,0,1,36,1,135,1,142,1
132,-12,1,67,1,79,1,-27,1,-45,1,73,1,-59,1,-116,1,-61,1,-23,1,96,1,129,1
133,-37,1,62,1,99,1,-12,1,-68,1,80,1,-64,1,-169,1,-125,1,-85,1,54,1,111,1
134,-63,1,52,1,115,1,5,1,-89,1,83,1,-71,1,-218,1,-184,1,-147,1,11,1,90,1
135,-83,1,36,1,119,1,23,1,-101,1,77,1,-75,1,-256,1,-230,1,-197,1,-25,1,69,1
136,-101,1,16,1,117,1,42,1,-109,1,66,1,-75,1,-278,1,-259,1,-232,1,-57,1,47,1
137,-120,1,-3,1,117,1,61,1,-119,1,57,1,-71,1,-287,1,-274,1,-253,1,-82,1,25,1
138,-138,1,-19,1,119,1,78,1,-129,1,50,1,-67,1,-288,1,-279,1,-262,1,-100,1,7,1
139,-151,1,-33,1,118,1,92,1,-135,1,42,1,-64,1,-283,1,-276,1,-263,1,-111,1,-6,1
140,-158,1,-44,1,114,1,101,1,-136,1,35,1,-61,1,-275,1,-270,1,-260,1,-117,1,-15,1
141,-163,1,-54,1,109,1,108,1,-136,1,27,1,-59,1,-266,1,-261,1,-254,1,-119,1,-22,1
142,-165,1,-63,1,102,1,114,1,-134,1,19,1,-58,1,-256,1,-250,1,-246,1,-119,1,-25,1
143,-165,1,-69,1,96,1,117,1,-131,1,13,1,-56,1,-242,1,-235,1,-234,1,-115,1,-27,1
144,-164,1,-71,1,93,1,117,1,-129,1,11,1,-54,1,-224,1,-217,1,-218,1,-109,1,-28,1
145,-164,1,-70,1,94,1,117,1,-129,1,12,1,-49,1,-202,1,-196,1,-199,1,-102,1,-27,1
146,-163,1,-67,1,96,1,115,1,-130,1,14,1,-43,1,-179,1,-172,1,-177,1,-92,1,-25,1
147,-161,1,-62,1,99,1,111,1,-130,1,18,1,-36,1,-154,1,-148,1,-154,1,-81,1,-23,1
148,-158,1,-57,1,101,1,107,1,-130,1,22,1,-30,1,-129,1,-125,1,-131,1,-71,1,-20,1
149,-156,1,-52,1,104,1,104,1,-130,1,26,1,-25,1,-106,1,-104,1,-110,1,-60,1,-14,1
150,-153,1,-46,1,107,1,99,1,-130,1,30,1,-19,1,-86,1,-86,1,-92,1,-49,1,-8,1
151,-151,1,-39,1,112,1,95,1,-132,1,36,1,-13,1,-67,1,-68,1,-76,1,-38,1,-1,1
152,-148,1,-32,1,116,1,90,1,-132,1,42,1,-5,1,-49,1,-50,1,-60,1,-26,1,7,1
153,-144,1,-27,1,117,1,85,1,-131,1,45,1,4,1,-33,1,-34,1,-46,1,-16,1,14,1
154,-139,1,-23,1,116,1,81,1,-128,1,46,1,11,1,-18,1,-18,1,-34,1,-8,1,18,1
155,-135,1,-21,1,114,1,78,1,-125,1,46,1,16,1,-6,1,-6,1,-22,1,-3,1,20,1
156,-133,1,-19,1,114,1,76,1,-124,1,47,1,21,1,5,1,5,1,-11,1,2,1,22,1
157,-130,1,-17,1,113,1,73,1,-122,1,48,1,23,1,12,1,12,1,-2,1,4,1,24,1
158,-129,1,-16,1,113,1,72,1,-121,1,48,1,25,1,18,1,17,1,4,1,7,1,24,1
159,-128,1,-16,1,112,1,72,1,-120,1,48,1,26,1,21,1,20,1,9,1,9,1,25,1
160,-129,1,-14,1,115,1,71,1,-122,1,50,1,27,1,25,1,22,1,13,1,11,1,26,1
161,-129,1,-13,1,116,1,71,1,-123,1,51,1,29,1,27,1,25,1,15,1,14,1,28,1
162,-127,1,-11,1,116,1,69,1,-122,1,52,1,31,1,29,1,27,1,16,1,17,1,30,1
163,-121,1,-11,1,110,1,66,1,-116,1,49,1,30,1,30,1,28,1,16,1,18,1,29,1
164,-114,1,-11,1,103,1,62,1,-109,1,46,1,29,1,30,1,29,1,16,1,18,1,28,1
165,-106,1,-11,1,95,1,58,1,-101,1,42,1,29,1,30,1,30,1,16,1,17,1,26,1
166,-99,1,-11,1,88,1,55,1,-94,1,38,1,28,1,30,1,30,1,16,1,15,1,24,1
167,-92,1,-10,1,82,1,51,1,-87,1,36,1,26,1,30,1,29,1,17,1,12,1,22,1
168,-86,1,-9,1,77,1,47,1,-82,1,34,1,24,1,28,1,27,1,17,1,10,1,20,1
169,-80,1,-9,1,71,1,44,1,-76,1,31,1,23,1,27,1,26,1,17,1,9,1,18,1
170,-73,1,-9,1,64,1,41,1,-69,1,27,1,21,1,25,1,25,1,16,1,8,1,16,1
171,-66,1,-8,1,58,1,37,1,-62,1,25,1,20,1,24,1,24,1,14,1,8,1,14,1
172,-60,1,-8,1,52,1,34,1,-56,1,22,1,18,1,23,1,24,1,13,1,7,1,14,1
173,-56,1,-8,1,48,1,32,1,-52,1,20,1,17,1,22,1,24,1,11,1,6,1,12,1
174,-52,1,-7,1,45,1,29,1,-49,1,19,1,16,1,21,1,23,1,11,1,6,1,12,1
175,-48,1,-7,1,41,1,27,1,-45,1,17,1,15,1,20,1,23,1,11,1,5,1,11,1
176,-46,1,-6,1,40,1,26,1,-43,1,17,1,14,1,20,1,22,1,11,1,4,1,11,1
177,-43,1,-6,1,37,1,24,1,-40,1,15,1,14,1,20,1,22,1,12,1,3,1,10,1
178,-41,1,-6,1,35,1,23,1,-38,1,14,1,13,1,20,1,21,1,12,1,2,1,10,1
179,-38,1,-5,1,33,1,21,1,-36,1,14,1,12,1,19,1,20,1,11,1,2,1,9,1
180,-35,1,-5,1,30,1,20,1,-33,1,12,1,11,1,19,1,19,1,11,1,2,1,8,1
181,-33,1,-5,1,28,1,19,1,-31,1,11,1,11,1,20,1,19,1,11,1,2,1,7,1
182,-31,1,-4,1,27,1,17,1,-29,1,11,1,12,1,20,1,19,1,11,1,2,1,6,1
183,-29,1,-4,1,25,1,16,1,-27,1,10,1,11,1,20,1,19,1,11,1,2,1,6,1
184,-27,1,-3,1,24,1,15,1,-26,1,10,1,10,1,20,1,19,1,11,1,1,1,6,1
185,-24,1,-3,1,21,1,13,1,-23,1,9,1,9,1,19,1,18,1,11,1,0,1,5,1
186,-20,1,-4,1,16,1,12,1,-18,1,6,1,9,1,19,1,18,1,11,1,0,1,5,1
187,-18,1,-3,1,15,1,10,1,-17,1,6,1,9,1,20,1,19,1,11,1,0,1,5,1
188,-16,1,-2,1,14,1,9,1,-15,1,6,1,8,1,20,1,19,1,12,1,-1,1,5,1
189,-15,1,-2,1,13,1,8,1,-14,1,5,1,7,1,20,1,20,1,12,1,-1,1,5,1
190,-15,1,-1,1,14,1,8,1,-15,1,6,1,6,1,20,1,20,1,12,1,-1,1,5,1
191,-14,1,-1,1,13,1,7,1,-14,1,6,1,5,1,20,1,20,1,12,1,0,1,5,1
192,-13,1,-1,1,12,1,7,1,-13,1,5,1,5,1,20,1,20,1,12,1,0,1,6,1
193,-13,1,-1,1,12,1,7,1,-13,1,5,1,5,1,21,1,21,1,13,1,1,1,6,1
194,-12,1,-1,1,11,1,6,1,-12,1,5,1,5,1,21,1,23,1,12,1,2,1,6,1
195,-11,1,-1,1,10,1,6,1,-11,1,4,1,5,1,22,1,23,1,14,1,2,1,6,1
196,-10,1,-1,1,9,1,5,1,-10,1,4,1,7,1,23,1,25,1,15,1,2,1,6,1
197,-11,1,-1,1,10,1,6,1,-11,1,4,1,7,1,25,1,25,1,16,1,2,1,5,1
198,-11,1,-1,1,10,1,6,1,-11,1,4,1,7,1,25,1,25,1,17,1,2,1,5,1
199,-10,1,-1,1,9,1,5,1,-10,1,4,1,7,1,26,1,26,1,18,1,2,1,5,1
200,-9,1,0,1,9,1,4,1,-9,1,4,1,7,1,27,1,26,1,20,1,4,1,6,1
201,-8,1,1,1,9,1,3,1,-8,1,5,1,7,1,28,1,27,1,21,1,5,1,7,1
202,-7,1,1,1,8,1,3,1,-7,1,4,1,7,1,28,1,28,1,21,1,5,1,7,1
203,-7,1,1,1,8,1,3,1,-7,1,4,1,7,1,29,1,29,1,22,1,5,1,7,1
204,-5,1,1,1,6,1,2,1,-5,1,3,1,6,1,29,1,29,1,21,1,5,1,6,1
205,-4,1,2,1,6,1,1,1,-5,1,4,1,6,1,30,1,30,1,21,1,6,1,6,1
206,-2,1,2,1,4,1,0,1,-3,1,3,1,6,1,30,1,30,1,22,1,5,1,6,1
207,0,1,2,1,2,1,-1,1,-1,1,2,1,6,1,30,1,30,1,22,1,5,1,6,1
208,1,1,1,1,0,1,-1,1,1,1,1,1,6,1,31,1,31,1,23,1,5,1,7,1
209,2,1,1,1,-1,1,-1,1,2,1,0,1,6,1,32,1,32,1,25,1,5,1,7,1
210,1,1,1,1,0,1,-1,1,1,1,1,1,6,1,33,1,33,1,26,1,6,1,8,1
211,2,1,3,1,1,1,-2,1,1,1,2,1,5,1,34,1,34,1,27,1,6,1,7,1
212,3,1,3,1,0,1,-3,1,2,1,2,1,5,1,35,1,34,1,27,1,6,1,7,1
213,5,1,3,1,-2,1,-4,1,4,1,1,1,5,1,37,1,35,1,28,1,7,1,7,1
214,7,1,4,1,-3,1,-5,1,5,1,1,1,5,1,38,1,38,1,29,1,8,1,7,1
215,9,1,4,1,-5,1,-6,1,7,1,0,1,5,1,39,1,38,1,30,1,8,1,8,1
216,10,1,4,1,-6,1,-7,1,8,1,-1,1,5,1,39,1,39,1,30,1,9,1,8,1
217,11,1,5,1,-6,1,-8,1,9,1,0,1,5,1,40,1,40,1,31,1,9,1,10,1
218,11,1,5,1,-6,1,-8,1,9,1,0,1,5,1,42,1,41,1,32,1,10,1,10,1
219,13,1,5,1,-8,1,-9,1,11,1,-1,1,5,1,42,1,41,1,33,1,11,1,11,1
220,15,1,7,1,-8,1,-11,1,12,1,0,1,5,1,43,1,43,1,34,1,11,1,10,1
221,16,1,8,1,-8,1,-12,1,12,1,0,1,5,1,44,1,44,1,35,1,11,1,10,1
222,17,1,9,1,-8,1,-13,1,13,1,1,1,6,1,46,1,46,1,37,1,11,1,10,1
223,19,1,10,1,-9,1,-14,1,14,1,1,1,6,1,48,1,48,1,37,1,12,1,10,1
224,20,1,10,1,-10,1,-15,1,15,1,0,1,6,1,49,1,49,1,39,1,13,1,11,1
225,21,1,11,1,-10,1,-16,1,16,1,1,1,6,1,51,1,50,1,40,1,13,1,11,1
226,23,1,11,1,-12,1,-17,1,18,1,0,1,5,1,52,1,51,1,41,1,14,1,11,1
227,25,1,11,1,-14,1,-18,1,20,1,-1,1,5,1,54,1,52,1,43,1,15,1,12,1
228,26,1,12,1,-14,1,-19,1,20,1,-1,1,5,1,56,1,54,1,45,1,16,1,12,1
229,28,1,13,1,-15,1,-20,1,22,1,-1,1,5,1,58,1,55,1,46,1,17,1,13,1
230,29,1,14,1,-15,1,-21,1,22,1,0,1,4,1,59,1,57,1,48,1,17,1,13,1
231,31,1,15,1,-16,1,-23,1,24,1,0,1,4,1,59,1,58,1,50,1,18,1,14,1
232,33,1,16,1,-17,1,-24,1,25,1,0,1,4,1,60,1,60,1,52,1,19,1,16,1
233,35,1,17,1,-18,1,-26,1,27,1,0,1,4,1,61,1,61,1,53,1,20,1,16,1
234,38,1,18,1,-20,1,-28,1,29,1,-1,1,5,1,62,1,62,1,53,1,21,1,17,1
235,40,1,18,1,-22,1,-29,1,31,1,-2,1,5,1,63,1,63,1,54,1,21,1,17,1
236,42,1,19,1,-23,1,-30,1,33,1,-2,1,5,1,65,1,64,1,55,1,23,1,18,1
237,44,1,21,1,-23,1,-32,1,34,1,-1,1,4,1,67,1,66,1,56,1,24,1,18,1
238,45,1,23,1,-22,1,-34,1,34,1,1,1,4,1,67,1,67,1,57,1,25,1,18,1
239,47,1,24,1,-23,1,-35,1,35,1,1,1,4,1,68,1,68,1,59,1,26,1,19,1
240,49,1,25,1,-24,1,-37,1,37,1,1,1,3,1,68,1,69,1,61,1,27,1,20,1
241,52,1,26,1,-26,1,-39,1,39,1,0,1,2,1,69,1,70,1,62,1,27,1,20,1
242,53,1,27,1,-26,1,-40,1,40,1,1,1,2,1,70,1,71,1,63,1,28,1,21,1
243,54,1,28,1,-26,1,-41,1,40,1,1,1,3,1,71,1,72,1,65,1,30,1,23,1
244,56,1,30,1,-26,1,-43,1,41,1,2,1,3,1,73,1,73,1,66,1,31,1,24,1
245,58,1,31,1,-27,1,-44,1,43,1,2,1,3,1,74,1,74,1,67,1,32,1,24,1
246,60,1,32,1,-28,1,-46,1,44,1,2,1,3,1,75,1,74,1,68,1,33,1,25,1
247,61,1,34,1,-27,1,-47,1,44,1,4,1,3,1,74,1,74,1,67,1,33,1,25,1
248,61,1,35,1,-26,1,-48,1,44,1,5,1,2,1,73,1,74,1,68,1,34,1,25,1
249,62,1,36,1,-26,1,-49,1,44,1,5,1,1,1,73,1,75,1,69,1,34,1,26,1
250,63,1,37,1,-26,1,-50,1,45,1,6,1,1,1,73,1,75,1,69,1,34,1,27,1
251,64,1,38,1,-26,1,-51,1,45,1,6,1,0,1,73,1,76,1,70,1,35,1,28,1
252,65,1,38,1,-27,1,-51,1,46,1,6,1,0,1,73,1,75,1,70,1,35,1,29,1
253,65,1,38,1,-27,1,-51,1,46,1,6,1,-1,1,73,1,74,1,70,1,36,1,30,1
254,66,1,38,1,-28,1,-52,1,47,1,5,1,-1,1,73,1,73,1,70,1,37,1,30,1
255,67,1,39,1,-28,1,-53,1,48,1,6,1,0,1,72,1,72,1,70,1,37,1,30,1
256,67,1,40,1,-27,1,-53,1,47,1,7,1,0,1,70,1,72,1,70,1,37,1,30,1
257,67,1,41,1,-26,1,-54,1,47,1,8,1,-1,1,68,1,70,1,69,1,37,1,30,1
258,67,1,42,1,-25,1,-54,1,46,1,9,1,-1,1,65,1,70,1,69,1,37,1,30,1
259,68,1,43,1,-25,1,-55,1,47,1,9,1,-2,1,63,1,69,1,68,1,36,1,30,1
260,68,1,43,1,-25,1,-55,1,47,1,9,1,-3,1,62,1,67,1,67,1,37,1,30,1
261,68,1,42,1,-26,1,-55,1,47,1,8,1,-4,1,60,1,65,1,66,1,36,1,31,1
262,68,1,41,1,-27,1,-54,1,48,1,7,1,-5,1,58,1,63,1,64,1,36,1,31,1
263,68,1,41,1,-27,1,-54,1,48,1,7,1,-5,1,55,1,61,1,62,1,36,1,30,1
264,67,1,40,1,-27,1,-53,1,47,1,7,1,-6,1,53,1,58,1,60,1,35,1,30,1
265,66,1,40,1,-26,1,-53,1,46,1,7,1,-6,1,49,1,55,1,57,1,33,1,29,1
266,65,1,39,1,-26,1,-52,1,46,1,7,1,-6,1,46,1,52,1,55,1,32,1,28,1
267,63,1,38,1,-25,1,-50,1,44,1,7,1,-6,1,41,1,48,1,53,1,31,1,26,1
268,62,1,37,1,-25,1,-49,1,44,1,6,1,-7,1,37,1,45,1,51,1,30,1,24,1
269,61,1,35,1,-26,1,-48,1,44,1,5,1,-8,1,33,1,41,1,48,1,28,1,22,1
270,59,1,33,1,-26,1,-46,1,43,1,4,1,-8,1,29,1,38,1,45,1,26,1,20,1
271,57,1,31,1,-26,1,-44,1,42,1,3,1,-9,1,26,1,36,1,42,1,24,1,18,1
272,53,1,30,1,-23,1,-41,1,38,1,4,1,-9,1,23,1,33,1,39,1,22,1,17,1
273,52,1,29,1,-23,1,-40,1,38,1,3,1,-10,1,20,1,31,1,36,1,20,1,15,1
274,50,1,28,1,-22,1,-39,1,36,1,3,1,-10,1,17,1,28,1,33,1,17,1,14,1
275,48,1,26,1,-22,1,-37,1,35,1,2,1,-10,1,14,1,25,1,30,1,15,1,13,1
276,46,1,24,1,-22,1,-35,1,34,1,1,1,-10,1,11,1,21,1,26,1,13,1,11,1
277,45,1,22,1,-23,1,-33,1,34,1,0,1,-11,1,7,1,17,1,23,1,10,1,10,1
278,43,1,20,1,-23,1,-31,1,33,1,-1,1,-11,1,4,1,14,1,21,1,8,1,8,1
279,42,1,17,1,-25,1,-29,1,34,1,-4,1,-11,1,1,1,11,1,18,1,6,1,7,1
280,40,1,16,1,-24,1,-28,1,32,1,-4,1,-11,1,-2,1,8,1,16,1,4,1,5,1
281,38,1,15,1,-23,1,-26,1,31,1,-4,1,-11,1,-4,1,4,1,13,1,2,1,2,1
282,37,1,13,1,-24,1,-25,1,31,1,-5,1,-11,1,-7,1,2,1,10,1,0,1,1,1
283,36,1,11,1,-25,1,-23,1,31,1,-7,1,-11,1,-9,1,0,1,8,1,0,1,0,1
284,35,1,9,1,-26,1,-22,1,31,1,-8,1,-11,1,-11,1,-1,1,6,1,-2,1,-1,1
285,34,1,8,1,-26,1,-21,1,30,1,-9,1,-12,1,-13,1,-3,1,4,1,-3,1,-2,1
286,32,1,6,1,-26,1,-19,1,29,1,-10,1,-12,1,-15,1,-5,1,3,1,-5,1,-3,1
287,31,1,6,1,-25,1,-18,1,28,1,-9,1,-12,1,-17,1,-7,1,1,1,-6,1,-4,1
288,30,1,5,1,-25,1,-17,1,28,1,-10,1,-13,1,-18,1,-9,1,0,1,-8,1,-5,1
289,30,1,4,1,-26,1,-17,1,28,1,-11,1,-13,1,-20,1,-11,1,-1,1,-9,1,-6,1
290,30,1,4,1,-26,1,-17,1,28,1,-11,1,-13,1,-21,1,-12,1,-3,1,-10,1,-8,1
291,30,1,4,1,-26,1,-17,1,28,1,-11,1,-13,1,-22,1,-13,1,-4,1,-11,1,-9,1
292,30,1,3,1,-27,1,-16,1,29,1,-12,1,-14,1,-23,1,-14,1,-6,1,-12,1,-10,1
293,30,1,2,1,-28,1,-16,1,29,1,-13,1,-13,1,-24,1,-16,1,-7,1,-13,1,-10,1
294,29,1,1,1,-28,1,-15,1,29,1,-13,1,-14,1,-25,1,-16,1,-8,1,-14,1,-11,1
295,29,1,1,1,-28,1,-15,1,29,1,-13,1,-14,1,-26,1,-18,1,-9,1,-14,1,-11,1
296,29,1,0,1,-29,1,-14,1,29,1,-14,1,-14,1,-26,1,-18,1,-10,1,-15,1,-11,1
297,29,1,0,1,-29,1,-14,1,29,1,-14,1,-15,1,-27,1,-19,1,-11,1,-15,1,-12,1
298,28,1,0,1,-28,1,-14,1,28,1,-14,1,-15,1,-28,1,-19,1,-11,1,-17,1,-12,1
299,28,1,0,1,-28,1,-14,1,28,1,-14,1,-15,1,-28,1,-20,1,-12,1,-17,1,-12,1
300,30,1,1,1,-29,1,-15,1,30,1,-14,1,-16,1,-29,1,-20,1,-12,1,-17,1,-12,1
301,28,1,1,1,-27,1,-14,1,28,1,-13,1,-16,1,-30,1,-21,1,-13,1,-17,1,-13,1
302,28,1,0,1,-28,1,-14,1,28,1,-14,1,-16,1,-31,1,-22,1,-14,1,-17,1,-13,1
303,27,1,0,1,-27,1,-13,1,27,1,-13,1,-16,1,-31,1,-23,1,-14,1,-17,1,-13,1
304,26,1,0,1,-26,1,-13,1,26,1,-13,1,-15,1,-31,1,-23,1,-14,1,-18,1,-13,1
305,26,1,-1,1,-27,1,-12,1,26,1,-14,1,-15,1,-32,1,-24,1,-15,1,-18,1,-14,1
306,26,1,-2,1,-28,1,-12,1,27,1,-15,1,-15,1,-32,1,-24,1,-14,1,-18,1,-14,1
307,26,1,-1,1,-27,1,-12,1,26,1,-14,1,-15,1,-32,1,-24,1,-14,1,-19,1,-14,1
308,27,1,-1,1,-28,1,-13,1,27,1,-14,1,-15,1,-33,1,-24,1,-15,1,-19,1,-14,1
309,27,1,-2,1,-29,1,-12,1,28,1,-15,1,-15,1,-33,1,-23,1,-14,1,-18,1,-14,1
310,27,1,-2,1,-29,1,-12,1,28,1,-15,1,-15,1,-32,1,-23,1,-14,1,-18,1,-14,1
311,27,1,-2,1,-29,1,-12,1,28,1,-15,1,-15,1,-33,1,-23,1,-14,1,-18,1,-14,1
312,27,1,-2,1,-29,1,-12,1,28,1,-15,1,-15,1,-32,1,-23,1,-15,1,-18,1,-14,1
313,27,1,-2,1,-29,1,-12,1,28,1,-15,1,-16,1,-32,1,-24,1,-15,1,-18,1,-14,1
314,27,1,-4,1,-31,1,-11,1,29,1,-17,1,-16,1,-33,1,-25,1,-15,1,-19,1,-15,1
315,27,1,-3,1,-30,1,-12,1,28,1,-16,1,-15,1,-33,1,-25,1,-15,1,-19,1,-14,1
316,27,1,-2,1,-29,1,-12,1,28,1,-15,1,-15,1,-34,1,-26,1,-15,1,-19,1,-14,1
317,26,1,-2,1,-28,1,-12,1,27,1,-15,1,-16,1,-34,1,-26,1,-15,1,-19,1,-14,1
318,28,1,-2,1,-30,1,-13,1,29,1,-16,1,-17,1,-35,1,-26,1,-16,1,-20,1,-15,1
319,28,1,-2,1,-30,1,-13,1,29,1,-16,1,-16,1,-34,1,-25,1,-16,1,-19,1,-15,1
320,26,1,-3,1,-29,1,-11,1,27,1,-16,1,-16,1,-33,1,-24,1,-15,1,-19,1,-14,1
321,26,1,-2,1,-28,1,-12,1,27,1,-15,1,-16,1,-33,1,-24,1,-16,1,-19,1,-14,1
322,26,1,-2,1,-28,1,-12,1,27,1,-15,1,-16,1,-33,1,-25,1,-16,1,-19,1,-13,1
323,26,1,-2,1,-28,1,-12,1,27,1,-15,1,-16,1,-33,1,-25,1,-16,1,-20,1,-14,1
324,26,1,-1,1,-27,1,-12,1,26,1,-14,1,-16,1,-33,1,-26,1,-16,1,-20,1,-14,1
325,27,1,-1,1,-28,1,-13,1,27,1,-14,1,-16,1,-33,1,-26,1,-16,1,-20,1,-14,1
326,27,1,-1,1,-28,1,-13,1,27,1,-14,1,-15,1,-33,1,-27,1,-16,1,-20,1,-14,1
327,28,1,0,1,-28,1,-14,1,28,1,-14,1,-14,1,-33,1,-26,1,-16,1,-20,1,-14,1
328,28,1,0,1,-28,1,-14,1,28,1,-14,1,-15,1,-34,1,-26,1,-17,1,-20,1,-14,1
329,26,1,0,1,-26,1,-13,1,26,1,-13,1,-15,1,-33,1,-25,1,-17,1,-20,1,-14,1
330,26,1,-1,1,-27,1,-12,1,26,1,-14,1,-15,1,-33,1,-25,1,-16,1,-19,1,-14,1
331,26,1,-1,1,-27,1,-12,1,26,1,-14,1,-15,1,-33,1,-25,1,-16,1,-19,1,-14,1
332,28,1,-1,1,-29,1,-13,1,28,1,-15,1,-15,1,-33,1,-24,1,-16,1,-19,1,-13,1
333,29,1,-1,1,-30,1,-14,1,29,1,-15,1,-15,1,-32,1,-24,1,-16,1,-19,1,-13,1
334,28,1,-1,1,-29,1,-13,1,28,1,-15,1,-15,1,-32,1,-25,1,-16,1,-19,1,-13,1
335,26,1,0,1,-26,1,-13,1,26,1,-13,1,-15,1,-31,1,-25,1,-16,1,-20,1,-14,1
336,25,1,0,1,-25,1,-12,1,25,1,-12,1,-14,1,-30,1,-25,1,-16,1,-20,1,-15,1
337,26,1,-1,1,-27,1,-12,1,26,1,-14,1,-14,1,-30,1,-25,1,-15,1,-19,1,-15,1
338,26,1,0,1,-26,1,-13,1,26,1,-13,1,-14,1,-31,1,-25,1,-15,1,-20,1,-15,1
339,27,1,0,1,-27,1,-13,1,27,1,-13,1,-14,1,-30,1,-24,1,-15,1,-20,1,-15,1
340,27,1,-1,1,-28,1,-13,1,27,1,-14,1,-14,1,-30,1,-24,1,-15,1,-19,1,-14,1
341,26,1,-1,1,-27,1,-12,1,26,1,-14,1,-14,1,-30,1,-23,1,-16,1,-19,1,-14,1
342,26,1,-2,1,-28,1,-12,1,27,1,-15,1,-14,1,-29,1,-22,1,-16,1,-19,1,-14,1
343,26,1,-2,1,-28,1,-12,1,27,1,-15,1,-14,1,-29,1,-22,1,-15,1,-19,1,-14,1
344,27,1,-2,1,-29,1,-12,1,28,1,-15,1,-14,1,-29,1,-21,1,-15,1,-19,1,-14,1
345,25,1,-1,1,-26,1,-12,1,25,1,-13,1,-14,1,-28,1,-21,1,-14,1,-18,1,-13,1
346,25,1,-1,1,-26,1,-12,1,25,1,-13,1,-14,1,-28,1,-21,1,-13,1,-18,1,-13,1
347,24,1,-1,1,-25,1,-11,1,24,1,-13,1,-14,1,-28,1,-21,1,-13,1,-18,1,-13,1
348,24,1,0,1,-24,1,-12,1,24,1,-12,1,-14,1,-27,1,-22,1,-13,1,-18,1,-13,1
349,25,1,0,1,-25,1,-12,1,25,1,-12,1,-13,1,-27,1,-22,1,-13,1,-18,1,-13,1
350,25,1,0,1,-25,1,-12,1,25,1,-12,1,-13,1,-27,1,-21,1,-13,1,-18,1,-13,1
351,25,1,0,1,-25,1,-12,1,25,1,-12,1,-14,1,-27,1,-21,1,-13,1,-18,1,-13,1
352,25,1,0,1,-25,1,-12,1,25,1,-12,1,-14,1,-27,1,-21,1,-13,1,-18,1,-13,1
353,24,1,0,1,-24,1,-12,1,24,1,-12,1,-14,1,-27,1,-21,1,-13,1,-18,1,-12,1
354,23,1,-1,1,-24,1,-11,1,23,1,-12,1,-13,1,-27,1,-20,1,-13,1,-18,1,-12,1
355,23,1,-1,1,-24,1,-11,1,23,1,-12,1,-13,1,-26,1,-20,1,-12,1,-18,1,-12,1
356,22,1,-1,1,-23,1,-10,1,22,1,-12,1,-13,1,-26,1,-19,1,-11,1,-17,1,-13,1
357,23,1,0,1,-23,1,-11,1,23,1,-11,1,-13,1,-26,1,-19,1,-11,1,-17,1,-13,1
358,24,1,2,1,-22,1,-13,1,23,1,-10,1,-14,1,-26,1,-18,1,-11,1,-17,1,-13,1
359,24,1,2,1,-22,1,-13,1,23,1,-10,1,-15,1,-25,1,-18,1,-11,1,-16,1,-13,1
360,25,1,3,1,-22,1,-14,1,24,1,-9,1,-14,1,-25,1,-18,1,-11,1,-16,1,-13,1
361,24,1,3,1,-21,1,-13,1,23,1,-9,1,-14,1,-25,1,-18,1,-11,1,-17,1,-13,1
362,24,1,2,1,-22,1,-13,1,23,1,-10,1,-14,1,-24,1,-18,1,-10,1,-16,1,-13,1
363,24,1,2,1,-22,1,-13,1,23,1,-10,1,-13,1,-24,1,-18,1,-10,1,-16,1,-12,1
364,24,1,2,1,-22,1,-13,1,23,1,-10,1,-13,1,-24,1,-18,1,-10,1,-17,1,-12,1
365,23,1,2,1,-21,1,-12,1,22,1,-9,1,-13,1,-23,1,-18,1,-9,1,-17,1,-12,1
366,22,1,2,1,-20,1,-12,1,21,1,-9,1,-13,1,-23,1,-18,1,-9,1,-17,1,-12,1
367,21,1,2,1,-19,1,-11,1,20,1,-8,1,-13,1,-23,1,-18,1,-9,1,-17,1,-12,1
368,21,1,2,1,-19,1,-11,1,20,1,-8,1,-14,1,-22,1,-18,1,-8,1,-16,1,-11,1
369,22,1,2,1,-20,1,-12,1,21,1,-9,1,-14,1,-21,1,-17,1,-9,1,-16,1,-11,1
370,22,1,2,1,-20,1,-12,1,21,1,-9,1,-13,1,-21,1,-16,1,-9,1,-15,1,-11,1
371,22,1,2,1,-20,1,-12,1,21,1,-9,1,-13,1,-20,1,-16,1,-9,1,-14,1,-10,1
372,21,1,2,1,-19,1,-11,1,20,1,-8,1,-13,1,-20,1,-15,1,-9,1,-14,1,-10,1
373,21,1,2,1,-19,1,-11,1,20,1,-8,1,-13,1,-20,1,-15,1,-9,1,-14,1,-10,1
374,21,1,1,1,-20,1,-11,1,21,1,-9,1,-12,1,-21,1,-15,1,-9,1,-14,1,-9,1
375,21,1,1,1,-20,1,-11,1,21,1,-9,1,-12,1,-21,1,-15,1,-9,1,-14,1,-9,1
376,20,1,1,1,-19,1,-10,1,20,1,-9,1,-12,1,-22,1,-14,1,-8,1,-14,1,-9,1
377,19,1,1,1,-18,1,-10,1,19,1,-8,1,-13,1,-22,1,-14,1,-8,1,-13,1,-10,1
378,18,1,0,1,-18,1,-9,1,18,1,-9,1,-13,1,-22,1,-15,1,-8,1,-13,1,-10,1
379,18,1,1,1,-17,1,-9,1,18,1,-8,1,-14,1,-23,1,-15,1,-8,1,-13,1,-10,1
380,17,1,0,1,-17,1,-8,1,17,1,-8,1,-14,1,-22,1,-15,1,-8,1,-13,1,-9,1
381,19,1,0,1,-19,1,-9,1,19,1,-9,1,-14,1,-23,1,-16,1,-9,1,-14,1,-9,1
382,19,1,0,1,-19,1,-9,1,19,1,-9,1,-15,1,-23,1,-16,1,-9,1,-14,1,-9,1
383,20,1,1,1,-19,1,-10,1,20,1,-9,1,-15,1,-24,1,-16,1,-9,1,-14,1,-8,1
384,19,1,1,1,-18,1,-10,1,19,1,-8,1,-15,1,-24,1,-17,1,-9,1,-14,1,-9,1
385,19,1,1,1,-18,1,-10,1,19,1,-8,1,-14,1,-24,1,-16,1,-9,1,-14,1,-9,1
386,18,1,0,1,-18,1,-9,1,18,1,-9,1,-13,1,-23,1,-16,1,-9,1,-14,1,-9,1
387,17,1,1,1,-16,1,-9,1,17,1,-7,1,-13,1,-23,1,-16,1,-8,1,-14,1,-9,1
388,18,1,1,1,-17,1,-9,1,18,1,-8,1,-13,1,-23,1,-16,1,-9,1,-13,1,-9,1
389,18,1,0,1,-18,1,-9,1,18,1,-9,1,-13,1,-23,1,-16,1,-8,1,-13,1,-9,1
390,17,1,0,1,-17,1,-8,1,17,1,-8,1,-13,1,-22,1,-16,1,-8,1,-12,1,-8,1
391,16,1,0,1,-16,1,-8,1,16,1,-8,1,-14,1,-22,1,-16,1,-9,1,-12,1,-7,1
392,16,1,0,1,-16,1,-8,1,16,1,-8,1,-14,1,-22,1,-16,1,-9,1,-12,1,-6,1
393,14,1,0,1,-14,1,-7,1,14,1,-7,1,-14,1,-22,1,-15,1,-9,1,-12,1,-5,1
394,14,1,-1,1,-15,1,-6,1,14,1,-8,1,-14,1,-22,1,-15,1,-9,1,-12,1,-5,1
395,15,1,-1,1,-16,1,-7,1,15,1,-8,1,-14,1,-23,1,-15,1,-9,1,-12,1,-5,1
396,14,1,-1,1,-15,1,-6,1,14,1,-8,1,-14,1,-25,1,-15,1,-9,1,-12,1,-6,1
397,14,1,0,1,-14,1,-7,1,14,1,-7,1,-14,1,-26,1,-15,1,-10,1,-12,1,-6,1
398,14,1,0,1,-14,1,-7,1,14,1,-7,1,-13,1,-26,1,-16,1,-10,1,-12,1,-7,1
399,14,1,0,1,-14,1,-7,1,14,1,-7,1,-13,1,-26,1,-16,1,-10,1,-12,1,-7,1
400,14,1,0,1,-14,1,-7,1,14,1,-7,1,-14,1,-27,1,-16,1,-10,1,-12,1,-7,1
401,14,1,1,1,-13,1,-7,1,14,1,-6,1,-14,1,-28,1,-16,1,-11,1,-13,1,-7,1
402,13,1,0,1,-13,1,-6,1,13,1,-6,1,-14,1,-27,1,-16,1,-11,1,-12,1,-7,1
403,12,1,0,1,-12,1,-6,1,12,1,-6,1,-13,1,-26,1,-16,1,-11,1,-12,1,-7,1
404,11,1,0,1,-11,1,-5,1,11,1,-5,1,-12,1,-26,1,-16,1,-10,1,-12,1,-6,1
405,11,1,0,1,-11,1,-5,1,11,1,-5,1,-13,1,-26,1,-16,1,-10,1,-12,1,-7,1
406,11,1,-1,1,-12,1,-5,1,11,1,-6,1,-12,1,-26,1,-15,1,-10,1,-12,1,-7,1
407,10,1,-1,1,-11,1,-4,1,10,1,-6,1,-12,1,-26,1,-16,1,-10,1,-12,1,-7,1
408,10,1,-1,1,-11,1,-4,1,10,1,-6,1,-13,1,-26,1,-16,1,-10,1,-12,1,-7,1
409,9,1,-2,1,-11,1,-3,1,10,1,-6,1,-13,1,-26,1,-16,1,-10,1,-12,1,-7,1
410,10,1,-2,1,-12,1,-4,1,11,1,-7,1,-13,1,-26,1,-16,1,-10,1,-12,1,-7,1
411,11,1,-1,1,-12,1,-5,1,11,1,-6,1,-13,1,-26,1,-16,1,-11,1,-12,1,-6,1
412,12,1,-1,1,-13,1,-5,1,12,1,-7,1,-13,1,-26,1,-16,1,-11,1,-12,1,-6,1
413,13,1,0,1,-13,1,-6,1,13,1,-6,1,-14,1,-26,1,-17,1,-12,1,-13,1,-7,1
414,13,1,-1,1,-14,1,-6,1,13,1,-7,1,-12,1,-25,1,-17,1,-11,1,-12,1,-7,1
415,11,1,-1,1,-12,1,-5,1,11,1,-6,1,-11,1,-25,1,-17,1,-11,1,-13,1,-7,1
416,11,1,-1,1,-12,1,-5,1,11,1,-6,1,-11,1,-25,1,-17,1,-11,1,-12,1,-6,1
417,10,1,0,1,-10,1,-5,1,10,1,-5,1,-11,1,-25,1,-17,1,-12,1,-12,1,-6,1
418,10,1,0,1,-10,1,-5,1,10,1,-5,1,-12,1,-26,1,-17,1,-12,1,-13,1,-7,1
419,10,1,0,1,-10,1,-5,1,10,1,-5,1,-12,1,-27,1,-17,1,-12,1,-13,1,-7,1
420,10,1,-1,1,-11,1,-4,1,10,1,-6,1,-11,1,-26,1,-16,1,-12,1,-12,1,-7,1
421,8,1,-2,1,-10,1,-3,1,9,1,-6,1,-11,1,-25,1,-15,1,-11,1,-12,1,-7,1
422,7,1,-3,1,-10,1,-2,1,8,1,-6,1,-11,1,-25,1,-15,1,-11,1,-11,1,-7,1
423,8,1,-3,1,-11,1,-2,1,9,1,-7,1,-11,1,-25,1,-15,1,-11,1,-12,1,-8,1
424,8,1,-3,1,-11,1,-2,1,9,1,-7,1,-11,1,-25,1,-16,1,-11,1,-13,1,-8,1
425,8,1,-3,1,-11,1,-2,1,9,1,-7,1,-11,1,-25,1,-16,1,-12,1,-13,1,-8,1
426,8,1,-3,1,-11,1,-2,1,9,1,-7,1,-10,1,-25,1,-16,1,-11,1,-13,1,-8,1
427,7,1,-3,1,-10,1,-2,1,8,1,-6,1,-10,1,-25,1,-15,1,-11,1,-13,1,-7,1
428,7,1,-3,1,-10,1,-2,1,8,1,-6,1,-10,1,-25,1,-16,1,-12,1,-13,1,-7,1
429,6,1,-3,1,-9,1,-1,1,7,1,-6,1,-10,1,-25,1,-16,1,-12,1,-13,1,-7,1
430,6,1,-3,1,-9,1,-1,1,7,1,-6,1,-10,1,-25,1,-15,1,-12,1,-13,1,-7,1
431,6,1,-2,1,-8,1,-2,1,7,1,-5,1,-11,1,-24,1,-16,1,-13,1,-12,1,-7,1
432,6,1,-3,1,-9,1,-1,1,7,1,-6,1,-11,1,-23,1,-15,1,-13,1,-12,1,-6,1
433,5,1,-3,1,-8,1,-1,1,6,1,-5,1,-11,1,-23,1,-14,1,-13,1,-11,1,-6,1
434,5,1,-3,1,-8,1,-1,1,6,1,-5,1,-11,1,-23,1,-14,1,-12,1,-11,1,-6,1
435,5,1,-4,1,-9,1,0,1,7,1,-6,1,-10,1,-23,1,-13,1,-12,1,-11,1,-6,1
436,5,1,-3,1,-8,1,-1,1,6,1,-5,1,-9,1,-23,1,-13,1,-11,1,-11,1,-6,1
437,6,1,-4,1,-10,1,-1,1,8,1,-7,1,-9,1,-23,1,-13,1,-11,1,-12,1,-6,1
438,6,1,-3,1,-9,1,-1,1,7,1,-6,1,-9,1,-23,1,-14,1,-11,1,-12,1,-7,1
439,6,1,-3,1,-9,1,-1,1,7,1,-6,1,-10,1,-23,1,-14,1,-12,1,-12,1,-7,1
440,4,1,-3,1,-7,1,0,1,5,1,-5,1,-9,1,-22,1,-13,1,-12,1,-12,1,-7,1
441,4,1,-3,1,-7,1,0,1,5,1,-5,1,-9,1,-22,1,-13,1,-12,1,-11,1,-7,1
442,4,1,-3,1,-7,1,0,1,5,1,-5,1,-10,1,-22,1,-13,1,-12,1,-11,1,-7,1
443,3,1,-3,1,-6,1,0,1,4,1,-4,1,-10,1,-22,1,-13,1,-12,1,-11,1,-7,1
444,3,1,-4,1,-7,1,0,1,5,1,-5,1,-10,1,-22,1,-13,1,-12,1,-11,1,-7,1
445,4,1,-3,1,-7,1,0,1,5,1,-5,1,-11,1,-23,1,-13,1,-12,1,-11,1,-8,1
446,3,1,-3,1,-6,1,0,1,4,1,-4,1,-10,1,-23,1,-14,1,-12,1,-11,1,-9,1
447,3,1,-4,1,-7,1,0,1,5,1,-5,1,-10,1,-23,1,-14,1,-12,1,-11,1,-8,1
448,3,1,-3,1,-6,1,0,1,4,1,-4,1,-11,1,-23,1,-14,1,-12,1,-12,1,-8,1
449,4,1,-3,1,-7,1,0,1,5,1,-5,1,-11,1,-22,1,-14,1,-13,1,-12,1,-7,1
450,3,1,-3,1,-6,1,0,1,4,1,-4,1,-10,1,-22,1,-13,1,-13,1,-12,1,-7,1
451,3,1,-4,1,-7,1,0,1,5,1,-5,1,-9,1,-22,1,-12,1,-13,1,-12,1,-6,1
452,1,1,-4,1,-5,1,1,1,3,1,-4,1,-9,1,-22,1,-12,1,-13,1,-12,1,-5,1
453,1,1,-2,1,-3,1,0,1,2,1,-2,1,-9,1,-21,1,-11,1,-14,1,-12,1,-5,1
454,1,1,-2,1,-3,1,0,1,2,1,-2,1,-9,1,-22,1,-12,1,-14,1,-12,1,-6,1
455,2,1,-2,1,-4,1,0,1,3,1,-3,1,-9,1,-22,1,-12,1,-13,1,-13,1,-6,1
456,2,1,-2,1,-4,1,0,1,3,1,-3,1,-9,1,-22,1,-12,1,-13,1,-13,1,-7,1
457,1,1,-3,1,-4,1,1,1,2,1,-3,1,-9,1,-21,1,-12,1,-13,1,-12,1,-7,1
458,1,1,-5,1,-6,1,2,1,3,1,-5,1,-9,1,-20,1,-12,1,-13,1,-12,1,-6,1
459,0,1,-5,1,-5,1,2,1,2,1,-5,1,-9,1,-20,1,-12,1,-13,1,-12,1,-6,1
460,1,1,-6,1,-7,1,2,1,4,1,-6,1,-9,1,-20,1,-12,1,-14,1,-12,1,-6,1
461,1,1,-6,1,-7,1,2,1,4,1,-6,1,-9,1,-20,1,-12,1,-15,1,-13,1,-6,1
462,1,1,-6,1,-7,1,2,1,4,1,-6,1,-8,1,-20,1,-12,1,-14,1,-13,1,-6,1
463,2,1,-6,1,-8,1,2,1,5,1,-7,1,-8,1,-20,1,-11,1,-14,1,-13,1,-7,1
464,2,1,-6,1,-8,1,2,1,5,1,-7,1,-8,1,-19,1,-11,1,-14,1,-13,1,-6,1
465,1,1,-6,1,-7,1,2,1,4,1,-6,1,-8,1,-19,1,-11,1,-14,1,-13,1,-6,1
466,1,1,-6,1,-7,1,2,1,4,1,-6,1,-9,1,-18,1,-11,1,-13,1,-12,1,-7,1
467,2,1,-6,1,-8,1,2,1,5,1,-7,1,-8,1,-18,1,-11,1,-14,1,-12,1,-7,1
468,1,1,-6,1,-7,1,2,1,4,1,-6,1,-8,1,-18,1,-11,1,-14,1,-11,1,-7,1
469,1,1,-6,1,-7,1,2,1,4,1,-6,1,-8,1,-18,1,-12,1,-14,1,-12,1,-7,1
470,2,1,-6,1,-8,1,2,1,5,1,-7,1,-7,1,-19,1,-12,1,-14,1,-12,1,-6,1
471,1,1,-6,1,-7,1,2,1,4,1,-6,1,-7,1,-19,1,-12,1,-15,1,-12,1,-6,1
472,1,1,-6,1,-7,1,2,1,4,1,-6,1,-7,1,-18,1,-11,1,-15,1,-12,1,-5,1
473,1,1,-6,1,-7,1,2,1,4,1,-6,1,-7,1,-18,1,-11,1,-14,1,-12,1,-5,1
474,1,1,-6,1,-7,1,2,1,4,1,-6,1,-7,1,-18,1,-11,1,-14,1,-12,1,-5,1
475,3,1,-5,1,-8,1,1,1,5,1,-6,1,-8,1,-18,1,-12,1,-14,1,-12,1,-6,1
476,5,1,-5,1,-10,1,0,1,7,1,-7,1,-9,1,-19,1,-13,1,-15,1,-13,1,-7,1
477,5,1,-5,1,-10,1,0,1,7,1,-7,1,-9,1,-18,1,-13,1,-15,1,-12,1,-7,1
478,3,1,-5,1,-8,1,1,1,5,1,-6,1,-9,1,-18,1,-12,1,-15,1,-12,1,-7,1
479,4,1,-4,1,-8,1,0,1,6,1,-6,1,-9,1,-19,1,-12,1,-15,1,-13,1,-8,1
480,4,1,-3,1,-7,1,0,1,5,1,-5,1,-8,1,-19,1,-12,1,-16,1,-13,1,-8,1
481,5,1,-3,1,-8,1,-1,1,6,1,-5,1,-8,1,-19,1,-11,1,-16,1,-14,1,-8,1
482,5,1,-3,1,-8,1,-1,1,6,1,-5,1,-8,1,-19,1,-11,1,-15,1,-14,1,-8,1
483,4,1,-3,1,-7,1,0,1,5,1,-5,1,-7,1,-19,1,-11,1,-15,1,-14,1,-8,1
484,3,1,-4,1,-7,1,0,1,5,1,-5,1,-7,1,-18,1,-11,1,-15,1,-13,1,-7,1
485,3,1,-5,1,-8,1,1,1,5,1,-6,1,-8,1,-18,1,-11,1,-15,1,-13,1,-7,1
486,3,1,-5,1,-8,1,1,1,5,1,-6,1,-8,1,-18,1,-11,1,-15,1,-13,1,-7,1
487,4,1,-5,1,-9,1,0,1,6,1,-7,1,-7,1,-18,1,-11,1,-15,1,-13,1,-7,1
488,4,1,-5,1,-9,1,0,1,6,1,-7,1,-7,1,-18,1,-11,1,-16,1,-12,1,-7,1
489,4,1,-5,1,-9,1,0,1,6,1,-7,1,-7,1,-18,1,-11,1,-16,1,-13,1,-7,1
490,4,1,-4,1,-8,1,0,1,6,1,-6,1,-7,1,-18,1,-11,1,-16,1,-13,1,-7,1
491,4,1,-3,1,-7,1,0,1,5,1,-5,1,-7,1,-18,1,-12,1,-17,1,-13,1,-7,1
492,5,1,-3,1,-8,1,-1,1,6,1,-5,1,-8,1,-19,1,-12,1,-17,1,-13,1,-7,1
493,6,1,-4,1,-10,1,-1,1,8,1,-7,1,-8,1,-19,1,-12,1,-17,1,-13,1,-7,1
494,6,1,-4,1,-10,1,-1,1,8,1,-7,1,-8,1,-19,1,-12,1,-16,1,-13,1,-7,1
495,6,1,-4,1,-10,1,-1,1,8,1,-7,1,-8,1,-19,1,-12,1,-16,1,-13,1,-7,1
496,6,1,-4,1,-10,1,-1,1,8,1,-7,1,-7,1,-20,1,-12,1,-15,1,-12,1,-7,1
497,6,1,-4,1,-10,1,-1,1,8,1,-7,1,-8,1,-20,1,-12,1,-16,1,-12,1,-7,1
498,6,1,-4,1,-10,1,-1,1,8,1,-7,1,-7,1,-20,1,-11,1,-16,1,-12,1,-7,1
499,6,1,-4,1,-10,1,-1,1,8,1,-7,1,-7,1,-19,1,-11,1,-16,1,-12,1,-7,1
500,6,1,-4,1,-10,1,-1,1,8,1,-7,1,-7,1,-19,1,-11,1,-16,1,-12,1,-8,1
501,6,1,-4,1,-10,1,-1,1,8,1,-7,1,-7,1,-19,1,-11,1,-16,1,-12,1,-8,1
502,6,1,-4,1,-10,1,-1,1,8,1,-7,1,-7,1,-19,1,-11,1,-16,1,-12,1,-8,1
503,5,1,-4,1,-9,1,0,1,7,1,-6,1,-7,1,-18,1,-11,1,-16,1,-12,1,-8,1
504,6,1,-4,1,-10,1,-1,1,8,1,-7,1,-7,1,-18,1,-11,1,-16,1,-12,1,-8,1
505,8,1,-4,1,-12,1,-2,1,10,1,-8,1,-8,1,-19,1,-11,1,-17,1,-12,1,-8,1
506,8,1,-4,1,-12,1,-2,1,10,1,-8,1,-8,1,-19,1,-12,1,-17,1,-12,1,-8,1
507,8,1,-4,1,-12,1,-2,1,10,1,-8,1,-8,1,-18,1,-11,1,-17,1,-12,1,-7,1
508,7,1,-4,1,-11,1,-1,1,9,1,-7,1,-7,1,-18,1,-11,1,-17,1,-12,1,-7,1
509,5,1,-5,1,-10,1,0,1,7,1,-7,1,-7,1,-18,1,-10,1,-17,1,-12,1,-7,1
510,5,1,-5,1,-10,1,0,1,7,1,-7,1,-7,1,-17,1,-10,1,-17,1,-11,1,-7,1
511,4,1,-5,1,-9,1,0,1,6,1,-7,1,-7,1,-17,1,-9,1,-16,1,-11,1,-7,1
512,4,1,-5,1,-9,1,0,1,6,1,-7,1,-7,1,-17,1,-10,1,-16,1,-11,1,-7,1
513,4,1,-5,1,-9,1,0,1,6,1,-7,1,-6,1,-17,1,-10,1,-16,1,-10,1,-6,1
514,5,1,-6,1,-11,1,0,1,8,1,-8,1,-5,1,-17,1,-10,1,-15,1,-10,1,-5,1
515,5,1,-5,1,-10,1,0,1,7,1,-7,1,-5,1,-17,1,-9,1,-15,1,-10,1,-5,1
516,4,1,-5,1,-9,1,0,1,6,1,-7,1,-5,1,-17,1,-9,1,-15,1,-10,1,-5,1
517,5,1,-4,1,-9,1,0,1,7,1,-6,1,-4,1,-17,1,-9,1,-15,1,-11,1,-6,1
518,6,1,-4,1,-10,1,-1,1,8,1,-7,1,-3,1,-17,1,-9,1,-15,1,-12,1,-7,1
519,7,1,-4,1,-11,1,-1,1,9,1,-7,1,-2,1,-17,1,-9,1,-15,1,-11,1,-7,1
520,8,1,-3,1,-11,1,-2,1,9,1,-7,1,-1,1,-16,1,-9,1,-15,1,-10,1,-7,1
521,7,1,-1,1,-8,1,-3,1,7,1,-4,1,0,1,-16,1,-8,1,-15,1,-9,1,-6,1
522,7,1,-1,1,-8,1,-3,1,7,1,-4,1,1,1,-15,1,-8,1,-14,1,-8,1,-5,1
523,7,1,0,1,-7,1,-3,1,7,1,-3,1,1,1,-15,1,-7,1,-13,1,-8,1,-4,1
524,7,1,1,1,-6,1,-4,1,7,1,-2,1,1,1,-14,1,-6,1,-13,1,-7,1,-3,1
525,6,1,4,1,-2,1,-5,1,4,1,1,1,2,1,-13,1,-5,1,-12,1,-6,1,-2,1
526,7,1,6,1,-1,1,-6,1,4,1,3,1,2,1,-12,1,-5,1,-11,1,-6,1,-2,1
527,9,1,7,1,-2,1,-8,1,6,1,3,1,2,1,-12,1,-5,1,-11,1,-6,1,-2,1
528,11,1,8,1,-3,1,-9,1,7,1,3,1,3,1,-11,1,-4,1,-10,1,-6,1,-2,1
529,11,1,8,1,-3,1,-9,1,7,1,3,1,5,1,-9,1,-3,1,-9,1,-5,1,-1,1
530,11,1,9,1,-2,1,-10,1,7,1,4,1,7,1,-9,1,-3,1,-8,1,-5,1,0,1
531,12,1,10,1,-2,1,-11,1,7,1,4,1,7,1,-9,1,-2,1,-8,1,-5,1,0,1
532,11,1,10,1,-1,1,-10,1,6,1,5,1,7,1,-8,1,-2,1,-8,1,-4,1,1,1
533,11,1,11,1,0,1,-11,1,6,1,6,1,6,1,-8,1,-2,1,-8,1,-4,1,1,1
534,10,1,12,1,2,1,-11,1,4,1,7,1,6,1,-7,1,-1,1,-7,1,-3,1,2,1
535,9,1,12,1,3,1,-10,1,3,1,8,1,7,1,-6,1,-1,1,-6,1,-2,1,2,1
536,8,1,12,1,4,1,-10,1,2,1,8,1,8,1,-5,1,-1,1,-6,1,-2,1,2,1
537,9,1,12,1,3,1,-10,1,3,1,8,1,8,1,-5,1,-1,1,-6,1,-2,1,2,1
538,9,1,12,1,3,1,-10,1,3,1,8,1,8,1,-5,1,0,1,-5,1,-2,1,1,1
539,10,1,13,1,3,1,-11,1,4,1,8,1,9,1,-5,1,0,1,-5,1,-2,1,2,1
540,11,1,12,1,1,1,-11,1,5,1,7,1,9,1,-4,1,1,1,-5,1,-2,1,2,1
541,12,1,13,1,1,1,-12,1,6,1,7,1,9,1,-4,1,2,1,-4,1,-1,1,3,1
542,12,1,14,1,2,1,-13,1,5,1,8,1,9,1,-3,1,2,1,-3,1,0,1,4,1
543,11,1,16,1,5,1,-13,1,3,1,11,1,8,1,-3,1,2,1,-3,1,0,1,4,1
544,11,1,18,1,7,1,-14,1,2,1,13,1,7,1,-3,1,2,1,-3,1,0,1,4,1
545,12,1,17,1,5,1,-14,1,4,1,11,1,6,1,-3,1,1,1,-3,1,0,1,5,1
546,12,1,16,1,4,1,-14,1,4,1,10,1,4,1,-4,1,1,1,-3,1,0,1,5,1
547,13,1,16,1,3,1,-14,1,5,1,10,1,2,1,-6,1,1,1,-4,1,1,1,6,1
548,15,1,16,1,1,1,-15,1,7,1,9,1,0,1,-7,1,1,1,-5,1,1,1,7,1
549,16,1,15,1,-1,1,-15,1,9,1,7,1,0,1,-7,1,1,1,-5,1,1,1,7,1
550,16,1,15,1,-1,1,-15,1,9,1,7,1,-1,1,-7,1,1,1,-5,1,1,1,7,1
551,17,1,15,1,-2,1,-16,1,10,1,7,1,-2,1,-8,1,0,1,-5,1,0,1,7,1
552,18,1,14,1,-4,1,-16,1,11,1,5,1,-4,1,-8,1,0,1,-5,1,1,1,7,1
553,20,1,14,1,-6,1,-17,1,13,1,4,1,-5,1,-8,1,-1,1,-6,1,1,1,6,1
554,21,1,14,1,-7,1,-17,1,14,1,4,1,-6,1,-9,1,-2,1,-6,1,1,1,5,1
555,22,1,13,1,-9,1,-17,1,16,1,2,1,-6,1,-10,1,-3,1,-7,1,0,1,5,1
556,23,1,13,1,-10,1,-18,1,17,1,2,1,-7,1,-10,1,-3,1,-8,1,0,1,5,1
557,23,1,12,1,-11,1,-17,1,17,1,1,1,-8,1,-11,1,-4,1,-8,1,-1,1,5,1
558,24,1,11,1,-13,1,-17,1,19,1,-1,1,-8,1,-11,1,-4,1,-9,1,-1,1,5,1
559,24,1,10,1,-14,1,-17,1,19,1,-2,1,-7,1,-12,1,-5,1,-10,1,-3,1,5,1
560,23,1,8,1,-15,1,-15,1,19,1,-3,1,-7,1,-13,1,-6,1,-11,1,-4,1,4,1
561,22,1,7,1,-15,1,-14,1,19,1,-4,1,-8,1,-14,1,-8,1,-12,1,-5,1,4,1
562,20,1,6,1,-14,1,-13,1,17,1,-4,1,-10,1,-15,1,-9,1,-13,1,-5,1,3,1
563,19,1,5,1,-14,1,-12,1,17,1,-4,1,-11,1,-15,1,-10,1,-13,1,-6,1,1,1
564,19,1,3,1,-16,1,-11,1,18,1,-6,1,-10,1,-15,1,-10,1,-13,1,-5,1,1,1
565,17,1,2,1,-15,1,-9,1,16,1,-6,1,-8,1,-14,1,-9,1,-13,1,-5,1,1,1
566,16,1,1,1,-15,1,-8,1,16,1,-7,1,-7,1,-14,1,-8,1,-13,1,-5,1,1,1
567,15,1,1,1,-14,1,-8,1,15,1,-6,1,-6,1,-13,1,-9,1,-13,1,-5,1,1,1
568,14,1,0,1,-14,1,-7,1,14,1,-7,1,-5,1,-13,1,-9,1,-13,1,-6,1,0,1
569,13,1,0,1,-13,1,-6,1,13,1,-6,1,-4,1,-13,1,-9,1,-13,1,-7,1,-1,1
570,11,1,-1,1,-12,1,-5,1,11,1,-6,1,-3,1,-13,1,-9,1,-14,1,-7,1,-1,1
571,9,1,-2,1,-11,1,-3,1,10,1,-6,1,-3,1,-14,1,-10,1,-14,1,-8,1,-3,1
572,7,1,-3,1,-10,1,-2,1,8,1,-6,1,-2,1,-15,1,-10,1,-15,1,-9,1,-4,1
573,6,1,-4,1,-10,1,-1,1,8,1,-7,1,-2,1,-15,1,-11,1,-15,1,-9,1,-4,1
574,6,1,-5,1,-11,1,0,1,8,1,-8,1,-2,1,-16,1,-11,1,-16,1,-10,1,-6,1
575,6,1,-6,1,-12,1,0,1,9,1,-9,1,-2,1,-17,1,-13,1,-17,1,-11,1,-8,1
576,6,1,-8,1,-14,1,1,1,10,1,-11,1,-2,1,-17,1,-13,1,-17,1,-11,1,-7,1
577,4,1,-8,1,-12,1,2,1,8,1,-10,1,-3,1,-16,1,-14,1,-17,1,-11,1,-7,1
578,4,1,-8,1,-12,1,2,1,8,1,-10,1,-3,1,-16,1,-14,1,-17,1,-12,1,-7,1
579,4,1,-8,1,-12,1,2,1,8,1,-10,1,-3,1,-17,1,-14,1,-17,1,-12,1,-8,1
580,3,1,-9,1,-12,1,3,1,7,1,-10,1,-3,1,-17,1,-14,1,-17,1,-12,1,-8,1
581,3,1,-9,1,-12,1,3,1,7,1,-10,1,-3,1,-17,1,-14,1,-17,1,-12,1,-8,1
582,2,1,-9,1,-11,1,3,1,6,1,-10,1,-2,1,-16,1,-13,1,-17,1,-13,1,-8,1
583,1,1,-8,1,-9,1,3,1,5,1,-8,1,-2,1,-16,1,-12,1,-17,1,-13,1,-8,1
584,2,1,-9,1,-11,1,3,1,6,1,-10,1,-2,1,-16,1,-12,1,-17,1,-13,1,-8,1
585,1,1,-9,1,-10,1,4,1,5,1,-9,1,-2,1,-16,1,-13,1,-18,1,-13,1,-8,1
586,1,1,-9,1,-10,1,4,1,5,1,-9,1,-1,1,-16,1,-13,1,-18,1,-13,1,-8,1
587,1,1,-9,1,-10,1,4,1,5,1,-9,1,-1,1,-15,1,-13,1,-18,1,-13,1,-8,1
588,1,1,-10,1,-11,1,4,1,6,1,-10,1,-1,1,-15,1,-13,1,-18,1,-13,1,-8,1
589,1,1,-10,1,-11,1,4,1,6,1,-10,1,-1,1,-15,1,-13,1,-17,1,-12,1,-8,1
590,1,1,-10,1,-11,1,4,1,6,1,-10,1,0,1,-15,1,-12,1,-17,1,-12,1,-8,1
591,0,1,-9,1,-9,1,4,1,4,1,-9,1,0,1,-14,1,-11,1,-16,1,-11,1,-7,1
592,0,1,-9,1,-9,1,4,1,4,1,-9,1,0,1,-14,1,-10,1,-15,1,-11,1,-7,1
593,0,1,-9,1,-9,1,4,1,4,1,-9,1,0,1,-15,1,-11,1,-16,1,-12,1,-7,1
594,0,1,-10,1,-10,1,5,1,5,1,-10,1,0,1,-15,1,-11,1,-16,1,-12,1,-7,1
595,0,1,-11,1,-11,1,5,1,5,1,-11,1,-1,1,-15,1,-11,1,-16,1,-12,1,-6,1
596,0,1,-11,1,-11,1,5,1,5,1,-11,1,-1,1,-15,1,-13,1,-15,1,-12,1,-6,1
597,0,1,-10,1,-10,1,5,1,5,1,-10,1,-1,1,-15,1,-13,1,-16,1,-12,1,-6,1
598,0,1,-10,1,-10,1,5,1,5,1,-10,1,-1,1,-15,1,-13,1,-16,1,-12,1,-7,1
599,0,1,-10,1,-10,1,5,1,5,1,-10,1,-1,1,-15,1,-13,1,-15,1,-12,1,-7,1
600,-1,1,-11,1,-10,1,6,1,4,1,-11,1,-1,1,-14,1,-12,1,-15,1,-11,1,-7,1
601,-2,1,-10,1,-8,1,6,1,3,1,-9,1,0,1,-12,1,-11,1,-14,1,-11,1,-6,1
602,-2,1,-10,1,-8,1,6,1,3,1,-9,1,2,1,-9,1,-8,1,-12,1,-9,1,-6,1
603,-2,1,-8,1,-6,1,5,1,2,1,-7,1,5,1,-3,1,-2,1,-7,1,-7,1,-5,1
604,-2,1,-6,1,-4,1,4,1,1,1,-5,1,7,1,5,1,6,1,0,1,-4,1,-3,1
605,0,1,-3,1,-3,1,1,1,1,1,-3,1,10,1,14,1,15,1,9,1,0,1,-1,1
606,3,1,1,1,-2,1,-2,1,3,1,0,1,12,1,26,1,27,1,21,1,7,1,2,1
607,7,1,4,1,-3,1,-5,1,5,1,1,1,15,1,38,1,40,1,33,1,15,1,7,1
608,12,1,6,1,-6,1,-9,1,9,1,0,1,18,1,56,1,58,1,50,1,28,1,13,1
609,21,1,8,1,-13,1,-14,1,17,1,-2,1,20,1,79,1,80,1,70,1,41,1,20,1
610,34,1,10,1,-24,1,-22,1,29,1,-7,1,22,1,103,1,104,1,93,1,59,1,28,1
611,52,1,14,1,-38,1,-33,1,45,1,-12,1,22,1,125,1,130,1,118,1,79,1,38,1
612,73,1,18,1,-55,1,-45,1,64,1,-18,1,19,1,140,1,150,1,141,1,101,1,51,1
613,96,1,25,1,-71,1,-60,1,84,1,-23,1,13,1,142,1,161,1,159,1,123,1,65,1
614,120,1,33,1,-87,1,-76,1,104,1,-27,1,2,1,132,1,162,1,168,1,142,1,80,1
615,143,1,42,1,-101,1,-92,1,122,1,-29,1,-11,1,115,1,155,1,170,1,157,1,94,1
616,162,1,51,1,-111,1,-106,1,137,1,-30,1,-27,1,88,1,139,1,163,1,165,1,106,1
617,174,1,60,1,-114,1,-117,1,144,1,-27,1,-45,1,50,1,108,1,140,1,162,1,113,1
618,178,1,65,1,-113,1,-121,1,146,1,-24,1,-65,1,0,1,61,1,100,1,146,1,113,1
619,172,1,65,1,-107,1,-118,1,140,1,-21,1,-81,1,-53,1,6,1,49,1,118,1,104,1
620,158,1,64,1,-94,1,-111,1,126,1,-15,1,-91,1,-108,1,-52,1,-8,1,82,1,89,1
621,137,1,64,1,-73,1,-100,1,105,1,-4,1,-99,1,-162,1,-112,1,-66,1,47,1,75,1
622,110,1,60,1,-50,1,-85,1,80,1,5,1,-103,1,-214,1,-172,1,-126,1,9,1,59,1
623,84,1,51,1,-33,1,-67,1,59,1,9,1,-109,1,-263,1,-230,1,-184,1,-31,1,40,1
624,62,1,36,1,-26,1,-49,1,44,1,5,1,-113,1,-300,1,-275,1,-232,1,-68,1,19,1
625,44,1,18,1,-26,1,-31,1,35,1,-4,1,-115,1,-323,1,-304,1,-266,1,-100,1,-2,1
626,26,1,-1,1,-27,1,-12,1,26,1,-14,1,-112,1,-332,1,-317,1,-286,1,-125,1,-24,1
627,9,1,-19,1,-28,1,5,1,18,1,-23,1,-109,1,-333,1,-320,1,-295,1,-143,1,-40,1
628,-5,1,-33,1,-28,1,19,1,11,1,-31,1,-105,1,-326,1,-316,1,-295,1,-151,1,-51,1
629,-13,1,-44,1,-31,1,28,1,9,1,-38,1,-102,1,-318,1,-310,1,-293,1,-156,1,-59,1
630,-19,1,-54,1,-35,1,36,1,8,1,-45,1,-100,1,-309,1,-303,1,-288,1,-157,1,-65,1
631,-21,1,-60,1,-39,1,40,1,9,1,-50,1,-99,1,-299,1,-294,1,-281,1,-157,1,-69,1
632,-22,1,-65,1,-43,1,43,1,10,1,-54,1,-97,1,-285,1,-282,1,-270,1,-154,1,-71,1
633,-23,1,-66,1,-43,1,44,1,10,1,-55,1,-93,1,-268,1,-265,1,-255,1,-148,1,-71,1
634,-23,1,-65,1,-42,1,44,1,9,1,-54,1,-88,1,-246,1,-243,1,-236,1,-141,1,-70,1
635,-23,1,-62,1,-39,1,42,1,8,1,-51,1,-81,1,-222,1,-218,1,-213,1,-131,1,-68,1
636,-23,1,-59,1,-36,1,41,1,6,1,-48,1,-74,1,-194,1,-190,1,-187,1,-120,1,-65,1
637,-22,1,-55,1,-33,1,38,1,5,1,-44,1,-68,1,-167,1,-164,1,-163,1,-108,1,-60,1
638,-20,1,-50,1,-30,1,35,1,5,1,-40,1,-62,1,-142,1,-140,1,-141,1,-96,1,-54,1
639,-18,1,-44,1,-26,1,31,1,4,1,-35,1,-56,1,-120,1,-120,1,-121,1,-84,1,-47,1
640,-16,1,-36,1,-20,1,26,1,2,1,-28,1,-49,1,-100,1,-103,1,-105,1,-72,1,-39,1
641,-13,1,-29,1,-16,1,21,1,1,1,-23,1,-40,1,-82,1,-88,1,-91,1,-62,1,-32,1
642,-11,1,-22,1,-11,1,16,1,0,1,-17,1,-31,1,-67,1,-74,1,-78,1,-53,1,-26,1
643,-8,1,-18,1,-10,1,13,1,1,1,-14,1,-23,1,-54,1,-60,1,-66,1,-45,1,-21,1
644,-6,1,-16,1,-10,1,11,1,2,1,-13,1,-17,1,-42,1,-48,1,-54,1,-39,1,-19,1
645,-3,1,-15,1,-12,1,9,1,4,1,-14,1,-13,1,-33,1,-37,1,-43,1,-35,1,-17,1
646,-1,1,-14,1,-13,1,7,1,6,1,-14,1,-10,1,-25,1,-29,1,-33,1,-32,1,-16,1
647,0,1,-14,1,-14,1,7,1,7,1,-14,1,-8,1,-18,1,-21,1,-25,1,-28,1,-15,1
648,1,1,-13,1,-14,1,6,1,7,1,-13,1,-7,1,-12,1,-17,1,-20,1,-25,1,-13,1
649,0,1,-11,1,-11,1,5,1,5,1,-11,1,-6,1,-8,1,-13,1,-16,1,-22,1,-11,1
650,-1,1,-9,1,-8,1,5,1,3,1,-9,1,-4,1,-4,1,-10,1,-14,1,-19,1,-8,1
651,-1,1,-8,1,-7,1,4,1,3,1,-8,1,-3,1,-2,1,-9,1,-13,1,-17,1,-7,1
652,-1,1,-7,1,-6,1,4,1,2,1,-7,1,-2,1,-1,1,-8,1,-12,1,-16,1,-6,1
653,-1,1,-6,1,-5,1,3,1,2,1,-6,1,-1,1,0,1,-6,1,-10,1,-16,1,-6,1
654,-1,1,-5,1,-4,1,3,1,1,1,-5,1,-1,1,1,1,-4,1,-8,1,-15,1,-6,1
655,0,1,-5,1,-5,1,2,1,2,1,-5,1,-1,1,2,1,-1,1,-5,1,-14,1,-6,1
656,0,1,-5,1,-5,1,2,1,2,1,-5,1,-1,1,4,1,0,1,-2,1,-13,1,-5,1
657,2,1,-4,1,-6,1,1,1,4,1,-5,1,-1,1,5,1,3,1,0,1,-13,1,-5,1
658,2,1,-4,1,-6,1,1,1,4,1,-5,1,0,1,7,1,4,1,1,1,-12,1,-5,1
659,2,1,-3,1,-5,1,0,1,3,1,-4,1,0,1,8,1,4,1,2,1,-10,1,-5,1
660,1,1,-2,1,-3,1,0,1,2,1,-2,1,2,1,10,1,4,1,3,1,-9,1,-4,1
661,1,1,-2,1,-3,1,0,1,2,1,-2,1,2,1,11,1,5,1,3,1,-8,1,-3,1
662,1,1,-2,1,-3,1,0,1,2,1,-2,1,2,1,11,1,5,1,4,1,-8,1,-2,1
663,1,1,-2,1,-3,1,0,1,2,1,-2,1,2,1,13,1,6,1,4,1,-7,1,-2,1
664,1,1,-2,1,-3,1,0,1,2,1,-2,1,2,1,14,1,7,1,4,1,-6,1,-1,1
665,1,1,-2,1,-3,1,0,1,2,1,-2,1,1,1,15,1,8,1,6,1,-5,1,-1,1
666,1,1,-2,1,-3,1,0,1,2,1,-2,1,1,1,15,1,9,1,7,1,-5,1,-1,1
667,2,1,-1,1,-3,1,0,1,2,1,-2,1,0,1,16,1,10,1,8,1,-4,1,-2,1
668,4,1,-1,1,-5,1,-1,1,4,1,-3,1,-1,1,16,1,10,1,9,1,-5,1,-3,1
669,4,1,-1,1,-5,1,-1,1,4,1,-3,1,0,1,16,1,11,1,10,1,-4,1,-1,1
670,4,1,0,1,-4,1,-2,1,4,1,-2,1,0,1,17,1,13,1,11,1,-3,1,-1,1
671,3,1,0,1,-3,1,-1,1,3,1,-1,1,0,1,18,1,14,1,12,1,-3,1,0,1
672,3,1,0,1,-3,1,-1,1,3,1,-1,1,1,1,19,1,14,1,13,1,-3,1,0,1
673,4,1,0,1,-4,1,-2,1,4,1,-2,1,1,1,19,1,14,1,13,1,-3,1,0,1
674,4,1,1,1,-3,1,-2,1,4,1,-1,1,1,1,20,1,15,1,14,1,-2,1,0,1
675,3,1,2,1,-1,1,-2,1,2,1,1,1,1,1,21,1,15,1,15,1,-1,1,0,1
676,4,1,2,1,-2,1,-3,1,3,1,0,1,0,1,22,1,16,1,16,1,0,1,0,1
677,4,1,2,1,-2,1,-3,1,3,1,0,1,0,1,23,1,16,1,17,1,1,1,-1,1
678,5,1,2,1,-3,1,-3,1,4,1,0,1,0,1,23,1,17,1,17,1,1,1,0,1
679,6,1,3,1,-3,1,-4,1,5,1,0,1,-1,1,24,1,18,1,17,1,1,1,0,1
680,6,1,2,1,-4,1,-4,1,5,1,-1,1,-1,1,25,1,18,1,18,1,1,1,2,1
681,6,1,2,1,-4,1,-4,1,5,1,-1,1,-1,1,26,1,20,1,19,1,2,1,2,1
682,7,1,2,1,-5,1,-4,1,6,1,-1,1,-1,1,27,1,20,1,20,1,2,1,3,1
683,7,1,3,1,-4,1,-5,1,6,1,0,1,0,1,28,1,21,1,21,1,3,1,3,1
684,7,1,3,1,-4,1,-5,1,6,1,0,1,0,1,28,1,21,1,22,1,3,1,3,1
685,7,1,4,1,-3,1,-5,1,5,1,1,1,0,1,29,1,22,1,22,1,3,1,3,1
686,8,1,3,1,-5,1,-5,1,7,1,-1,1,0,1,30,1,23,1,23,1,4,1,4,1
687,9,1,3,1,-6,1,-6,1,8,1,-1,1,0,1,31,1,24,1,24,1,5,1,4,1
688,10,1,2,1,-8,1,-6,1,9,1,-3,1,-1,1,32,1,25,1,25,1,5,1,4,1
689,9,1,2,1,-7,1,-5,1,8,1,-2,1,-1,1,34,1,26,1,26,1,6,1,4,1
690,8,1,2,1,-6,1,-5,1,7,1,-2,1,-1,1,35,1,27,1,27,1,7,1,5,1
691,9,1,3,1,-6,1,-6,1,8,1,-1,1,-1,1,36,1,27,1,28,1,8,1,5,1
692,9,1,4,1,-5,1,-6,1,7,1,0,1,-2,1,37,1,27,1,29,1,8,1,5,1
693,10,1,5,1,-5,1,-7,1,8,1,0,1,-2,1,38,1,27,1,30,1,8,1,5,1
694,10,1,6,1,-4,1,-8,1,7,1,1,1,-2,1,38,1,28,1,31,1,9,1,6,1
695,11,1,7,1,-4,1,-9,1,8,1,2,1,-2,1,39,1,30,1,32,1,9,1,7,1
696,11,1,6,1,-5,1,-8,1,8,1,1,1,-2,1,40,1,31,1,33,1,10,1,7,1
697,12,1,6,1,-6,1,-9,1,9,1,0,1,-2,1,41,1,32,1,33,1,10,1,7,1
698,12,1,7,1,-5,1,-9,1,9,1,1,1,-2,1,42,1,34,1,34,1,11,1,6,1
699,12,1,6,1,-6,1,-9,1,9,1,0,1,-1,1,43,1,35,1,34,1,11,1,7,1
700,13,1,6,1,-7,1,-9,1,10,1,0,1,0,1,45,1,36,1,35,1,12,1,7,1
701,13,1,7,1,-6,1,-10,1,10,1,1,1,0,1,46,1,37,1,36,1,13,1,8,1
702,13,1,8,1,-5,1,-10,1,9,1,2,1,0,1,47,1,38,1,38,1,14,1,9,1
703,14,1,10,1,-4,1,-12,1,9,1,3,1,0,1,48,1,39,1,39,1,15,1,9,1
704,15,1,9,1,-6,1,-12,1,11,1,2,1,0,1,50,1,40,1,40,1,15,1,10,1
705,16,1,10,1,-6,1,-13,1,11,1,2,1,-1,1,51,1,42,1,41,1,16,1,11,1
706,16,1,10,1,-6,1,-13,1,11,1,2,1,-1,1,52,1,43,1,43,1,17,1,11,1
707,16,1,10,1,-6,1,-13,1,11,1,2,1,-1,1,53,1,44,1,44,1,18,1,12,1
708,19,1,10,1,-9,1,-14,1,14,1,1,1,-1,1,54,1,45,1,44,1,18,1,12,1
709,20,1,11,1,-9,1,-15,1,15,1,1,1,-1,1,55,1,46,1,46,1,19,1,12,1
710,21,1,11,1,-10,1,-16,1,16,1,1,1,-1,1,57,1,48,1,47,1,20,1,14,1
711,22,1,11,1,-11,1,-16,1,17,1,0,1,-1,1,58,1,49,1,49,1,21,1,14,1
712,22,1,13,1,-9,1,-17,1,16,1,2,1,-1,1,60,1,51,1,50,1,21,1,15,1
713,24,1,14,1,-10,1,-19,1,17,1,2,1,-1,1,61,1,52,1,51,1,22,1,15,1
714,22,1,14,1,-8,1,-18,1,15,1,3,1,-1,1,64,1,54,1,54,1,23,1,16,1
715,22,1,15,1,-7,1,-18,1,15,1,4,1,-1,1,66,1,56,1,55,1,24,1,16,1
716,23,1,15,1,-8,1,-19,1,16,1,4,1,-1,1,68,1,58,1,56,1,25,1,17,1
717,24,1,16,1,-8,1,-20,1,16,1,4,1,-1,1,69,1,59,1,58,1,25,1,18,1
718,24,1,16,1,-8,1,-20,1,16,1,4,1,-1,1,71,1,60,1,59,1,26,1,18,1
719,26,1,17,1,-9,1,-21,1,18,1,4,1,0,1,73,1,62,1,61,1,28,1,19,1
720,28,1,18,1,-10,1,-23,1,19,1,4,1,0,1,75,1,64,1,63,1,29,1,20,1
721,29,1,19,1,-10,1,-24,1,20,1,5,1,0,1,77,1,65,1,64,1,30,1,20,1
722,30,1,21,1,-9,1,-25,1,20,1,6,1,0,1,78,1,67,1,66,1,32,1,21,1
723,32,1,22,1,-10,1,-27,1,21,1,6,1,0,1,79,1,69,1,67,1,33,1,21,1
724,33,1,23,1,-10,1,-28,1,22,1,7,1,-1,1,81,1,71,1,68,1,34,1,22,1
725,34,1,24,1,-10,1,-29,1,22,1,7,1,-1,1,82,1,72,1,69,1,35,1,23,1
726,33,1,25,1,-8,1,-29,1,21,1,9,1,-1,1,84,1,74,1,71,1,37,1,25,1
727,34,1,27,1,-7,1,-30,1,21,1,10,1,-1,1,85,1,75,1,73,1,38,1,26,1
728,35,1,27,1,-8,1,-31,1,22,1,10,1,0,1,87,1,75,1,75,1,39,1,28,1
729,36,1,27,1,-9,1,-31,1,23,1,9,1,0,1,88,1,76,1,76,1,40,1,29,1
730,38,1,28,1,-10,1,-33,1,24,1,9,1,-1,1,89,1,78,1,77,1,42,1,30,1
731,39,1,30,1,-9,1,-34,1,24,1,11,1,-2,1,90,1,80,1,77,1,43,1,30,1
732,40,1,31,1,-9,1,-35,1,25,1,11,1,-2,1,91,1,81,1,78,1,45,1,31,1
733,41,1,32,1,-9,1,-36,1,25,1,12,1,-3,1,92,1,83,1,80,1,46,1,32,1
734,42,1,34,1,-8,1,-38,1,25,1,13,1,-3,1,93,1,84,1,80,1,48,1,33,1
735,43,1,36,1,-7,1,-39,1,25,1,15,1,-3,1,93,1,83,1,81,1,48,1,33,1
736,44,1,37,1,-7,1,-40,1,26,1,15,1,-3,1,94,1,84,1,82,1,48,1,34,1
737,45,1,37,1,-8,1,-41,1,27,1,15,1,-3,1,95,1,84,1,82,1,48,1,35,1
738,46,1,38,1,-8,1,-42,1,27,1,15,1,-3,1,95,1,85,1,83,1,48,1,36,1
739,46,1,39,1,-7,1,-42,1,27,1,16,1,-4,1,96,1,85,1,83,1,49,1,36,1
740,47,1,40,1,-7,1,-43,1,27,1,17,1,-4,1,95,1,85,1,84,1,50,1,36,1
741,48,1,40,1,-8,1,-44,1,28,1,16,1,-4,1,95,1,86,1,84,1,50,1,36,1
742,48,1,41,1,-7,1,-44,1,28,1,17,1,-4,1,95,1,86,1,85,1,51,1,37,1
743,48,1,41,1,-7,1,-44,1,28,1,17,1,-4,1,94,1,87,1,85,1,52,1,38,1
744,47,1,41,1,-6,1,-44,1,27,1,18,1,-4,1,93,1,87,1,85,1,52,1,39,1
745,47,1,42,1,-5,1,-44,1,26,1,19,1,-4,1,93,1,86,1,85,1,52,1,39,1
746,48,1,43,1,-5,1,-45,1,27,1,19,1,-4,1,92,1,85,1,84,1,52,1,39,1
747,48,1,43,1,-5,1,-45,1,27,1,19,1,-5,1,90,1,84,1,83,1,53,1,40,1
748,48,1,44,1,-4,1,-46,1,26,1,20,1,-5,1,88,1,82,1,82,1,53,1,40,1
749,47,1,45,1,-2,1,-46,1,25,1,22,1,-6,1,85,1,80,1,81,1,52,1,40,1
750,46,1,46,1,0,1,-46,1,23,1,23,1,-7,1,83,1,78,1,81,1,53,1,40,1
751,45,1,46,1,1,1,-45,1,22,1,24,1,-7,1,81,1,76,1,80,1,53,1,40,1
752,45,1,46,1,1,1,-45,1,22,1,24,1,-8,1,78,1,74,1,78,1,52,1,41,1
753,45,1,45,1,0,1,-45,1,23,1,23,1,-9,1,76,1,72,1,76,1,52,1,40,1
754,44,1,45,1,1,1,-44,1,22,1,23,1,-9,1,73,1,69,1,74,1,51,1,40,1
755,43,1,44,1,1,1,-43,1,21,1,23,1,-10,1,71,1,67,1,72,1,50,1,39,1
756,41,1,43,1,2,1,-42,1,20,1,23,1,-10,1,68,1,65,1,70,1,49,1,37,1
757,39,1,43,1,4,1,-41,1,18,1,24,1,-10,1,65,1,62,1,67,1,48,1,36,1
758,37,1,41,1,4,1,-39,1,17,1,23,1,-11,1,61,1,59,1,65,1,47,1,35,1
759,36,1,38,1,2,1,-37,1,17,1,20,1,-10,1,58,1,56,1,62,1,45,1,35,1
760,33,1,35,1,2,1,-34,1,16,1,19,1,-10,1,56,1,54,1,60,1,44,1,34,1
761,30,1,34,1,4,1,-32,1,13,1,19,1,-12,1,52,1,50,1,57,1,41,1,32,1
762,29,1,32,1,3,1,-30,1,13,1,18,1,-12,1,48,1,46,1,54,1,39,1,30,1
763,28,1,29,1,1,1,-28,1,14,1,15,1,-13,1,44,1,42,1,50,1,36,1,27,1
764,25,1,27,1,2,1,-26,1,12,1,15,1,-12,1,41,1,40,1,47,1,35,1,25,1
765,22,1,26,1,4,1,-24,1,9,1,15,1,-12,1,38,1,36,1,44,1,33,1,23,1
766,20,1,24,1,4,1,-22,1,8,1,14,1,-12,1,34,1,33,1,41,1,31,1,21,1
767,18,1,23,1,5,1,-20,1,7,1,14,1,-12,1,31,1,30,1,38,1,29,1,20,1
768,17,1,22,1,5,1,-19,1,6,1,14,1,-13,1,28,1,28,1,35,1,26,1,18,1
769,15,1,20,1,5,1,-17,1,5,1,13,1,-13,1,25,1,25,1,33,1,24,1,17,1
770,13,1,17,1,4,1,-15,1,5,1,11,1,-13,1,23,1,23,1,31,1,22,1,16,1
771,12,1,16,1,4,1,-14,1,4,1,10,1,-13,1,21,1,22,1,29,1,21,1,15,1
772,10,1,14,1,4,1,-12,1,3,1,9,1,-13,1,19,1,20,1,27,1,20,1,15,1
773,9,1,14,1,5,1,-11,1,2,1,10,1,-13,1,16,1,18,1,25,1,19,1,14,1
774,8,1,13,1,5,1,-10,1,2,1,9,1,-13,1,13,1,16,1,23,1,18,1,12,1
775,6,1,12,1,6,1,-9,1,0,1,9,1,-12,1,10,1,14,1,20,1,16,1,12,1
776,5,1,10,1,5,1,-7,1,0,1,8,1,-12,1,8,1,12,1,18,1,15,1,10,1
777,3,1,9,1,6,1,-6,1,-1,1,8,1,-12,1,6,1,10,1,16,1,14,1,9,1
778,1,1,7,1,6,1,-4,1,-2,1,7,1,-12,1,5,1,9,1,16,1,13,1,8,1
779,0,1,6,1,6,1,-3,1,-3,1,6,1,-12,1,4,1,6,1,14,1,11,1,7,1
780,0,1,5,1,5,1,-2,1,-2,1,5,1,-13,1,3,1,4,1,13,1,10,1,6,1
781,-1,1,5,1,6,1,-2,1,-3,1,5,1,-14,1,3,1,2,1,12,1,9,1,5,1
782,-2,1,5,1,7,1,-1,1,-4,1,6,1,-14,1,2,1,1,1,10,1,8,1,5,1
783,-1,1,5,1,6,1,-2,1,-3,1,5,1,-13,1,1,1,1,1,9,1,7,1,5,1
784,-2,1,3,1,5,1,0,1,-3,1,4,1,-12,1,0,1,1,1,9,1,7,1,5,1
785,-3,1,3,1,6,1,0,1,-4,1,4,1,-12,1,0,1,1,1,8,1,7,1,4,1
786,-4,1,4,1,8,1,0,1,-6,1,6,1,-13,1,-1,1,1,1,8,1,7,1,4,1
787,-4,1,3,1,7,1,0,1,-5,1,5,1,-13,1,-1,1,0,1,7,1,6,1,3,1
788,-4,1,3,1,7,1,0,1,-5,1,5,1,-14,1,-3,1,0,1,6,1,5,1,3,1
789,-4,1,3,1,7,1,0,1,-5,1,5,1,-14,1,-3,1,-1,1,6,1,4,1,3,1
790,-4,1,3,1,7,1,0,1,-5,1,5,1,-14,1,-4,1,-1,1,5,1,4,1,3,1
791,-5,1,2,1,7,1,1,1,-6,1,4,1,-14,1,-5,1,-1,1,5,1,4,1,3,1
792,-6,1,1,1,7,1,2,1,-6,1,4,1,-14,1,-5,1,-2,1,5,1,4,1,3,1
793,-6,1,1,1,7,1,2,1,-6,1,4,1,-13,1,-5,1,-2,1,5,1,4,1,3,1
794,-6,1,1,1,7,1,2,1,-6,1,4,1,-13,1,-5,1,-3,1,4,1,4,1,3,1
795,-5,1,1,1,6,1,2,1,-5,1,3,1,-13,1,-6,1,-4,1,3,1,3,1,2,1
796,-6,1,1,1,7,1,2,1,-6,1,4,1,-12,1,-5,1,-5,1,3,1,3,1,2,1
797,-5,1,0,1,5,1,2,1,-5,1,2,1,-12,1,-5,1,-5,1,3,1,3,1,1,1
798,-5,1,1,1,6,1,2,1,-5,1,3,1,-13,1,-6,1,-5,1,2,1,2,1,1,1
799,-4,1,1,1,5,1,1,1,-4,1,3,1,-13,1,-7,1,-5,1,2,1,2,1,1,1
800,-4,1,0,1,4,1,2,1,-4,1,2,1,-14,1,-7,1,-5,1,1,1,2,1,1,1
801,-5,1,1,1,6,1,2,1,-5,1,3,1,-14,1,-8,1,-5,1,1,1,1,1,0,1
802,-6,1,1,1,7,1,2,1,-6,1,4,1,-14,1,-8,1,-5,1,1,1,2,1,0,1
803,-6,1,1,1,7,1,2,1,-6,1,4,1,-14,1,-9,1,-5,1,0,1,1,1,0,1
804,-4,1,0,1,4,1,2,1,-4,1,2,1,-15,1,-9,1,-6,1,0,1,0,1,-1,1
805,-5,1,-1,1,4,1,3,1,-5,1,1,1,-14,1,-9,1,-6,1,0,1,1,1,0,1
806,-7,1,-2,1,5,1,4,1,-6,1,1,1,-13,1,-9,1,-5,1,1,1,2,1,0,1
807,-6,1,-2,1,4,1,4,1,-5,1,1,1,-13,1,-9,1,-5,1,0,1,2,1,0,1
808,-6,1,-1,1,5,1,3,1,-6,1,2,1,-13,1,-10,1,-5,1,0,1,1,1,0,1
809,-6,1,-1,1,5,1,3,1,-6,1,2,1,-13,1,-10,1,-5,1,0,1,1,1,0,1
810,-6,1,-1,1,5,1,3,1,-6,1,2,1,-13,1,-10,1,-6,1,0,1,1,1,0,1
811,-6,1,-1,1,5,1,3,1,-6,1,2,1,-12,1,-9,1,-6,1,0,1,1,1,1,1
812,-6,1,-1,1,5,1,3,1,-6,1,2,1,-12,1,-9,1,-6,1,0,1,1,1,1,1
813,-6,1,-1,1,5,1,3,1,-6,1,2,1,-12,1,-9,1,-6,1,-1,1,0,1,0,1
814,-6,1,-1,1,5,1,3,1,-6,1,2,1,-12,1,-9,1,-7,1,-1,1,0,1,0,1
815,-5,1,-1,1,4,1,3,1,-5,1,1,1,-13,1,-9,1,-7,1,-1,1,0,1,-1,1
816,-5,1,-2,1,3,1,3,1,-4,1,0,1,-13,1,-9,1,-7,1,-1,1,0,1,-1,1
817,-4,1,-2,1,2,1,3,1,-3,1,0,1,-13,1,-9,1,-6,1,-1,1,0,1,0,1
818,-5,1,-2,1,3,1,3,1,-4,1,0,1,-13,1,-9,1,-5,1,-1,1,0,1,0,1
819,-4,1,-1,1,3,1,2,1,-4,1,1,1,-13,1,-10,1,-5,1,-2,1,0,1,0,1
820,-4,1,0,1,4,1,2,1,-4,1,2,1,-12,1,-9,1,-4,1,-2,1,0,1,0,1
821,-4,1,-1,1,3,1,2,1,-4,1,1,1,-12,1,-9,1,-4,1,-2,1,0,1,0,1
822,-4,1,0,1,4,1,2,1,-4,1,2,1,-11,1,-9,1,-5,1,-2,1,-1,1,0,1
823,-4,1,0,1,4,1,2,1,-4,1,2,1,-11,1,-9,1,-5,1,-1,1,-1,1,0,1
824,-4,1,0,1,4,1,2,1,-4,1,2,1,-11,1,-8,1,-5,1,-1,1,-2,1,0,1
825,-5,1,0,1,5,1,2,1,-5,1,2,1,-11,1,-8,1,-6,1,-1,1,-2,1,0,1
826,-5,1,-1,1,4,1,3,1,-5,1,1,1,-11,1,-8,1,-6,1,-1,1,-2,1,0,1
827,-4,1,-1,1,3,1,2,1,-4,1,1,1,-11,1,-7,1,-5,1,-1,1,-2,1,0,1
828,-3,1,-2,1,1,1,2,1,-2,1,-1,1,-11,1,-7,1,-5,1,-1,1,-2,1,0,1
829,-3,1,-1,1,2,1,2,1,-3,1,0,1,-10,1,-7,1,-4,1,-1,1,-2,1,1,1
830,-4,1,-1,1,3,1,2,1,-4,1,1,1,-10,1,-7,1,-4,1,-1,1,-2,1,1,1
831,-3,1,0,1,3,1,1,1,-3,1,1,1,-11,1,-7,1,-4,1,-2,1,-2,1,1,1
832,-4,1,1,1,5,1,1,1,-4,1,3,1,-10,1,-7,1,-4,1,-1,1,-2,1,1,1
833,-3,1,0,1,3,1,1,1,-3,1,1,1,-10,1,-6,1,-3,1,-1,1,-2,1,1,1
834,-3,1,0,1,3,1,1,1,-3,1,1,1,-10,1,-6,1,-3,1,-1,1,-2,1,1,1
835,-2,1,0,1,2,1,1,1,-2,1,1,1,-10,1,-5,1,-3,1,0,1,-2,1,1,1
836,-2,1,0,1,2,1,1,1,-2,1,1,1,-10,1,-5,1,-2,1,0,1,-2,1,1,1
837,-3,1,0,1,3,1,1,1,-3,1,1,1,-10,1,-5,1,-2,1,0,1,-1,1,1,1
838,-3,1,-1,1,2,1,2,1,-3,1,0,1,-9,1,-4,1,-1,1,0,1,-2,1,1,1
839,-3,1,-1,1,2,1,2,1,-3,1,0,1,-9,1,-4,1,-1,1,0,1,-2,1,1,1
840,-4,1,-1,1,3,1,2,1,-4,1,1,1,-9,1,-4,1,-1,1,-1,1,-1,1,1,1
841,-5,1,0,1,5,1,2,1,-5,1,2,1,-10,1,-5,1,-1,1,-1,1,-1,1,0,1
842,-5,1,0,1,5,1,2,1,-5,1,2,1,-9,1,-5,1,-1,1,-1,1,-1,1,0,1
843,-5,1,0,1,5,1,2,1,-5,1,2,1,-9,1,-4,1,-1,1,-1,1,0,1,0,1
844,-4,1,0,1,4,1,2,1,-4,1,2,1,-9,1,-3,1,0,1,0,1,0,1,1,1
845,-3,1,0,1,3,1,1,1,-3,1,1,1,-9,1,-3,1,0,1,0,1,-1,1,0,1
846,-3,1,0,1,3,1,1,1,-3,1,1,1,-9,1,-2,1,0,1,0,1,-1,1,0,1
847,-2,1,0,1,2,1,1,1,-2,1,1,1,-10,1,-2,1,0,1,0,1,-1,1,1,1
848,-2,1,0,1,2,1,1,1,-2,1,1,1,-10,1,-2,1,0,1,0,1,-1,1,0,1
849,-2,1,0,1,2,1,1,1,-2,1,1,1,-9,1,-3,1,1,1,0,1,-2,1,0,1
850,-2,1,0,1,2,1,1,1,-2,1,1,1,-9,1,-3,1,1,1,0,1,-1,1,0,1
851,-3,1,0,1,3,1,1,1,-3,1,1,1,-9,1,-3,1,2,1,0,1,-1,1,0,1
852,-3,1,0,1,3,1,1,1,-3,1,1,1,-9,1,-3,1,2,1,0,1,0,1,0,1
853,-2,1,0,1,2,1,1,1,-2,1,1,1,-9,1,-3,1,2,1,0,1,0,1,0,1
854,-2,1,0,1,2,1,1,1,-2,1,1,1,-9,1,-3,1,1,1,0,1,1,1,1,1
855,-2,1,0,1,2,1,1,1,-2,1,1,1,-9,1,-2,1,1,1,0,1,1,1,1,1
856,-2,1,0,1,2,1,1,1,-2,1,1,1,-9,1,-2,1,1,1,0,1,0,1,0,1
857,-1,1,0,1,1,1,0,1,-1,1,0,1,-10,1,-3,1,1,1,0,1,0,1,0,1
858,-2,1,0,1,2,1,1,1,-2,1,1,1,-10,1,-2,1,1,1,0,1,0,1,0,1
859,-2,1,0,1,2,1,1,1,-2,1,1,1,-9,1,-2,1,2,1,1,1,0,1,0,1
860,-3,1,0,1,3,1,1,1,-3,1,1,1,-9,1,-2,1,2,1,0,1,0,1,0,1
861,-3,1,1,1,4,1,1,1,-3,1,2,1,-10,1,-2,1,2,1,0,1,1,1,0,1
862,-4,1,1,1,5,1,1,1,-4,1,3,1,-10,1,-3,1,2,1,0,1,1,1,0,1
863,-3,1,0,1,3,1,1,1,-3,1,1,1,-10,1,-3,1,2,1,1,1,1,1,0,1
864,-3,1,0,1,3,1,1,1,-3,1,1,1,-10,1,-2,1,2,1,1,1,1,1,1,1
865,-3,1,0,1,3,1,1,1,-3,1,1,1,-11,1,-2,1,3,1,1,1,1,1,1,1
866,-3,1,0,1,3,1,1,1,-3,1,1,1,-11,1,-2,1,3,1,1,1,1,1,0,1
867,-3,1,1,1,4,1,1,1,-3,1,2,1,-10,1,-2,1,2,1,0,1,1,1,0,1
868,-2,1,0,1,2,1,1,1,-2,1,1,1,-11,1,-2,1,2,1,0,1,0,1,0,1
869,-1,1,0,1,1,1,0,1,-1,1,0,1,-9,1,-2,1,2,1,0,1,0,1,0,1
870,-1,1,0,1,1,1,0,1,-1,1,0,1,-9,1,-2,1,2,1,1,1,0,1,1,1
871,-1,1,0,1,1,1,0,1,-1,1,0,1,-9,1,-3,1,1,1,1,1,0,1,0,1
872,-2,1,0,1,2,1,1,1,-2,1,1,1,-9,1,-3,1,2,1,1,1,0,1,0,1
873,-2,1,-1,1,1,1,1,1,-2,1,0,1,-9,1,-3,1,2,1,1,1,0,1,-1,1
874,-1,1,-1,1,0,1,1,1,-1,1,-1,1,-9,1,-3,1,2,1,1,1,1,1,-1,1
875,0,1,-1,1,-1,1,0,1,0,1,-1,1,-9,1,-3,1,2,1,1,1,0,1,-1,1
876,0,1,-1,1,-1,1,0,1,0,1,-1,1,-9,1,-3,1,3,1,2,1,0,1,0,1
877,0,1,-1,1,-1,1,0,1,0,1,-1,1,-10,1,-3,1,2,1,2,1,0,1,0,1
878,0,1,0,1,0,1,0,1,0,1,0,1,-11,1,-3,1,2,1,1,1,-1,1,0,1
879,0,1,0,1,0,1,0,1,0,1,0,1,-12,1,-4,1,2,1,1,1,-1,1,0,1
880,0,1,-1,1,-1,1,0,1,0,1,-1,1,-11,1,-4,1,2,1,1,1,0,1,1,1
881,-1,1,-1,1,0,1,1,1,-1,1,-1,1,-11,1,-4,1,2,1,1,1,0,1,1,1
882,-1,1,-1,1,0,1,1,1,-1,1,-1,1,-11,1,-4,1,1,1,0,1,0,1,0,1
883,-1,1,-1,1,0,1,1,1,-1,1,-1,1,-11,1,-4,1,2,1,0,1,0,1,1,1
884,-2,1,-1,1,1,1,1,1,-2,1,0,1,-11,1,-4,1,2,1,0,1,1,1,0,1
885,-2,1,-1,1,1,1,1,1,-2,1,0,1,-11,1,-5,1,2,1,0,1,0,1,0,1
886,-1,1,-1,1,0,1,1,1,-1,1,-1,1,-11,1,-5,1,1,1,-1,1,0,1,0,1
887,-2,1,-1,1,1,1,1,1,-2,1,0,1,-11,1,-5,1,1,1,-1,1,0,1,1,1
888,-2,1,-1,1,1,1,1,1,-2,1,0,1,-12,1,-5,1,0,1,-1,1,-1,1,1,1
889,-2,1,-1,1,1,1,1,1,-2,1,0,1,-12,1,-6,1,0,1,-2,1,-1,1,1,1
890,-3,1,-1,1,2,1,2,1,-3,1,0,1,-12,1,-6,1,0,1,-1,1,-1,1,0,1
891,-3,1,-2,1,1,1,2,1,-2,1,-1,1,-11,1,-6,1,0,1,-1,1,-1,1,0,1
892,-4,1,-2,1,2,1,3,1,-3,1,0,1,-11,1,-6,1,0,1,-2,1,-1,1,-1,1
893,-4,1,-2,1,2,1,3,1,-3,1,0,1,-12,1,-7,1,0,1,-2,1,-1,1,-1,1
894,-4,1,-1,1,3,1,2,1,-4,1,1,1,-11,1,-7,1,0,1,-3,1,-1,1,-1,1
895,-4,1,-2,1,2,1,3,1,-3,1,0,1,-11,1,-7,1,0,1,-3,1,0,1,0,1
896,-3,1,-2,1,1,1,2,1,-2,1,-1,1,-10,1,-7,1,1,1,-3,1,0,1,0,1
897,-3,1,-1,1,2,1,2,1,-3,1,0,1,-10,1,-7,1,0,1,-3,1,0,1,1,1
898,-4,1,0,1,4,1,2,1,-4,1,2,1,-10,1,-7,1,0,1,-2,1,0,1,0,1
899,-4,1,0,1,4,1,2,1,-4,1,2,1,-11,1,-8,1,-1,1,-2,1,-1,1,0,1
900,-3,1,0,1,3,1,1,1,-3,1,1,1,-11,1,-8,1,-1,1,-3,1,-2,1,0,1
901,-3,1,0,1,3,1,1,1,-3,1,1,1,-12,1,-9,1,-2,1,-3,1,-2,1,0,1
902,-3,1,0,1,3,1,1,1,-3,1,1,1,-12,1,-8,1,-3,1,-3,1,-2,1,-1,1
903,-3,1,0,1,3,1,1,1,-3,1,1,1,-12,1,-8,1,-2,1,-3,1,-2,1,-1,1
904,-3,1,0,1,3,1,1,1,-3,1,1,1,-12,1,-8,1,-2,1,-3,1,-2,1,-2,1
905,-4,1,0,1,4,1,2,1,-4,1,2,1,-12,1,-8,1,-2,1,-3,1,-2,1,-1,1
906,-4,1,-1,1,3,1,2,1,-4,1,1,1,-11,1,-9,1,-2,1,-3,1,-2,1,-1,1
907,-3,1,-1,1,2,1,2,1,-3,1,0,1,-12,1,-9,1,-2,1,-4,1,-1,1,-1,1
908,-4,1,-2,1,2,1,3,1,-3,1,0,1,-12,1,-10,1,-2,1,-4,1,-2,1,-2,1
909,-4,1,-2,1,2,1,3,1,-3,1,0,1,-12,1,-9,1,-2,1,-4,1,-1,1,-2,1
910,-4,1,-3,1,1,1,3,1,-3,1,-1,1,-12,1,-9,1,-2,1,-4,1,-1,1,-2,1
911,-5,1,-3,1,2,1,4,1,-4,1,-1,1,-13,1,-8,1,-1,1,-4,1,-1,1,-1,1
912,-5,1,-2,1,3,1,3,1,-4,1,0,1,-13,1,-8,1,-1,1,-5,1,-2,1,-2,1
913,-4,1,-2,1,2,1,3,1,-3,1,0,1,-12,1,-8,1,-1,1,-5,1,-2,1,-2,1
914,-4,1,-2,1,2,1,3,1,-3,1,0,1,-11,1,-10,1,-1,1,-5,1,-2,1,-3,1
915,-3,1,-3,1,0,1,3,1,-2,1,-2,1,-11,1,-10,1,-1,1,-5,1,-3,1,-3,1
916,-4,1,-3,1,1,1,3,1,-3,1,-1,1,-12,1,-10,1,-1,1,-5,1,-3,1,-3,1
917,-4,1,-2,1,2,1,3,1,-3,1,0,1,-12,1,-11,1,-2,1,-6,1,-3,1,-3,1
918,-5,1,-2,1,3,1,3,1,-4,1,0,1,-13,1,-11,1,-2,1,-6,1,-3,1,-3,1
919,-4,1,-3,1,1,1,3,1,-3,1,-1,1,-13,1,-11,1,-3,1,-5,1,-4,1,-3,1
920,-4,1,-3,1,1,1,3,1,-3,1,-1,1,-14,1,-11,1,-2,1,-6,1,-4,1,-3,1
921,-3,1,-3,1,0,1,3,1,-2,1,-2,1,-14,1,-11,1,-3,1,-6,1,-4,1,-3,1
922,-4,1,-2,1,2,1,3,1,-3,1,0,1,-14,1,-11,1,-3,1,-6,1,-4,1,-4,1
923,-4,1,-2,1,2,1,3,1,-3,1,0,1,-14,1,-11,1,-3,1,-6,1,-5,1,-4,1
924,-4,1,-1,1,3,1,2,1,-4,1,1,1,-14,1,-11,1,-4,1,-6,1,-5,1,-4,1
925,-4,1,-2,1,2,1,3,1,-3,1,0,1,-13,1,-11,1,-3,1,-6,1,-5,1,-4,1
926,-5,1,-2,1,3,1,3,1,-4,1,0,1,-12,1,-11,1,-2,1,-4,1,-3,1,-2,1
927,-6,1,-3,1,3,1,4,1,-5,1,0,1,-12,1,-11,1,-2,1,-4,1,-3,1,-2,1
928,-5,1,-3,1,2,1,4,1,-4,1,-1,1,-12,1,-11,1,-2,1,-5,1,-3,1,-2,1
929,-6,1,-3,1,3,1,4,1,-5,1,0,1,-13,1,-12,1,-2,1,-6,1,-4,1,-3,1
930,-6,1,-3,1,3,1,4,1,-5,1,0,1,-13,1,-12,1,-2,1,-5,1,-4,1,-3,1
931,-6,1,-3,1,3,1,4,1,-5,1,0,1,-13,1,-12,1,-2,1,-6,1,-4,1,-4,1
932,-6,1,-4,1,2,1,5,1,-4,1,-1,1,-13,1,-12,1,-2,1,-6,1,-4,1,-3,1
933,-6,1,-4,1,2,1,5,1,-4,1,-1,1,-13,1,-12,1,-2,1,-5,1,-5,1,-3,1
934,-6,1,-3,1,3,1,4,1,-5,1,0,1,-13,1,-12,1,-2,1,-5,1,-5,1,-3,1
935,-6,1,-2,1,4,1,4,1,-5,1,1,1,-13,1,-13,1,-3,1,-6,1,-6,1,-4,1
936,-6,1,-2,1,4,1,4,1,-5,1,1,1,-13,1,-13,1,-3,1,-7,1,-6,1,-4,1
937,-6,1,-2,1,4,1,4,1,-5,1,1,1,-12,1,-13,1,-3,1,-7,1,-7,1,-3,1
938,-7,1,-2,1,5,1,4,1,-6,1,1,1,-12,1,-13,1,-3,1,-7,1,-5,1,-3,1
939,-7,1,-1,1,6,1,4,1,-7,1,2,1,-12,1,-13,1,-3,1,-7,1,-5,1,-3,1
940,-6,1,-2,1,4,1,4,1,-5,1,1,1,-12,1,-13,1,-3,1,-6,1,-5,1,-4,1
941,-6,1,-3,1,3,1,4,1,-5,1,0,1,-12,1,-13,1,-3,1,-6,1,-5,1,-4,1
942,-6,1,-2,1,4,1,4,1,-5,1,1,1,-11,1,-13,1,-3,1,-6,1,-5,1,-4,1
943,-6,1,-2,1,4,1,4,1,-5,1,1,1,-11,1,-13,1,-4,1,-6,1,-5,1,-4,1
944,-6,1,-2,1,4,1,4,1,-5,1,1,1,-12,1,-14,1,-4,1,-6,1,-5,1,-4,1
945,-6,1,-3,1,3,1,4,1,-5,1,0,1,-13,1,-15,1,-4,1,-7,1,-6,1,-4,1
946,-6,1,-4,1,2,1,5,1,-4,1,-1,1,-13,1,-15,1,-3,1,-7,1,-6,1,-4,1
947,-6,1,-4,1,2,1,5,1,-4,1,-1,1,-13,1,-15,1,-3,1,-7,1,-6,1,-4,1
948,-6,1,-4,1,2,1,5,1,-4,1,-1,1,-13,1,-15,1,-2,1,-7,1,-6,1,-3,1
949,-6,1,-4,1,2,1,5,1,-4,1,-1,1,-13,1,-15,1,-2,1,-6,1,-6,1,-4,1
950,-6,1,-4,1,2,1,5,1,-4,1,-1,1,-13,1,-15,1,-3,1,-6,1,-6,1,-4,1
951,-6,1,-4,1,2,1,5,1,-4,1,-1,1,-13,1,-15,1,-3,1,-6,1,-6,1,-5,1
952,-6,1,-3,1,3,1,4,1,-5,1,0,1,-13,1,-14,1,-4,1,-6,1,-6,1,-6,1
953,-5,1,-3,1,2,1,4,1,-4,1,-1,1,-13,1,-14,1,-4,1,-6,1,-6,1,-6,1
954,-5,1,-3,1,2,1,4,1,-4,1,-1,1,-12,1,-13,1,-4,1,-6,1,-5,1,-5,1
955,-5,1,-3,1,2,1,4,1,-4,1,-1,1,-13,1,-14,1,-4,1,-7,1,-6,1,-5,1
956,-5,1,-3,1,2,1,4,1,-4,1,-1,1,-14,1,-14,1,-3,1,-8,1,-5,1,-4,1
957,-5,1,-3,1,2,1,4,1,-4,1,-1,1,-14,1,-14,1,-3,1,-9,1,-5,1,-5,1
958,-6,1,-3,1,3,1,4,1,-5,1,0,1,-14,1,-15,1,-3,1,-8,1,-5,1,-4,1
959,-6,1,-3,1,3,1,4,1,-5,1,0,1,-14,1,-15,1,-3,1,-7,1,-5,1,-4,1
960,-6,1,-4,1,2,1,5,1,-4,1,-1,1,-13,1,-15,1,-3,1,-7,1,-5,1,-4,1
961,-5,1,-4,1,1,1,4,1,-3,1,-2,1,-13,1,-14,1,-4,1,-7,1,-5,1,-3,1
962,-5,1,-3,1,2,1,4,1,-4,1,-1,1,-13,1,-14,1,-3,1,-6,1,-5,1,-3,1
963,-5,1,-3,1,2,1,4,1,-4,1,-1,1,-12,1,-14,1,-3,1,-6,1,-5,1,-2,1
964,-5,1,-3,1,2,1,4,1,-4,1,-1,1,-11,1,-13,1,-3,1,-5,1,-5,1,-2,1
965,-5,1,-3,1,2,1,4,1,-4,1,-1,1,-11,1,-13,1,-2,1,-6,1,-5,1,-2,1
966,-4,1,-3,1,1,1,3,1,-3,1,-1,1,-12,1,-13,1,-2,1,-6,1,-5,1,-2,1
967,-3,1,-2,1,1,1,2,1,-2,1,-1,1,-12,1,-13,1,-2,1,-6,1,-5,1,-3,1
968,-3,1,-3,1,0,1,3,1,-2,1,-2,1,-12,1,-14,1,-2,1,-7,1,-6,1,-3,1
969,-3,1,-4,1,-1,1,3,1,-1,1,-3,1,-13,1,-15,1,-3,1,-6,1,-6,1,-4,1
970,-3,1,-4,1,-1,1,3,1,-1,1,-3,1,-13,1,-16,1,-4,1,-6,1,-7,1,-4,1
971,-3,1,-4,1,-1,1,3,1,-1,1,-3,1,-13,1,-16,1,-4,1,-6,1,-7,1,-4,1
972,-3,1,-4,1,-1,1,3,1,-1,1,-3,1,-13,1,-17,1,-4,1,-6,1,-7,1,-4,1
973,-3,1,-4,1,-1,1,3,1,-1,1,-3,1,-13,1,-17,1,-5,1,-7,1,-7,1,-4,1
974,-3,1,-5,1,-2,1,4,1,-1,1,-4,1,-13,1,-17,1,-5,1,-7,1,-7,1,-4,1
975,-3,1,-5,1,-2,1,4,1,-1,1,-4,1,-13,1,-17,1,-5,1,-8,1,-6,1,-4,1
976,-4,1,-5,1,-1,1,4,1,-2,1,-3,1,-13,1,-18,1,-5,1,-8,1,-6,1,-4,1
977,-4,1,-4,1,0,1,4,1,-2,1,-2,1,-13,1,-18,1,-5,1,-8,1,-6,1,-4,1
978,-4,1,-4,1,0,1,4,1,-2,1,-2,1,-13,1,-18,1,-5,1,-8,1,-6,1,-5,1
979,-4,1,-5,1,-1,1,4,1,-2,1,-3,1,-12,1,-17,1,-4,1,-7,1,-5,1,-5,1
980,-5,1,-4,1,1,1,4,1,-3,1,-2,1,-12,1,-16,1,-3,1,-7,1,-5,1,-5,1
981,-5,1,-3,1,2,1,4,1,-4,1,-1,1,-12,1,-16,1,-3,1,-7,1,-6,1,-5,1
982,-5,1,-4,1,1,1,4,1,-3,1,-2,1,-12,1,-16,1,-3,1,-7,1,-7,1,-5,1
983,-5,1,-3,1,2,1,4,1,-4,1,-1,1,-12,1,-16,1,-3,1,-7,1,-6,1,-4,1
984,-4,1,-4,1,0,1,4,1,-2,1,-2,1,-12,1,-16,1,-3,1,-7,1,-6,1,-3,1
985,-4,1,-4,1,0,1,4,1,-2,1,-2,1,-13,1,-17,1,-4,1,-7,1,-6,1,-3,1
986,-4,1,-5,1,-1,1,4,1,-2,1,-3,1,-13,1,-17,1,-4,1,-7,1,-7,1,-4,1
987,-4,1,-5,1,-1,1,4,1,-2,1,-3,1,-14,1,-18,1,-6,1,-7,1,-7,1,-4,1
988,-5,1,-6,1,-1,1,5,1,-2,1,-4,1,-13,1,-18,1,-6,1,-6,1,-7,1,-4,1
989,-5,1,-6,1,-1,1,5,1,-2,1,-4,1,-13,1,-18,1,-5,1,-6,1,-7,1,-4,1
990,-6,1,-6,1,0,1,6,1,-3,1,-3,1,-12,1,-18,1,-5,1,-6,1,-6,1,-4,1
991,-6,1,-5,1,1,1,5,1,-4,1,-2,1,-12,1,-18,1,-5,1,-6,1,-6,1,-3,1
992,-5,1,-5,1,0,1,5,1,-3,1,-3,1,-11,1,-18,1,-5,1,-7,1,-6,1,-3,1
993,-5,1,-5,1,0,1,5,1,-3,1,-3,1,-11,1,-18,1,-4,1,-7,1,-5,1,-3,1
994,-5,1,-5,1,0,1,5,1,-3,1,-3,1,-11,1,-18,1,-4,1,-7,1,-5,1,-2,1
995,-4,1,-5,1,-1,1,4,1,-2,1,-3,1,-11,1,-19,1,-5,1,-7,1,-6,1,-3,1
996,-4,1,-5,1,-1,1,4,1,-2,1,-3,1,-11,1,-20,1,-6,1,-8,1,-5,1,-3,1
997,-4,1,-5,1,-1,1,4,1,-2,1,-3,1,-11,1,-19,1,-5,1,-7,1,-5,1,-4,1
998,-6,1,-6,1,0,1,6,1,-3,1,-3,1,-11,1,-19,1,-5,1,-7,1,-5,1,-3,1
999,-7,1,-6,1,1,1,6,1,-4,1,-3,1,-10,1,-19,1,-4,1,-6,1,-5,1,-3,1
1000,-8,1,-6,1,2,1,7,1,-5,1,-2,1,-10,1,-18,1,-4,1,-6,1,-5,1,-3,1
1001,-8,1,-6,1,2,1,7,1,-5,1,-2,1,-10,1,-18,1,-3,1,-7,1,-5,1,-3,1
1002,-7,1,-6,1,1,1,6,1,-4,1,-3,1,-10,1,-19,1,-3,1,-7,1,-5,1,-3,1
1003,-7,1,-6,1,1,1,6,1,-4,1,-3,1,-10,1,-19,1,-3,1,-7,1,-5,1,-3,1
1004,-7,1,-6,1,1,1,6,1,-4,1,-3,1,-11,1,-19,1,-4,1,-7,1,-5,1,-3,1
1005,-8,1,-7,1,1,1,7,1,-5,1,-3,1,-11,1,-18,1,-5,1,-5,1,-5,1,-3,1
1006,-7,1,-7,1,0,1,7,1,-4,1,-4,1,-10,1,-18,1,-5,1,-5,1,-5,1,-4,1
1007,-7,1,-7,1,0,1,7,1,-4,1,-4,1,-10,1,-18,1,-5,1,-5,1,-5,1,-3,1
1008,-7,1,-5,1,2,1,6,1,-5,1,-2,1,-10,1,-18,1,-5,1,-5,1,-4,1,-3,1
1009,-5,1,-4,1,1,1,4,1,-3,1,-2,1,-10,1,-19,1,-5,1,-6,1,-4,1,-3,1
1010,-4,1,-3,1,1,1,3,1,-3,1,-1,1,-10,1,-18,1,-4,1,-5,1,-4,1,-2,1
1011,-4,1,-2,1,2,1,3,1,-3,1,0,1,-9,1,-17,1,-3,1,-4,1,-3,1,-2,1
1012,-3,1,-1,1,2,1,2,1,-3,1,0,1,-9,1,-15,1,-2,1,-3,1,-2,1,-1,1
1013,-3,1,0,1,3,1,1,1,-3,1,1,1,-10,1,-15,1,-1,1,-2,1,-1,1,-1,1
1014,-3,1,1,1,4,1,1,1,-3,1,2,1,-9,1,-15,1,0,1,-1,1,-1,1,0,1
1015,-2,1,3,1,5,1,0,1,-3,1,4,1,-8,1,-14,1,1,1,0,1,0,1,0,1
1016,-2,1,4,1,6,1,-1,1,-4,1,5,1,-7,1,-13,1,2,1,0,1,1,1,1,1
1017,-2,1,5,1,7,1,-1,1,-4,1,6,1,-7,1,-13,1,2,1,0,1,1,1,2,1
1018,-2,1,6,1,8,1,-2,1,-5,1,7,1,-6,1,-13,1,2,1,-1,1,1,1,3,1
1019,-3,1,6,1,9,1,-1,1,-6,1,7,1,-5,1,-13,1,2,1,0,1,2,1,3,1
1020,-3,1,5,1,8,1,-1,1,-5,1,6,1,-5,1,-12,1,3,1,1,1,2,1,4,1
1021,-2,1,5,1,7,1,-1,1,-4,1,6,1,-5,1,-11,1,4,1,1,1,3,1,4,1
1022,-1,1,5,1,6,1,-2,1,-3,1,5,1,-5,1,-11,1,4,1,3,1,3,1,5,1
1023,-1,1,5,1,6,1,-2,1,-3,1,5,1,-4,1,-11,1,4,1,3,1,3,1,5,1
1024,0,1,5,1,5,1,-2,1,-2,1,5,1,-4,1,-11,1,5,1,3,1,4,1,5,1
1025,0,1,7,1,7,1,-3,1,-3,1,7,1,-3,1,-11,1,5,1,4,1,4,1,5,1
1026,0,1,7,1,7,1,-3,1,-3,1,7,1,-2,1,-10,1,5,1,4,1,4,1,5,1
1027,0,1,7,1,7,1,-3,1,-3,1,7,1,-1,1,-9,1,5,1,4,1,5,1,6,1
1028,-2,1,7,1,9,1,-2,1,-5,1,8,1,-1,1,-8,1,6,1,5,1,5,1,6,1
1029,-2,1,8,1,10,1,-3,1,-6,1,9,1,-1,1,-7,1,7,1,5,1,6,1,7,1
1030,-2,1,8,1,10,1,-3,1,-6,1,9,1,-1,1,-6,1,8,1,6,1,7,1,7,1
1031,-2,1,11,1,13,1,-4,1,-7,1,12,1,-1,1,-6,1,8,1,7,1,8,1,8,1
1032,-1,1,12,1,13,1,-5,1,-7,1,12,1,-2,1,-6,1,8,1,6,1,8,1,8,1
1033,0,1,13,1,13,1,-6,1,-6,1,13,1,-3,1,-7,1,8,1,6,1,8,1,8,1
1034,1,1,14,1,13,1,-7,1,-6,1,14,1,-4,1,-8,1,7,1,6,1,8,1,8,1
1035,1,1,14,1,13,1,-7,1,-6,1,14,1,-5,1,-9,1,6,1,5,1,8,1,8,1
1036,1,1,13,1,12,1,-7,1,-5,1,13,1,-7,1,-10,1,6,1,5,1,9,1,8,1
1037,1,1,12,1,11,1,-6,1,-5,1,12,1,-10,1,-12,1,5,1,5,1,8,1,8,1
1038,3,1,12,1,9,1,-7,1,-3,1,11,1,-12,1,-13,1,4,1,4,1,8,1,8,1
1039,4,1,11,1,7,1,-7,1,-1,1,9,1,-13,1,-13,1,3,1,4,1,8,1,8,1
1040,5,1,12,1,7,1,-8,1,-1,1,10,1,-14,1,-13,1,3,1,4,1,8,1,8,1
1041,7,1,12,1,5,1,-9,1,1,1,9,1,-15,1,-14,1,3,1,4,1,9,1,10,1
1042,8,1,11,1,3,1,-9,1,3,1,7,1,-16,1,-15,1,2,1,3,1,8,1,10,1
1043,10,1,9,1,-1,1,-9,1,6,1,4,1,-17,1,-16,1,2,1,3,1,7,1,9,1
1044,11,1,8,1,-3,1,-9,1,7,1,3,1,-18,1,-16,1,1,1,2,1,7,1,8,1
1045,11,1,7,1,-4,1,-9,1,8,1,2,1,-18,1,-17,1,1,1,2,1,6,1,8,1
1046,10,1,6,1,-4,1,-8,1,7,1,1,1,-18,1,-17,1,1,1,2,1,6,1,8,1
1047,9,1,5,1,-4,1,-7,1,7,1,1,1,-18,1,-17,1,0,1,1,1,6,1,7,1
1048,8,1,4,1,-4,1,-6,1,6,1,0,1,-19,1,-18,1,-1,1,0,1,5,1,6,1
1049,6,1,3,1,-3,1,-4,1,5,1,0,1,-20,1,-20,1,-2,1,-1,1,5,1,6,1
1050,4,1,2,1,-2,1,-3,1,3,1,0,1,-20,1,-21,1,-3,1,-1,1,5,1,6,1
1051,1,1,1,1,0,1,-1,1,1,1,1,1,-20,1,-22,1,-4,1,-2,1,4,1,5,1
1052,0,1,-1,1,-1,1,0,1,0,1,-1,1,-19,1,-22,1,-4,1,-3,1,4,1,5,1
1053,-1,1,-3,1,-2,1,2,1,0,1,-3,1,-18,1,-21,1,-4,1,-3,1,3,1,4,1
1054,-3,1,-5,1,-2,1,4,1,-1,1,-4,1,-16,1,-20,1,-3,1,-2,1,3,1,4,1
1055,-5,1,-6,1,-1,1,5,1,-2,1,-4,1,-15,1,-18,1,-3,1,-1,1,3,1,4,1
1056,-7,1,-6,1,1,1,6,1,-4,1,-3,1,-13,1,-17,1,-2,1,0,1,4,1,4,1
1057,-10,1,-6,1,4,1,8,1,-7,1,-1,1,-13,1,-17,1,-1,1,0,1,3,1,4,1
1058,-12,1,-7,1,5,1,9,1,-9,1,-1,1,-13,1,-18,1,-1,1,-1,1,2,1,3,1
1059,-15,1,-7,1,8,1,11,1,-12,1,0,1,-13,1,-19,1,-3,1,-2,1,1,1,2,1
1060,-16,1,-9,1,7,1,12,1,-12,1,-1,1,-12,1,-20,1,-4,1,-2,1,0,1,1,1
1061,-18,1,-10,1,8,1,14,1,-13,1,-1,1,-12,1,-20,1,-4,1,-3,1,0,1,0,1
1062,-20,1,-11,1,9,1,15,1,-15,1,-1,1,-12,1,-21,1,-5,1,-4,1,-1,1,0,1
1063,-20,1,-11,1,9,1,15,1,-15,1,-1,1,-11,1,-21,1,-6,1,-5,1,-1,1,-1,1
1064,-21,1,-12,1,9,1,16,1,-15,1,-2,1,-11,1,-22,1,-6,1,-4,1,-2,1,-2,1
1065,-21,1,-12,1,9,1,16,1,-15,1,-2,1,-12,1,-22,1,-7,1,-5,1,-3,1,-2,1
1066,-21,1,-12,1,9,1,16,1,-15,1,-2,1,-11,1,-23,1,-7,1,-5,1,-3,1,-2,1
1067,-21,1,-13,1,8,1,17,1,-15,1,-3,1,-11,1,-23,1,-6,1,-5,1,-3,1,-2,1
1068,-21,1,-13,1,8,1,17,1,-15,1,-3,1,-10,1,-23,1,-6,1,-5,1,-2,1,-2,1
1069,-22,1,-13,1,9,1,17,1,-16,1,-2,1,-9,1,-23,1,-5,1,-5,1,-2,1,-1,1
1070,-23,1,-12,1,11,1,17,1,-17,1,-1,1,-9,1,-23,1,-5,1,-5,1,-2,1,-1,1
1071,-24,1,-13,1,11,1,18,1,-18,1,-1,1,-9,1,-22,1,-5,1,-5,1,-2,1,-1,1
1072,-23,1,-15,1,8,1,19,1,-16,1,-4,1,-9,1,-22,1,-5,1,-4,1,-2,1,-1,1
1073,-24,1,-16,1,8,1,20,1,-16,1,-4,1,-8,1,-21,1,-4,1,-4,1,-2,1,0,1
1074,-27,1,-17,1,10,1,22,1,-19,1,-4,1,-8,1,-21,1,-4,1,-3,1,-2,1,0,1
1075,-27,1,-17,1,10,1,22,1,-19,1,-4,1,-9,1,-21,1,-4,1,-4,1,-2,1,0,1
1076,-27,1,-16,1,11,1,21,1,-19,1,-3,1,-9,1,-21,1,-5,1,-4,1,-2,1,-1,1
1077,-27,1,-16,1,11,1,21,1,-19,1,-3,1,-9,1,-21,1,-5,1,-3,1,-2,1,-1,1
1078,-28,1,-16,1,12,1,22,1,-20,1,-2,1,-9,1,-20,1,-5,1,-3,1,-2,1,-1,1
1079,-28,1,-15,1,13,1,21,1,-21,1,-1,1,-8,1,-20,1,-5,1,-3,1,-1,1,-1,1
1080,-30,1,-15,1,15,1,22,1,-23,1,0,1,-7,1,-20,1,-5,1,-3,1,-2,1,-1,1
1081,-30,1,-15,1,15,1,22,1,-23,1,0,1,-7,1,-20,1,-4,1,-3,1,-2,1,-1,1
1082,-30,1,-15,1,15,1,22,1,-23,1,0,1,-7,1,-20,1,-4,1,-3,1,-2,1,-1,1
1083,-31,1,-15,1,16,1,23,1,-24,1,0,1,-7,1,-19,1,-3,1,-2,1,-1,1,0,1
1084,-31,1,-16,1,15,1,23,1,-23,1,-1,1,-7,1,-19,1,-3,1,-2,1,-1,1,0,1
1085,-30,1,-16,1,14,1,23,1,-22,1,-1,1,-7,1,-20,1,-3,1,-2,1,-2,1,-2,1
1086,-30,1,-15,1,15,1,22,1,-23,1,0,1,-6,1,-20,1,-2,1,-2,1,-2,1,-2,1
1087,-30,1,-15,1,15,1,22,1,-23,1,0,1,-5,1,-21,1,-2,1,-1,1,-2,1,-3,1
1088,-31,1,-15,1,16,1,23,1,-24,1,0,1,-5,1,-20,1,-2,1,0,1,-1,1,-3,1
1089,-30,1,-15,1,15,1,22,1,-23,1,0,1,-5,1,-20,1,-1,1,0,1,-1,1,-3,1
1090,-31,1,-15,1,16,1,23,1,-24,1,0,1,-4,1,-19,1,-1,1,0,1,-1,1,-2,1
1091,-31,1,-13,1,18,1,22,1,-25,1,2,1,-3,1,-16,1,1,1,3,1,0,1,-1,1
1092,-32,1,-11,1,21,1,21,1,-27,1,5,1,-1,1,-10,1,7,1,7,1,2,1,0,1
1093,-32,1,-9,1,23,1,20,1,-28,1,7,1,2,1,0,1,15,1,14,1,6,1,1,1
1094,-30,1,-7,1,23,1,18,1,-27,1,8,1,4,1,9,1,25,1,22,1,11,1,4,1
1095,-28,1,-4,1,24,1,16,1,-26,1,10,1,6,1,20,1,37,1,32,1,19,1,8,1
1096,-24,1,0,1,24,1,12,1,-24,1,12,1,9,1,31,1,48,1,44,1,27,1,12,1
1097,-18,1,2,1,20,1,8,1,-19,1,11,1,12,1,46,1,64,1,58,1,38,1,17,1
1098,-10,1,4,1,14,1,3,1,-12,1,9,1,14,1,66,1,83,1,75,1,51,1,23,1
1099,4,1,6,1,2,1,-5,1,1,1,4,1,14,1,86,1,105,1,97,1,66,1,30,1
1100,23,1,10,1,-13,1,-16,1,18,1,-1,1,13,1,107,1,126,1,121,1,84,1,39,1
1101,45,1,14,1,-31,1,-29,1,38,1,-8,1,11,1,122,1,146,1,143,1,104,1,51,1
1102,68,1,20,1,-48,1,-44,1,58,1,-14,1,4,1,127,1,157,1,159,1,124,1,64,1
1103,91,1,26,1,-65,1,-58,1,78,1,-19,1,-5,1,120,1,160,1,169,1,142,1,77,1
1104,114,1,33,1,-81,1,-73,1,98,1,-24,1,-17,1,106,1,154,1,170,1,156,1,89,1
1105,134,1,41,1,-93,1,-87,1,114,1,-26,1,-33,1,82,1,140,1,161,1,163,1,99,1
1106,145,1,50,1,-95,1,-97,1,120,1,-22,1,-50,1,46,1,111,1,140,1,161,1,106,1
1107,148,1,58,1,-90,1,-103,1,119,1,-16,1,-68,1,-2,1,67,1,103,1,147,1,107,1
1108,142,1,61,1,-81,1,-101,1,112,1,-10,1,-83,1,-55,1,13,1,54,1,118,1,99,1
1109,126,1,61,1,-65,1,-93,1,96,1,-2,1,-93,1,-110,1,-46,1,-1,1,82,1,85,1
1110,105,1,62,1,-43,1,-83,1,74,1,10,1,-98,1,-164,1,-104,1,-55,1,48,1,73,1
1111,79,1,58,1,-21,1,-68,1,50,1,19,1,-102,1,-214,1,-161,1,-112,1,12,1,59,1
1112,53,1,48,1,-5,1,-50,1,29,1,22,1,-106,1,-262,1,-217,1,-167,1,-26,1,41,1
1113,31,1,32,1,1,1,-31,1,15,1,17,1,-111,1,-299,1,-259,1,-212,1,-59,1,22,1
1114,13,1,13,1,0,1,-13,1,7,1,7,1,-111,1,-321,1,-287,1,-246,1,-88,1,2,1
1115,-7,1,-5,1,2,1,6,1,-5,1,-2,1,-108,1,-330,1,-300,1,-267,1,-111,1,-18,1
1116,-27,1,-20,1,7,1,23,1,-17,1,-7,1,-103,1,-330,1,-303,1,-277,1,-128,1,-34,1
1117,-41,1,-33,1,8,1,37,1,-25,1,-13,1,-99,1,-327,1,-301,1,-280,1,-138,1,-47,1
1118,-50,1,-43,1,7,1,46,1,-29,1,-18,1,-96,1,-321,1,-297,1,-278,1,-144,1,-56,1
1119,-56,1,-50,1,6,1,53,1,-31,1,-22,1,-94,1,-314,1,-291,1,-274,1,-147,1,-62,1
1120,-58,1,-56,1,2,1,57,1,-30,1,-27,1,-93,1,-306,1,-284,1,-267,1,-148,1,-66,1
1121,-60,1,-62,1,-2,1,61,1,-29,1,-32,1,-92,1,-294,1,-272,1,-257,1,-146,1,-68,1
1122,-61,1,-65,1,-4,1,63,1,-29,1,-35,1,-89,1,-275,1,-255,1,-241,1,-141,1,-68,1
1123,-61,1,-67,1,-6,1,64,1,-28,1,-37,1,-84,1,-251,1,-231,1,-222,1,-132,1,-66,1
1124,-62,1,-66,1,-4,1,64,1,-29,1,-35,1,-78,1,-225,1,-205,1,-199,1,-122,1,-63,1
1125,-62,1,-63,1,-1,1,62,1,-31,1,-32,1,-71,1,-199,1,-181,1,-177,1,-110,1,-60,1
1126,-61,1,-57,1,4,1,59,1,-33,1,-27,1,-66,1,-175,1,-157,1,-157,1,-97,1,-57,1
1127,-59,1,-51,1,8,1,55,1,-34,1,-22,1,-61,1,-153,1,-136,1,-137,1,-85,1,-52,1
1128,-57,1,-44,1,13,1,50,1,-35,1,-16,1,-56,1,-133,1,-117,1,-120,1,-74,1,-46,1
1129,-54,1,-37,1,17,1,45,1,-36,1,-10,1,-49,1,-114,1,-100,1,-101,1,-62,1,-37,1
1130,-51,1,-31,1,20,1,41,1,-36,1,-6,1,-41,1,-96,1,-84,1,-84,1,-52,1,-29,1
1131,-47,1,-26,1,21,1,36,1,-34,1,-3,1,-33,1,-79,1,-68,1,-68,1,-44,1,-22,1
1132,-44,1,-23,1,21,1,33,1,-33,1,-1,1,-24,1,-62,1,-52,1,-53,1,-36,1,-16,1
1133,-39,1,-22,1,17,1,30,1,-28,1,-3,1,-18,1,-48,1,-39,1,-41,1,-30,1,-13,1
1134,-36,1,-21,1,15,1,28,1,-26,1,-3,1,-14,1,-35,1,-26,1,-31,1,-25,1,-12,1
1135,-35,1,-20,1,15,1,27,1,-25,1,-3,1,-11,1,-27,1,-17,1,-24,1,-20,1,-12,1
1136,-34,1,-18,1,16,1,26,1,-25,1,-1,1,-9,1,-20,1,-9,1,-18,1,-14,1,-12,1
1137,-34,1,-15,1,19,1,24,1,-27,1,2,1,-7,1,-17,1,-5,1,-14,1,-10,1,-10,1
1138,-34,1,-13,1,21,1,23,1,-28,1,4,1,-6,1,-15,1,-2,1,-11,1,-8,1,-8,1
1139,-34,1,-11,1,23,1,22,1,-29,1,6,1,-5,1,-13,1,-1,1,-8,1,-6,1,-6,1
1140,-33,1,-9,1,24,1,21,1,-29,1,7,1,-4,1,-11,1,0,1,-4,1,-4,1,-5,1
1141,-33,1,-8,1,25,1,20,1,-29,1,8,1,-3,1,-9,1,1,1,-2,1,-4,1,-4,1
1142,-32,1,-8,1,24,1,20,1,-28,1,8,1,-2,1,-7,1,3,1,0,1,-4,1,-4,1
1143,-30,1,-8,1,22,1,19,1,-26,1,7,1,0,1,-4,1,5,1,3,1,-3,1,-4,1
1144,-30,1,-9,1,21,1,19,1,-26,1,6,1,0,1,-2,1,8,1,4,1,-2,1,-4,1
1145,-30,1,-9,1,21,1,19,1,-26,1,6,1,1,1,0,1,10,1,6,1,-2,1,-5,1
1146,-30,1,-8,1,22,1,19,1,-26,1,7,1,1,1,0,1,11,1,7,1,-1,1,-5,1
1147,-28,1,-7,1,21,1,17,1,-25,1,7,1,1,1,0,1,12,1,8,1,-1,1,-6,1
1148,-28,1,-5,1,23,1,16,1,-26,1,9,1,1,1,1,1,13,1,9,1,-1,1,-5,1
1149,-28,1,-5,1,23,1,16,1,-26,1,9,1,1,1,2,1,14,1,10,1,0,1,-4,1
1150,-26,1,-6,1,20,1,16,1,-23,1,7,1,1,1,3,1,15,1,11,1,2,1,-3,1
1151,-25,1,-6,1,19,1,15,1,-22,1,6,1,2,1,4,1,15,1,11,1,2,1,-3,1
1152,-25,1,-6,1,19,1,15,1,-22,1,6,1,2,1,5,1,15,1,12,1,2,1,-2,1
1153,-25,1,-6,1,19,1,15,1,-22,1,6,1,2,1,5,1,16,1,12,1,2,1,-3,1
1154,-23,1,-6,1,17,1,14,1,-20,1,5,1,2,1,6,1,17,1,13,1,2,1,-2,1
1155,-22,1,-7,1,15,1,14,1,-19,1,4,1,2,1,7,1,17,1,14,1,2,1,-2,1
1156,-20,1,-8,1,12,1,14,1,-16,1,2,1,1,1,7,1,17,1,14,1,2,1,-2,1
1157,-19,1,-7,1,12,1,13,1,-16,1,2,1,0,1,7,1,17,1,14,1,2,1,-2,1
1158,-17,1,-7,1,10,1,12,1,-14,1,1,1,0,1,7,1,17,1,15,1,2,1,-2,1
1159,-16,1,-5,1,11,1,10,1,-14,1,3,1,0,1,6,1,18,1,16,1,3,1,-2,1
1160,-15,1,-4,1,11,1,9,1,-13,1,3,1,0,1,7,1,19,1,17,1,3,1,-2,1
1161,-16,1,-3,1,13,1,9,1,-15,1,5,1,0,1,8,1,21,1,18,1,4,1,-2,1
1162,-15,1,-3,1,12,1,9,1,-14,1,4,1,0,1,8,1,21,1,18,1,5,1,-3,1
1163,-16,1,-2,1,14,1,9,1,-15,1,6,1,1,1,9,1,22,1,18,1,5,1,-2,1
1164,-17,1,-2,1,15,1,9,1,-16,1,6,1,2,1,11,1,23,1,19,1,6,1,-1,1
1165,-16,1,-2,1,14,1,9,1,-15,1,6,1,2,1,12,1,24,1,19,1,6,1,-1,1
1166,-15,1,-2,1,13,1,8,1,-14,1,5,1,2,1,13,1,24,1,20,1,6,1,0,1
1167,-15,1,-1,1,14,1,8,1,-15,1,6,1,2,1,14,1,24,1,22,1,7,1,1,1
1168,-15,1,-1,1,14,1,8,1,-15,1,6,1,2,1,15,1,25,1,22,1,7,1,1,1
1169,-15,1,-2,1,13,1,8,1,-14,1,5,1,2,1,16,1,25,1,23,1,8,1,2,1
1170,-15,1,-3,1,12,1,9,1,-14,1,4,1,2,1,16,1,26,1,23,1,8,1,2,1
1171,-14,1,-3,1,11,1,8,1,-13,1,4,1,2,1,18,1,28,1,24,1,8,1,3,1
1172,-13,1,-2,1,11,1,7,1,-12,1,4,1,2,1,18,1,29,1,25,1,8,1,3,1
1173,-12,1,-1,1,11,1,6,1,-12,1,5,1,2,1,18,1,29,1,25,1,9,1,2,1
1174,-10,1,-1,1,9,1,5,1,-10,1,4,1,2,1,17,1,29,1,25,1,9,1,2,1
1175,-9,1,-1,1,8,1,5,1,-9,1,3,1,2,1,17,1,29,1,26,1,10,1,2,1
1176,-8,1,0,1,8,1,4,1,-8,1,4,1,2,1,18,1,30,1,26,1,11,1,2,1
1177,-8,1,0,1,8,1,4,1,-8,1,4,1,3,1,19,1,30,1,28,1,11,1,2,1
1178,-7,1,1,1,8,1,3,1,-7,1,4,1,4,1,20,1,31,1,28,1,11,1,1,1
1179,-6,1,3,1,9,1,1,1,-7,1,6,1,3,1,21,1,31,1,28,1,10,1,1,1
1180,-7,1,4,1,11,1,1,1,-9,1,7,1,3,1,22,1,32,1,28,1,10,1,1,1
1181,-7,1,4,1,11,1,1,1,-9,1,7,1,3,1,24,1,34,1,29,1,10,1,2,1
1182,-7,1,4,1,11,1,1,1,-9,1,7,1,3,1,25,1,36,1,31,1,10,1,2,1
1183,-5,1,4,1,9,1,0,1,-7,1,6,1,3,1,27,1,37,1,32,1,11,1,1,1
1184,-5,1,5,1,10,1,0,1,-7,1,7,1,3,1,28,1,38,1,34,1,11,1,1,1
1185,-5,1,5,1,10,1,0,1,-7,1,7,1,3,1,28,1,39,1,34,1,11,1,1,1
1186,-5,1,5,1,10,1,0,1,-7,1,7,1,3,1,30,1,40,1,35,1,12,1,1,1
1187,-3,1,5,1,8,1,-1,1,-5,1,6,1,3,1,31,1,40,1,35,1,13,1,2,1
1188,-2,1,6,1,8,1,-2,1,-5,1,7,1,3,1,30,1,40,1,35,1,13,1,2,1
1189,0,1,7,1,7,1,-3,1,-3,1,7,1,3,1,31,1,41,1,35,1,13,1,2,1
1190,1,1,7,1,6,1,-4,1,-2,1,7,1,3,1,32,1,43,1,36,1,14,1,3,1
1191,1,1,7,1,6,1,-4,1,-2,1,7,1,3,1,33,1,42,1,37,1,14,1,3,1
1192,1,1,7,1,6,1,-4,1,-2,1,7,1,3,1,34,1,44,1,38,1,14,1,3,1
1193,2,1,7,1,5,1,-4,1,-1,1,6,1,3,1,36,1,47,1,40,1,16,1,4,1
1194,3,1,8,1,5,1,-5,1,-1,1,7,1,3,1,37,1,47,1,40,1,17,1,5,1
1195,5,1,8,1,3,1,-6,1,1,1,6,1,3,1,38,1,48,1,41,1,18,1,6,1
1196,5,1,8,1,3,1,-6,1,1,1,6,1,3,1,39,1,49,1,43,1,19,1,7,1
1197,7,1,8,1,1,1,-7,1,3,1,5,1,3,1,40,1,49,1,44,1,20,1,8,1
1198,7,1,8,1,1,1,-7,1,3,1,5,1,3,1,40,1,51,1,45,1,20,1,8,1
1199,8,1,9,1,1,1,-8,1,4,1,5,1,4,1,41,1,52,1,47,1,21,1,9,1
1200,8,1,9,1,1,1,-8,1,4,1,5,1,5,1,42,1,54,1,48,1,21,1,9,1
1201,9,1,10,1,1,1,-9,1,4,1,6,1,5,1,44,1,56,1,49,1,22,1,9,1
1202,10,1,11,1,1,1,-10,1,5,1,6,1,5,1,44,1,57,1,50,1,22,1,10,1
1203,11,1,11,1,0,1,-11,1,6,1,6,1,5,1,46,1,59,1,51,1,23,1,10,1
1204,12,1,12,1,0,1,-12,1,6,1,6,1,5,1,47,1,61,1,53,1,24,1,10,1
1205,13,1,14,1,1,1,-13,1,6,1,8,1,6,1,49,1,63,1,55,1,25,1,10,1
1206,13,1,15,1,2,1,-14,1,6,1,9,1,6,1,51,1,64,1,57,1,26,1,11,1
1207,14,1,16,1,2,1,-15,1,6,1,9,1,5,1,52,1,65,1,57,1,26,1,11,1
1208,16,1,17,1,1,1,-16,1,8,1,9,1,6,1,54,1,66,1,58,1,27,1,11,1
1209,18,1,18,1,0,1,-18,1,9,1,9,1,5,1,56,1,67,1,60,1,28,1,12,1
1210,18,1,19,1,1,1,-18,1,9,1,10,1,6,1,59,1,70,1,62,1,29,1,13,1
1211,18,1,20,1,2,1,-19,1,8,1,11,1,7,1,61,1,72,1,64,1,31,1,14,1
1212,18,1,21,1,3,1,-19,1,8,1,12,1,7,1,64,1,73,1,65,1,32,1,16,1
1213,18,1,21,1,3,1,-19,1,8,1,12,1,6,1,65,1,75,1,67,1,34,1,18,1
1214,21,1,22,1,1,1,-21,1,10,1,12,1,5,1,66,1,77,1,69,1,34,1,18,1
1215,23,1,23,1,0,1,-23,1,12,1,12,1,4,1,67,1,78,1,70,1,34,1,18,1
1216,24,1,25,1,1,1,-24,1,12,1,13,1,4,1,68,1,80,1,72,1,35,1,18,1
1217,26,1,26,1,0,1,-26,1,13,1,13,1,5,1,69,1,82,1,73,1,37,1,19,1
1218,26,1,25,1,-1,1,-25,1,14,1,12,1,5,1,70,1,83,1,74,1,37,1,19,1
1219,28,1,26,1,-2,1,-27,1,15,1,12,1,5,1,72,1,85,1,76,1,38,1,20,1
1220,29,1,27,1,-2,1,-28,1,16,1,13,1,5,1,73,1,86,1,77,1,40,1,20,1
1221,28,1,28,1,0,1,-28,1,14,1,14,1,5,1,75,1,87,1,79,1,41,1,21,1
1222,28,1,28,1,0,1,-28,1,14,1,14,1,5,1,77,1,89,1,80,1,43,1,23,1
1223,28,1,30,1,2,1,-29,1,13,1,16,1,5,1,78,1,90,1,82,1,45,1,24,1
1224,29,1,31,1,2,1,-30,1,14,1,17,1,5,1,79,1,91,1,83,1,46,1,25,1
1225,31,1,32,1,1,1,-31,1,15,1,17,1,5,1,83,1,92,1,84,1,47,1,26,1
1226,33,1,33,1,0,1,-33,1,17,1,17,1,6,1,86,1,91,1,83,1,47,1,26,1
1227,35,1,34,1,-1,1,-34,1,18,1,17,1,6,1,89,1,91,1,83,1,47,1,27,1
1228,36,1,35,1,-1,1,-35,1,19,1,17,1,5,1,91,1,90,1,83,1,48,1,28,1
1229,37,1,36,1,-1,1,-36,1,19,1,18,1,5,1,92,1,89,1,83,1,49,1,29,1
1230,37,1,37,1,0,1,-37,1,19,1,19,1,4,1,94,1,88,1,84,1,49,1,30,1
1231,37,1,38,1,1,1,-37,1,18,1,20,1,4,1,96,1,87,1,84,1,49,1,30,1
1232,37,1,40,1,3,1,-38,1,17,1,22,1,3,1,97,1,86,1,84,1,49,1,31,1
1233,37,1,41,1,4,1,-39,1,17,1,23,1,2,1,98,1,86,1,84,1,50,1,32,1
1234,37,1,41,1,4,1,-39,1,17,1,23,1,2,1,99,1,85,1,83,1,50,1,33,1
1235,36,1,42,1,6,1,-39,1,15,1,24,1,3,1,99,1,84,1,82,1,51,1,33,1
1236,36,1,43,1,7,1,-39,1,15,1,25,1,3,1,97,1,84,1,82,1,51,1,33,1
1237,36,1,45,1,9,1,-40,1,14,1,27,1,3,1,95,1,83,1,81,1,51,1,32,1
1238,36,1,45,1,9,1,-40,1,14,1,27,1,3,1,93,1,82,1,80,1,51,1,32,1
1239,36,1,44,1,8,1,-40,1,14,1,26,1,4,1,92,1,80,1,79,1,51,1,32,1
1240,35,1,43,1,8,1,-39,1,14,1,26,1,4,1,89,1,78,1,77,1,50,1,32,1
1241,35,1,43,1,8,1,-39,1,14,1,26,1,3,1,87,1,75,1,75,1,49,1,32,1
1242,34,1,42,1,8,1,-38,1,13,1,25,1,2,1,85,1,73,1,73,1,49,1,32,1
1243,33,1,41,1,8,1,-37,1,13,1,25,1,1,1,83,1,70,1,71,1,48,1,32,1
1244,32,1,41,1,9,1,-36,1,12,1,25,1,0,1,79,1,67,1,69,1,47,1,30,1
1245,31,1,41,1,10,1,-36,1,11,1,26,1,-1,1,76,1,64,1,66,1,46,1,28,1
1246,29,1,39,1,10,1,-34,1,10,1,25,1,-2,1,71,1,62,1,64,1,45,1,27,1
1247,28,1,39,1,11,1,-33,1,9,1,25,1,-3,1,67,1,59,1,61,1,43,1,26,1
1248,27,1,37,1,10,1,-32,1,9,1,24,1,-3,1,63,1,55,1,58,1,41,1,25,1
1249,26,1,35,1,9,1,-30,1,9,1,22,1,-3,1,59,1,51,1,55,1,39,1,23,1
1250,24,1,33,1,9,1,-28,1,8,1,21,1,-2,1,56,1,48,1,52,1,37,1,22,1
1251,23,1,32,1,9,1,-27,1,7,1,21,1,-2,1,52,1,44,1,48,1,34,1,20,1
1252,20,1,30,1,10,1,-25,1,5,1,20,1,-2,1,49,1,41,1,45,1,32,1,17,1
1253,18,1,29,1,11,1,-23,1,4,1,20,1,-3,1,47,1,38,1,42,1,29,1,15,1
1254,16,1,28,1,12,1,-22,1,2,1,20,1,-4,1,43,1,34,1,39,1,26,1,14,1
1255,15,1,26,1,11,1,-20,1,2,1,19,1,-4,1,40,1,30,1,35,1,23,1,12,1
1256,14,1,24,1,10,1,-19,1,2,1,17,1,-4,1,36,1,27,1,31,1,21,1,11,1
1257,13,1,22,1,9,1,-17,1,2,1,16,1,-4,1,33,1,24,1,28,1,20,1,10,1
1258,10,1,20,1,10,1,-15,1,0,1,15,1,-4,1,30,1,22,1,26,1,18,1,9,1
1259,10,1,18,1,8,1,-14,1,1,1,13,1,-4,1,27,1,20,1,23,1,16,1,7,1
1260,8,1,16,1,8,1,-12,1,0,1,12,1,-5,1,23,1,18,1,20,1,15,1,5,1
1261,6,1,15,1,9,1,-10,1,-1,1,12,1,-5,1,21,1,16,1,18,1,13,1,3,1
1262,5,1,13,1,8,1,-9,1,-1,1,11,1,-5,1,20,1,13,1,16,1,12,1,2,1
1263,4,1,12,1,8,1,-8,1,-2,1,10,1,-5,1,17,1,11,1,14,1,10,1,1,1
1264,2,1,11,1,9,1,-6,1,-3,1,10,1,-5,1,15,1,8,1,12,1,8,1,0,1
1265,2,1,10,1,8,1,-6,1,-3,1,9,1,-6,1,14,1,7,1,10,1,7,1,-1,1
1266,1,1,9,1,8,1,-5,1,-3,1,9,1,-6,1,12,1,5,1,8,1,6,1,-3,1
1267,1,1,9,1,8,1,-5,1,-3,1,9,1,-7,1,9,1,3,1,7,1,4,1,-5,1
1268,0,1,9,1,9,1,-4,1,-4,1,9,1,-7,1,7,1,2,1,6,1,4,1,-6,1
1269,-1,1,8,1,9,1,-3,1,-5,1,8,1,-7,1,5,1,1,1,4,1,2,1,-7,1
1270,-3,1,8,1,11,1,-2,1,-7,1,9,1,-7,1,4,1,0,1,2,1,1,1,-7,1
1271,-4,1,7,1,11,1,-1,1,-7,1,9,1,-6,1,4,1,-1,1,1,1,0,1,-8,1
1272,-3,1,6,1,9,1,-1,1,-6,1,7,1,-6,1,2,1,-4,1,0,1,-1,1,-9,1
1273,-3,1,6,1,9,1,-1,1,-6,1,7,1,-5,1,1,1,-5,1,-1,1,-2,1,-9,1
1274,-3,1,6,1,9,1,-1,1,-6,1,7,1,-5,1,1,1,-5,1,-1,1,-2,1,-10,1
1275,-4,1,6,1,10,1,-1,1,-7,1,8,1,-6,1,1,1,-5,1,-2,1,-2,1,-10,1
1276,-4,1,6,1,10,1,-1,1,-7,1,8,1,-6,1,0,1,-5,1,-3,1,-1,1,-10,1
1277,-5,1,5,1,10,1,0,1,-7,1,7,1,-6,1,0,1,-6,1,-3,1,-1,1,-10,1
1278,-6,1,3,1,9,1,1,1,-7,1,6,1,-6,1,-1,1,-6,1,-3,1,-1,1,-10,1
1279,-6,1,3,1,9,1,1,1,-7,1,6,1,-6,1,-2,1,-7,1,-4,1,-3,1,-11,1
1280,-6,1,3,1,9,1,1,1,-7,1,6,1,-6,1,-3,1,-7,1,-5,1,-3,1,-10,1
1281,-6,1,4,1,10,1,1,1,-8,1,7,1,-6,1,-3,1,-8,1,-5,1,-3,1,-10,1
1282,-6,1,4,1,10,1,1,1,-8,1,7,1,-6,1,-3,1,-7,1,-5,1,-4,1,-9,1
1283,-5,1,5,1,10,1,0,1,-7,1,7,1,-6,1,-3,1,-7,1,-5,1,-4,1,-10,1
1284,-4,1,5,1,9,1,0,1,-6,1,7,1,-7,1,-3,1,-8,1,-6,1,-4,1,-10,1
1285,-4,1,5,1,9,1,0,1,-6,1,7,1,-7,1,-3,1,-8,1,-7,1,-5,1,-10,1
1286,-4,1,3,1,7,1,0,1,-5,1,5,1,-6,1,-3,1,-8,1,-6,1,-4,1,-10,1
1287,-4,1,1,1,5,1,1,1,-4,1,3,1,-5,1,-3,1,-8,1,-6,1,-3,1,-11,1
1288,-5,1,1,1,6,1,2,1,-5,1,3,1,-5,1,-3,1,-8,1,-6,1,-3,1,-11,1
1289,-5,1,1,1,6,1,2,1,-5,1,3,1,-5,1,-3,1,-9,1,-7,1,-4,1,-11,1
1290,-6,1,1,1,7,1,2,1,-6,1,4,1,-5,1,-4,1,-9,1,-8,1,-5,1,-11,1
1291,-5,1,1,1,6,1,2,1,-5,1,3,1,-5,1,-5,1,-10,1,-9,1,-5,1,-11,1
1292,-5,1,1,1,6,1,2,1,-5,1,3,1,-5,1,-6,1,-10,1,-9,1,-6,1,-11,1
1293,-5,1,1,1,6,1,2,1,-5,1,3,1,-5,1,-6,1,-10,1,-9,1,-7,1,-11,1
1294,-5,1,1,1,6,1,2,1,-5,1,3,1,-5,1,-6,1,-10,1,-9,1,-7,1,-11,1
1295,-6,1,1,1,7,1,2,1,-6,1,4,1,-6,1,-6,1,-11,1,-9,1,-8,1,-11,1
1296,-7,1,1,1,8,1,3,1,-7,1,4,1,-6,1,-5,1,-10,1,-7,1,-7,1,-11,1
1297,-6,1,2,1,8,1,2,1,-7,1,5,1,-6,1,-5,1,-11,1,-8,1,-6,1,-12,1
1298,-6,1,2,1,8,1,2,1,-7,1,5,1,-6,1,-6,1,-12,1,-10,1,-7,1,-13,1
1299,-6,1,3,1,9,1,1,1,-7,1,6,1,-6,1,-7,1,-12,1,-11,1,-7,1,-14,1
1300,-4,1,3,1,7,1,0,1,-5,1,5,1,-6,1,-7,1,-12,1,-11,1,-8,1,-13,1
1301,-4,1,3,1,7,1,0,1,-5,1,5,1,-6,1,-8,1,-13,1,-12,1,-9,1,-13,1
1302,-4,1,3,1,7,1,0,1,-5,1,5,1,-6,1,-8,1,-12,1,-11,1,-9,1,-13,1
1303,-4,1,3,1,7,1,0,1,-5,1,5,1,-7,1,-8,1,-12,1,-11,1,-9,1,-14,1
1304,-4,1,4,1,8,1,0,1,-6,1,6,1,-8,1,-8,1,-12,1,-11,1,-9,1,-14,1
1305,-4,1,5,1,9,1,0,1,-6,1,7,1,-8,1,-7,1,-12,1,-11,1,-9,1,-14,1
1306,-4,1,5,1,9,1,0,1,-6,1,7,1,-8,1,-7,1,-12,1,-11,1,-9,1,-13,1
1307,-4,1,4,1,8,1,0,1,-6,1,6,1,-7,1,-7,1,-12,1,-11,1,-9,1,-13,1
1308,-5,1,4,1,9,1,0,1,-7,1,6,1,-7,1,-7,1,-11,1,-12,1,-9,1,-13,1
1309,-5,1,4,1,9,1,0,1,-7,1,6,1,-6,1,-7,1,-11,1,-12,1,-8,1,-13,1
1310,-4,1,4,1,8,1,0,1,-6,1,6,1,-6,1,-7,1,-11,1,-12,1,-8,1,-13,1
1311,-4,1,3,1,7,1,0,1,-5,1,5,1,-6,1,-8,1,-11,1,-12,1,-9,1,-13,1
1312,-4,1,3,1,7,1,0,1,-5,1,5,1,-6,1,-7,1,-12,1,-13,1,-10,1,-13,1
1313,-5,1,2,1,7,1,1,1,-6,1,4,1,-6,1,-6,1,-11,1,-12,1,-10,1,-12,1
1314,-6,1,2,1,8,1,2,1,-7,1,5,1,-6,1,-6,1,-11,1,-11,1,-10,1,-13,1
1315,-5,1,3,1,8,1,1,1,-6,1,5,1,-7,1,-6,1,-11,1,-11,1,-10,1,-13,1
1316,-5,1,3,1,8,1,1,1,-6,1,5,1,-6,1,-5,1,-11,1,-10,1,-10,1,-14,1
1317,-5,1,3,1,8,1,1,1,-6,1,5,1,-6,1,-5,1,-12,1,-11,1,-10,1,-14,1
1318,-5,1,4,1,9,1,0,1,-7,1,6,1,-6,1,-5,1,-12,1,-12,1,-10,1,-15,1
1319,-5,1,4,1,9,1,0,1,-7,1,6,1,-5,1,-5,1,-11,1,-13,1,-10,1,-15,1
1320,-5,1,4,1,9,1,0,1,-7,1,6,1,-5,1,-5,1,-11,1,-13,1,-10,1,-15,1
1321,-4,1,3,1,7,1,0,1,-5,1,5,1,-4,1,-4,1,-11,1,-13,1,-11,1,-15,1
1322,-7,1,2,1,9,1,2,1,-8,1,5,1,-3,1,-3,1,-9,1,-11,1,-11,1,-14,1
1323,-6,1,2,1,8,1,2,1,-7,1,5,1,-4,1,-2,1,-9,1,-11,1,-10,1,-14,1
1324,-5,1,2,1,7,1,1,1,-6,1,4,1,-5,1,-2,1,-8,1,-11,1,-10,1,-13,1
1325,-5,1,2,1,7,1,1,1,-6,1,4,1,-5,1,-2,1,-8,1,-12,1,-10,1,-13,1
1326,-4,1,3,1,7,1,0,1,-5,1,5,1,-6,1,-3,1,-9,1,-11,1,-10,1,-14,1
1327,-3,1,4,1,7,1,0,1,-5,1,5,1,-6,1,-3,1,-9,1,-11,1,-10,1,-14,1
1328,-4,1,4,1,8,1,0,1,-6,1,6,1,-6,1,-3,1,-8,1,-11,1,-10,1,-14,1
1329,-4,1,3,1,7,1,0,1,-5,1,5,1,-6,1,-3,1,-8,1,-11,1,-10,1,-14,1
1330,-3,1,4,1,7,1,0,1,-5,1,5,1,-7,1,-3,1,-8,1,-11,1,-10,1,-14,1
1331,-3,1,3,1,6,1,0,1,-4,1,4,1,-6,1,-2,1,-7,1,-11,1,-10,1,-13,1
1332,-3,1,3,1,6,1,0,1,-4,1,4,1,-6,1,-1,1,-7,1,-11,1,-10,1,-13,1
1333,-2,1,3,1,5,1,0,1,-3,1,4,1,-7,1,-2,1,-7,1,-11,1,-10,1,-13,1
1334,-3,1,3,1,6,1,0,1,-4,1,4,1,-7,1,-1,1,-7,1,-11,1,-11,1,-14,1
1335,-3,1,3,1,6,1,0,1,-4,1,4,1,-7,1,-1,1,-7,1,-12,1,-12,1,-15,1
1336,-3,1,3,1,6,1,0,1,-4,1,4,1,-7,1,-1,1,-6,1,-11,1,-12,1,-15,1
1337,-3,1,3,1,6,1,0,1,-4,1,4,1,-7,1,-1,1,-7,1,-11,1,-12,1,-15,1
1338,-3,1,3,1,6,1,0,1,-4,1,4,1,-7,1,-2,1,-7,1,-12,1,-11,1,-15,1
1339,-4,1,3,1,7,1,0,1,-5,1,5,1,-6,1,-2,1,-7,1,-12,1,-11,1,-14,1
1340,-4,1,3,1,7,1,0,1,-5,1,5,1,-5,1,-2,1,-7,1,-12,1,-10,1,-13,1
1341,-4,1,3,1,7,1,0,1,-5,1,5,1,-6,1,-2,1,-6,1,-11,1,-10,1,-13,1
1342,-4,1,2,1,6,1,1,1,-5,1,4,1,-6,1,-1,1,-6,1,-11,1,-10,1,-12,1
1343,-3,1,3,1,6,1,0,1,-4,1,4,1,-6,1,-1,1,-6,1,-11,1,-10,1,-13,1
1344,-2,1,3,1,5,1,0,1,-3,1,4,1,-6,1,-1,1,-6,1,-11,1,-10,1,-13,1
1345,-3,1,4,1,7,1,0,1,-5,1,5,1,-6,1,0,1,-6,1,-11,1,-10,1,-12,1
1346,-2,1,3,1,5,1,0,1,-3,1,4,1,-6,1,0,1,-6,1,-10,1,-10,1,-11,1
1347,-2,1,3,1,5,1,0,1,-3,1,4,1,-6,1,1,1,-6,1,-10,1,-10,1,-12,1
1348,-3,1,3,1,6,1,0,1,-4,1,4,1,-6,1,0,1,-6,1,-11,1,-10,1,-12,1
1349,-4,1,3,1,7,1,0,1,-5,1,5,1,-6,1,0,1,-6,1,-11,1,-10,1,-12,1
1350,-3,1,3,1,6,1,0,1,-4,1,4,1,-6,1,0,1,-5,1,-12,1,-11,1,-12,1
1351,-3,1,3,1,6,1,0,1,-4,1,4,1,-6,1,-1,1,-5,1,-12,1,-11,1,-12,1
1352,-2,1,2,1,4,1,0,1,-3,1,3,1,-7,1,-1,1,-5,1,-12,1,-11,1,-12,1
1353,-2,1,1,1,3,1,0,1,-2,1,2,1,-7,1,0,1,-4,1,-12,1,-11,1,-11,1
1354,-3,1,1,1,4,1,1,1,-3,1,2,1,-7,1,0,1,-4,1,-13,1,-11,1,-11,1
1355,-3,1,1,1,4,1,1,1,-3,1,2,1,-8,1,-1,1,-4,1,-13,1,-11,1,-12,1
1356,-4,1,1,1,5,1,1,1,-4,1,3,1,-8,1,-1,1,-4,1,-12,1,-11,1,-12,1
1357,-2,1,2,1,4,1,0,1,-3,1,3,1,-9,1,-1,1,-4,1,-12,1,-11,1,-12,1
1358,-1,1,2,1,3,1,0,1,-2,1,2,1,-8,1,-1,1,-4,1,-11,1,-10,1,-12,1
1359,0,1,3,1,3,1,-1,1,-1,1,3,1,-9,1,-1,1,-4,1,-12,1,-10,1,-13,1
1360,0,1,3,1,3,1,-1,1,-1,1,3,1,-9,1,-1,1,-4,1,-12,1,-10,1,-13,1
1361,0,1,4,1,4,1,-2,1,-2,1,4,1,-9,1,-1,1,-5,1,-13,1,-10,1,-13,1
1362,-2,1,3,1,5,1,0,1,-3,1,4,1,-9,1,-2,1,-6,1,-14,1,-11,1,-13,1
1363,-1,1,3,1,4,1,-1,1,-2,1,3,1,-9,1,-1,1,-6,1,-14,1,-11,1,-13,1
1364,0,1,3,1,3,1,-1,1,-1,1,3,1,-9,1,-1,1,-6,1,-14,1,-11,1,-13,1
1365,0,1,3,1,3,1,-1,1,-1,1,3,1,-9,1,0,1,-5,1,-14,1,-10,1,-12,1
1366,-2,1,2,1,4,1,0,1,-3,1,3,1,-9,1,1,1,-4,1,-14,1,-9,1,-12,1
1367,-4,1,2,1,6,1,1,1,-5,1,4,1,-8,1,1,1,-3,1,-13,1,-9,1,-12,1
1368,-4,1,1,1,5,1,1,1,-4,1,3,1,-8,1,2,1,-3,1,-12,1,-10,1,-12,1
1369,-2,1,0,1,2,1,1,1,-2,1,1,1,-8,1,0,1,-4,1,-13,1,-10,1,-13,1
1370,-1,1,-1,1,0,1,1,1,-1,1,-1,1,-9,1,0,1,-5,1,-14,1,-11,1,-13,1
1371,-1,1,-1,1,0,1,1,1,-1,1,-1,1,-9,1,-2,1,-5,1,-14,1,-12,1,-14,1
1372,-2,1,0,1,2,1,1,1,-2,1,1,1,-9,1,-3,1,-5,1,-14,1,-11,1,-14,1
1373,-1,1,0,1,1,1,0,1,-1,1,0,1,-9,1,-4,1,-5,1,-14,1,-11,1,-14,1
1374,-1,1,0,1,1,1,0,1,-1,1,0,1,-9,1,-4,1,-4,1,-14,1,-12,1,-14,1
1375,-2,1,1,1,3,1,0,1,-2,1,2,1,-10,1,-5,1,-5,1,-16,1,-12,1,-15,1
1376,-2,1,2,1,4,1,0,1,-3,1,3,1,-11,1,-5,1,-5,1,-17,1,-13,1,-15,1
1377,-2,1,3,1,5,1,0,1,-3,1,4,1,-12,1,-6,1,-5,1,-17,1,-14,1,-16,1
1378,-2,1,3,1,5,1,0,1,-3,1,4,1,-12,1,-6,1,-6,1,-18,1,-14,1,-16,1
1379,-2,1,2,1,4,1,0,1,-3,1,3,1,-11,1,-6,1,-6,1,-18,1,-14,1,-16,1
1380,-2,1,1,1,3,1,0,1,-2,1,2,1,-10,1,-6,1,-7,1,-18,1,-15,1,-16,1
1381,-3,1,0,1,3,1,1,1,-3,1,1,1,-10,1,-6,1,-7,1,-18,1,-15,1,-15,1
1382,-3,1,0,1,3,1,1,1,-3,1,1,1,-10,1,-6,1,-7,1,-17,1,-15,1,-15,1
1383,-2,1,0,1,2,1,1,1,-2,1,1,1,-10,1,-6,1,-6,1,-17,1,-14,1,-15,1
1384,-2,1,1,1,3,1,0,1,-2,1,2,1,-11,1,-5,1,-6,1,-17,1,-14,1,-15,1
1385,-2,1,0,1,2,1,1,1,-2,1,1,1,-11,1,-5,1,-7,1,-17,1,-13,1,-14,1
1386,-2,1,-1,1,1,1,1,1,-2,1,0,1,-11,1,-5,1,-7,1,-17,1,-13,1,-14,1
1387,-1,1,-2,1,-1,1,1,1,0,1,-2,1,-11,1,-5,1,-7,1,-18,1,-14,1,-14,1
1388,0,1,-2,1,-2,1,1,1,1,1,-2,1,-11,1,-6,1,-8,1,-19,1,-14,1,-14,1
1389,0,1,-2,1,-2,1,1,1,1,1,-2,1,-12,1,-6,1,-8,1,-20,1,-14,1,-14,1
1390,0,1,-3,1,-3,1,1,1,1,1,-3,1,-11,1,-7,1,-7,1,-18,1,-14,1,-15,1
1391,0,1,-1,1,-1,1,0,1,0,1,-1,1,-11,1,-7,1,-7,1,-18,1,-15,1,-15,1
1392,-1,1,0,1,1,1,0,1,-1,1,0,1,-10,1,-7,1,-7,1,-19,1,-16,1,-15,1
1393,-1,1,0,1,1,1,0,1,-1,1,0,1,-10,1,-8,1,-7,1,-20,1,-16,1,-16,1
1394,-1,1,1,1,2,1,0,1,-1,1,1,1,-11,1,-8,1,-8,1,-21,1,-15,1,-16,1
1395,-1,1,0,1,1,1,0,1,-1,1,0,1,-11,1,-8,1,-8,1,-21,1,-15,1,-16,1
1396,-2,1,0,1,2,1,1,1,-2,1,1,1,-11,1,-8,1,-8,1,-21,1,-15,1,-16,1
1397,-2,1,-2,1,0,1,2,1,-1,1,-1,1,-11,1,-8,1,-8,1,-21,1,-15,1,-15,1
1398,-2,1,-3,1,-1,1,2,1,-1,1,-2,1,-12,1,-8,1,-9,1,-21,1,-16,1,-16,1
1399,-2,1,-3,1,-1,1,2,1,-1,1,-2,1,-12,1,-7,1,-9,1,-21,1,-16,1,-16,1
1400,-2,1,-3,1,-1,1,2,1,-1,1,-2,1,-13,1,-7,1,-8,1,-21,1,-16,1,-17,1
1401,-2,1,-3,1,-1,1,2,1,-1,1,-2,1,-13,1,-7,1,-8,1,-22,1,-16,1,-16,1
1402,-2,1,-3,1,-1,1,2,1,-1,1,-2,1,-13,1,-8,1,-8,1,-22,1,-16,1,-16,1
1403,-2,1,-4,1,-2,1,3,1,0,1,-3,1,-12,1,-8,1,-8,1,-22,1,-16,1,-15,1
1404,-2,1,-3,1,-1,1,2,1,-1,1,-2,1,-11,1,-8,1,-7,1,-22,1,-15,1,-15,1
1405,-3,1,-3,1,0,1,3,1,-2,1,-2,1,-10,1,-7,1,-7,1,-21,1,-14,1,-14,1
1406,-3,1,-3,1,0,1,3,1,-2,1,-2,1,-10,1,-7,1,-7,1,-21,1,-14,1,-14,1
1407,-3,1,-3,1,0,1,3,1,-2,1,-2,1,-10,1,-7,1,-8,1,-22,1,-14,1,-14,1
1408,-3,1,-3,1,0,1,3,1,-2,1,-2,1,-11,1,-8,1,-9,1,-23,1,-15,1,-13,1
1409,-3,1,-3,1,0,1,3,1,-2,1,-2,1,-11,1,-8,1,-10,1,-23,1,-15,1,-13,1
1410,-3,1,-4,1,-1,1,3,1,-1,1,-3,1,-12,1,-8,1,-10,1,-23,1,-15,1,-13,1
1411,-4,1,-4,1,0,1,4,1,-2,1,-2,1,-12,1,-8,1,-9,1,-23,1,-15,1,-13,1
1412,-7,1,-4,1,3,1,5,1,-5,1,-1,1,-11,1,-8,1,-8,1,-23,1,-15,1,-13,1
1413,-6,1,-3,1,3,1,4,1,-5,1,0,1,-11,1,-9,1,-8,1,-23,1,-16,1,-14,1
1414,-6,1,-3,1,3,1,4,1,-5,1,0,1,-11,1,-10,1,-9,1,-23,1,-17,1,-15,1
1415,-6,1,-3,1,3,1,4,1,-5,1,0,1,-11,1,-10,1,-9,1,-23,1,-17,1,-16,1
1416,-6,1,-3,1,3,1,4,1,-5,1,0,1,-11,1,-9,1,-9,1,-23,1,-18,1,-16,1
1417,-5,1,-3,1,2,1,4,1,-4,1,-1,1,-12,1,-9,1,-10,1,-24,1,-18,1,-17,1
1418,-4,1,-3,1,1,1,3,1,-3,1,-1,1,-12,1,-10,1,-11,1,-24,1,-18,1,-17,1
1419,-3,1,-3,1,0,1,3,1,-2,1,-2,1,-13,1,-10,1,-11,1,-25,1,-18,1,-17,1
1420,-2,1,-3,1,-1,1,2,1,-1,1,-2,1,-13,1,-10,1,-10,1,-25,1,-18,1,-16,1
1421,-2,1,-3,1,-1,1,2,1,-1,1,-2,1,-13,1,-10,1,-10,1,-25,1,-18,1,-15,1
1422,-3,1,-3,1,0,1,3,1,-2,1,-2,1,-14,1,-10,1,-10,1,-24,1,-18,1,-15,1
1423,-3,1,-3,1,0,1,3,1,-2,1,-2,1,-14,1,-10,1,-10,1,-24,1,-18,1,-15,1
1424,-4,1,-3,1,1,1,3,1,-3,1,-1,1,-14,1,-10,1,-10,1,-25,1,-18,1,-15,1
1425,-4,1,-3,1,1,1,3,1,-3,1,-1,1,-14,1,-9,1,-10,1,-25,1,-18,1,-15,1
1426,-4,1,-3,1,1,1,3,1,-3,1,-1,1,-13,1,-10,1,-9,1,-25,1,-18,1,-14,1
1427,-3,1,-4,1,-1,1,3,1,-1,1,-3,1,-13,1,-10,1,-8,1,-24,1,-17,1,-14,1
1428,-2,1,-4,1,-2,1,3,1,0,1,-3,1,-13,1,-9,1,-9,1,-24,1,-17,1,-14,1
1429,-2,1,-4,1,-2,1,3,1,0,1,-3,1,-13,1,-9,1,-9,1,-24,1,-17,1,-14,1
1430,-2,1,-4,1,-2,1,3,1,0,1,-3,1,-12,1,-9,1,-9,1,-24,1,-17,1,-13,1
1431,-3,1,-3,1,0,1,3,1,-2,1,-2,1,-13,1,-9,1,-9,1,-24,1,-17,1,-13,1
1432,-4,1,-3,1,1,1,3,1,-3,1,-1,1,-14,1,-10,1,-9,1,-25,1,-18,1,-14,1
1433,-5,1,-3,1,2,1,4,1,-4,1,-1,1,-13,1,-10,1,-10,1,-25,1,-18,1,-15,1
1434,-6,1,-2,1,4,1,4,1,-5,1,1,1,-13,1,-10,1,-9,1,-25,1,-18,1,-15,1
1435,-5,1,-2,1,3,1,3,1,-4,1,0,1,-14,1,-10,1,-10,1,-26,1,-19,1,-16,1
1436,-4,1,-1,1,3,1,2,1,-4,1,1,1,-14,1,-10,1,-9,1,-27,1,-19,1,-16,1
1437,-5,1,-1,1,4,1,3,1,-5,1,1,1,-14,1,-10,1,-9,1,-27,1,-18,1,-16,1
1438,-5,1,-1,1,4,1,3,1,-5,1,1,1,-15,1,-10,1,-10,1,-27,1,-18,1,-16,1
1439,-5,1,-2,1,3,1,3,1,-4,1,0,1,-14,1,-10,1,-10,1,-27,1,-17,1,-16,1
1440,-4,1,-2,1,2,1,3,1,-3,1,0,1,-13,1,-10,1,-9,1,-27,1,-16,1,-16,1
1441,-4,1,-2,1,2,1,3,1,-3,1,0,1,-12,1,-10,1,-9,1,-26,1,-16,1,-16,1
1442,-3,1,-2,1,1,1,2,1,-2,1,-1,1,-12,1,-10,1,-9,1,-26,1,-16,1,-15,1
1443,-4,1,-3,1,1,1,3,1,-3,1,-1,1,-11,1,-9,1,-9,1,-25,1,-15,1,-15,1
1444,-4,1,-3,1,1,1,3,1,-3,1,-1,1,-12,1,-9,1,-9,1,-26,1,-15,1,-15,1
1445,-4,1,-3,1,1,1,3,1,-3,1,-1,1,-12,1,-10,1,-9,1,-26,1,-16,1,-15,1
1446,-5,1,-3,1,2,1,4,1,-4,1,-1,1,-13,1,-9,1,-9,1,-26,1,-16,1,-15,1
1447,-5,1,-3,1,2,1,4,1,-4,1,-1,1,-13,1,-9,1,-9,1,-25,1,-16,1,-15,1
1448,-4,1,-3,1,1,1,3,1,-3,1,-1,1,-13,1,-9,1,-8,1,-26,1,-17,1,-14,1
1449,-4,1,-4,1,0,1,4,1,-2,1,-2,1,-13,1,-9,1,-8,1,-26,1,-16,1,-14,1
1450,-4,1,-3,1,1,1,3,1,-3,1,-1,1,-13,1,-10,1,-9,1,-26,1,-16,1,-14,1
1451,-4,1,-3,1,1,1,3,1,-3,1,-1,1,-13,1,-10,1,-9,1,-26,1,-17,1,-14,1
1452,-4,1,-3,1,1,1,3,1,-3,1,-1,1,-13,1,-10,1,-9,1,-26,1,-16,1,-14,1
1453,-4,1,-2,1,2,1,3,1,-3,1,0,1,-13,1,-10,1,-9,1,-27,1,-16,1,-14,1
1454,-3,1,-2,1,1,1,2,1,-2,1,-1,1,-14,1,-10,1,-8,1,-27,1,-17,1,-15,1
1455,-3,1,-2,1,1,1,2,1,-2,1,-1,1,-14,1,-9,1,-8,1,-26,1,-16,1,-15,1
1456,-3,1,-3,1,0,1,3,1,-2,1,-2,1,-13,1,-9,1,-7,1,-26,1,-16,1,-15,1
1457,-4,1,-3,1,1,1,3,1,-3,1,-1,1,-13,1,-8,1,-7,1,-25,1,-16,1,-16,1
1458,-5,1,-3,1,2,1,4,1,-4,1,-1,1,-13,1,-9,1,-8,1,-26,1,-17,1,-16,1
1459,-6,1,-3,1,3,1,4,1,-5,1,0,1,-12,1,-9,1,-8,1,-26,1,-17,1,-17,1
1460,-6,1,-3,1,3,1,4,1,-5,1,0,1,-12,1,-10,1,-9,1,-26,1,-17,1,-16,1
1461,-5,1,-3,1,2,1,4,1,-4,1,-1,1,-12,1,-11,1,-9,1,-27,1,-17,1,-15,1
1462,-4,1,-4,1,0,1,4,1,-2,1,-2,1,-11,1,-11,1,-8,1,-26,1,-17,1,-15,1
1463,-4,1,-4,1,0,1,4,1,-2,1,-2,1,-10,1,-11,1,-7,1,-25,1,-17,1,-14,1
1464,-4,1,-4,1,0,1,4,1,-2,1,-2,1,-10,1,-11,1,-5,1,-25,1,-17,1,-14,1
1465,-4,1,-4,1,0,1,4,1,-2,1,-2,1,-10,1,-13,1,-5,1,-25,1,-16,1,-13,1
1466,-5,1,-4,1,1,1,4,1,-3,1,-2,1,-10,1,-12,1,-5,1,-25,1,-16,1,-13,1
1467,-6,1,-4,1,2,1,5,1,-4,1,-1,1,-10,1,-12,1,-5,1,-25,1,-16,1,-13,1
1468,-6,1,-4,1,2,1,5,1,-4,1,-1,1,-10,1,-12,1,-6,1,-26,1,-17,1,-13,1
1469,-5,1,-4,1,1,1,4,1,-3,1,-2,1,-11,1,-12,1,-6,1,-26,1,-17,1,-14,1
1470,-5,1,-3,1,2,1,4,1,-4,1,-1,1,-11,1,-12,1,-6,1,-26,1,-17,1,-14,1
1471,-4,1,-1,1,3,1,2,1,-4,1,1,1,-11,1,-12,1,-6,1,-25,1,-17,1,-14,1
1472,-4,1,0,1,4,1,2,1,-4,1,2,1,-12,1,-13,1,-6,1,-25,1,-17,1,-14,1
1473,-4,1,0,1,4,1,2,1,-4,1,2,1,-11,1,-13,1,-5,1,-25,1,-17,1,-13,1
1474,-5,1,0,1,5,1,2,1,-5,1,2,1,-11,1,-13,1,-5,1,-25,1,-17,1,-13,1
1475,-4,1,0,1,4,1,2,1,-4,1,2,1,-11,1,-13,1,-5,1,-25,1,-17,1,-13,1
1476,-3,1,0,1,3,1,1,1,-3,1,1,1,-11,1,-12,1,-4,1,-25,1,-17,1,-13,1
1477,-2,1,1,1,3,1,0,1,-2,1,2,1,-11,1,-11,1,-3,1,-25,1,-16,1,-13,1
1478,-3,1,2,1,5,1,0,1,-4,1,3,1,-10,1,-10,1,-3,1,-24,1,-15,1,-13,1
1479,-4,1,2,1,6,1,1,1,-5,1,4,1,-8,1,-9,1,-2,1,-24,1,-14,1,-12,1
1480,-4,1,2,1,6,1,1,1,-5,1,4,1,-6,1,-7,1,-1,1,-23,1,-13,1,-11,1
1481,-4,1,3,1,7,1,0,1,-5,1,5,1,-4,1,-6,1,-1,1,-22,1,-13,1,-10,1
1482,-3,1,5,1,8,1,-1,1,-5,1,6,1,-4,1,-5,1,0,1,-21,1,-12,1,-8,1
1483,-3,1,6,1,9,1,-1,1,-6,1,7,1,-3,1,-4,1,0,1,-20,1,-11,1,-7,1
1484,-3,1,7,1,10,1,-2,1,-6,1,8,1,-3,1,-4,1,1,1,-19,1,-11,1,-6,1
1485,-3,1,8,1,11,1,-2,1,-7,1,9,1,-3,1,-3,1,3,1,-18,1,-10,1,-6,1
1486,-4,1,8,1,12,1,-2,1,-8,1,10,1,-3,1,-4,1,4,1,-18,1,-9,1,-5,1
1487,-3,1,9,1,12,1,-3,1,-7,1,10,1,-3,1,-4,1,3,1,-18,1,-9,1,-5,1
1488,-3,1,10,1,13,1,-3,1,-8,1,11,1,-3,1,-4,1,3,1,-18,1,-9,1,-6,1
1489,-2,1,10,1,12,1,-4,1,-7,1,11,1,-2,1,-4,1,3,1,-18,1,-8,1,-5,1
1490,-1,1,10,1,11,1,-4,1,-6,1,10,1,-2,1,-3,1,2,1,-18,1,-7,1,-5,1
1491,0,1,10,1,10,1,-5,1,-5,1,10,1,-2,1,-2,1,2,1,-18,1,-8,1,-5,1
1492,0,1,11,1,11,1,-5,1,-5,1,11,1,-2,1,-2,1,2,1,-18,1,-9,1,-6,1
1493,0,1,11,1,11,1,-5,1,-5,1,11,1,-2,1,-1,1,3,1,-18,1,-9,1,-6,1
1494,-1,1,11,1,12,1,-5,1,-6,1,11,1,-2,1,-1,1,4,1,-17,1,-9,1,-6,1
1495,-1,1,11,1,12,1,-5,1,-6,1,11,1,-2,1,-1,1,4,1,-17,1,-9,1,-6,1
1496,-1,1,12,1,13,1,-5,1,-7,1,12,1,-2,1,0,1,5,1,-17,1,-9,1,-5,1
1497,0,1,13,1,13,1,-6,1,-6,1,13,1,-2,1,0,1,6,1,-16,1,-8,1,-4,1
1498,0,1,14,1,14,1,-7,1,-7,1,14,1,-2,1,1,1,7,1,-16,1,-7,1,-3,1
1499,1,1,16,1,15,1,-8,1,-7,1,16,1,-3,1,1,1,7,1,-16,1,-7,1,-2,1
1500,2,1,16,1,14,1,-9,1,-6,1,15,1,-4,1,1,1,7,1,-15,1,-6,1,-1,1
1501,1,1,16,1,15,1,-8,1,-7,1,16,1,-4,1,0,1,8,1,-15,1,-6,1,-1,1
1502,2,1,16,1,14,1,-9,1,-6,1,15,1,-6,1,-2,1,7,1,-16,1,-7,1,-1,1
1503,3,1,17,1,14,1,-10,1,-5,1,16,1,-8,1,-3,1,6,1,-17,1,-6,1,-2,1
1504,3,1,16,1,13,1,-9,1,-5,1,15,1,-8,1,-3,1,7,1,-17,1,-6,1,-1,1
1505,4,1,15,1,11,1,-9,1,-3,1,13,1,-10,1,-3,1,7,1,-17,1,-5,1,-1,1
1506,5,1,15,1,10,1,-10,1,-2,1,13,1,-11,1,-3,1,6,1,-16,1,-4,1,0,1
1507,6,1,15,1,9,1,-10,1,-1,1,12,1,-12,1,-3,1,6,1,-16,1,-4,1,1,1
1508,7,1,15,1,8,1,-11,1,0,1,12,1,-14,1,-5,1,5,1,-17,1,-5,1,0,1
1509,8,1,15,1,7,1,-11,1,1,1,11,1,-15,1,-6,1,4,1,-18,1,-6,1,0,1
1510,9,1,13,1,4,1,-11,1,3,1,9,1,-15,1,-6,1,3,1,-18,1,-7,1,-1,1
1511,9,1,12,1,3,1,-10,1,3,1,8,1,-15,1,-7,1,2,1,-19,1,-7,1,-2,1
1512,9,1,12,1,3,1,-10,1,3,1,8,1,-16,1,-8,1,1,1,-20,1,-8,1,-3,1
1513,9,1,11,1,2,1,-10,1,4,1,7,1,-16,1,-9,1,0,1,-21,1,-9,1,-4,1
1514,9,1,10,1,1,1,-9,1,4,1,6,1,-17,1,-10,1,-1,1,-22,1,-10,1,-5,1
1515,9,1,9,1,0,1,-9,1,5,1,5,1,-17,1,-11,1,-2,1,-23,1,-11,1,-6,1
1516,9,1,8,1,-1,1,-8,1,5,1,4,1,-17,1,-11,1,-3,1,-24,1,-11,1,-6,1
1517,8,1,6,1,-2,1,-7,1,5,1,2,1,-17,1,-11,1,-4,1,-25,1,-11,1,-5,1
1518,7,1,4,1,-3,1,-5,1,5,1,1,1,-18,1,-12,1,-4,1,-26,1,-11,1,-5,1
1519,6,1,3,1,-3,1,-4,1,5,1,0,1,-18,1,-11,1,-3,1,-26,1,-11,1,-5,1
1520,4,1,1,1,-3,1,-2,1,4,1,-1,1,-17,1,-10,1,-3,1,-26,1,-11,1,-5,1
1521,3,1,1,1,-2,1,-2,1,3,1,0,1,-16,1,-9,1,-2,1,-25,1,-11,1,-4,1
1522,1,1,1,1,0,1,-1,1,1,1,1,1,-14,1,-7,1,-1,1,-24,1,-10,1,-4,1
1523,0,1,0,1,0,1,0,1,0,1,0,1,-14,1,-7,1,0,1,-24,1,-10,1,-4,1
1524,-2,1,0,1,2,1,1,1,-2,1,1,1,-13,1,-8,1,0,1,-24,1,-11,1,-4,1
1525,-3,1,-1,1,2,1,2,1,-3,1,0,1,-13,1,-8,1,-1,1,-25,1,-12,1,-5,1
1526,-4,1,-3,1,1,1,3,1,-3,1,-1,1,-13,1,-9,1,-2,1,-27,1,-13,1,-7,1
1527,-6,1,-5,1,1,1,5,1,-4,1,-2,1,-12,1,-9,1,-2,1,-27,1,-14,1,-8,1
1528,-6,1,-6,1,0,1,6,1,-3,1,-3,1,-13,1,-10,1,-3,1,-28,1,-16,1,-10,1
1529,-7,1,-7,1,0,1,7,1,-4,1,-4,1,-12,1,-11,1,-4,1,-28,1,-17,1,-12,1
1530,-7,1,-7,1,0,1,7,1,-4,1,-4,1,-13,1,-11,1,-5,1,-28,1,-18,1,-13,1
1531,-8,1,-7,1,1,1,7,1,-5,1,-3,1,-14,1,-12,1,-6,1,-29,1,-18,1,-14,1
1532,-8,1,-7,1,1,1,7,1,-5,1,-3,1,-14,1,-13,1,-7,1,-30,1,-19,1,-14,1
1533,-7,1,-8,1,-1,1,7,1,-3,1,-5,1,-14,1,-14,1,-8,1,-31,1,-19,1,-15,1
1534,-7,1,-8,1,-1,1,7,1,-3,1,-5,1,-14,1,-14,1,-7,1,-31,1,-20,1,-15,1
1535,-8,1,-8,1,0,1,8,1,-4,1,-4,1,-14,1,-14,1,-7,1,-31,1,-20,1,-15,1
1536,-7,1,-7,1,0,1,7,1,-4,1,-4,1,-13,1,-14,1,-7,1,-31,1,-20,1,-15,1
1537,-8,1,-7,1,1,1,7,1,-5,1,-3,1,-13,1,-14,1,-7,1,-32,1,-20,1,-15,1
1538,-9,1,-8,1,1,1,8,1,-5,1,-4,1,-13,1,-13,1,-6,1,-32,1,-20,1,-15,1
1539,-9,1,-8,1,1,1,8,1,-5,1,-4,1,-12,1,-12,1,-6,1,-32,1,-20,1,-15,1
1540,-9,1,-8,1,1,1,8,1,-5,1,-4,1,-12,1,-12,1,-6,1,-31,1,-20,1,-15,1
1541,-9,1,-9,1,0,1,9,1,-5,1,-5,1,-13,1,-12,1,-5,1,-31,1,-20,1,-15,1
1542,-10,1,-10,1,0,1,10,1,-5,1,-5,1,-13,1,-12,1,-5,1,-31,1,-20,1,-14,1
1543,-11,1,-10,1,1,1,10,1,-6,1,-5,1,-13,1,-12,1,-6,1,-30,1,-19,1,-14,1
1544,-10,1,-10,1,0,1,10,1,-5,1,-5,1,-13,1,-11,1,-6,1,-30,1,-19,1,-14,1
1545,-10,1,-10,1,0,1,10,1,-5,1,-5,1,-13,1,-11,1,-5,1,-30,1,-20,1,-14,1
1546,-10,1,-9,1,1,1,9,1,-6,1,-4,1,-12,1,-10,1,-5,1,-29,1,-19,1,-14,1
1547,-10,1,-9,1,1,1,9,1,-6,1,-4,1,-11,1,-10,1,-5,1,-29,1,-18,1,-14,1
1548,-10,1,-9,1,1,1,9,1,-6,1,-4,1,-11,1,-10,1,-4,1,-29,1,-18,1,-14,1
1549,-9,1,-9,1,0,1,9,1,-5,1,-5,1,-11,1,-10,1,-4,1,-29,1,-18,1,-14,1
1550,-9,1,-9,1,0,1,9,1,-5,1,-5,1,-11,1,-9,1,-4,1,-29,1,-18,1,-14,1
1551,-10,1,-9,1,1,1,9,1,-6,1,-4,1,-11,1,-9,1,-4,1,-28,1,-19,1,-14,1
1552,-10,1,-9,1,1,1,9,1,-6,1,-4,1,-11,1,-9,1,-4,1,-28,1,-20,1,-14,1
1553,-10,1,-10,1,0,1,10,1,-5,1,-5,1,-11,1,-8,1,-3,1,-28,1,-20,1,-14,1
1554,-10,1,-10,1,0,1,10,1,-5,1,-5,1,-11,1,-8,1,-3,1,-27,1,-20,1,-14,1
1555,-9,1,-10,1,-1,1,9,1,-4,1,-6,1,-11,1,-8,1,-2,1,-26,1,-19,1,-14,1
1556,-9,1,-10,1,-1,1,9,1,-4,1,-6,1,-10,1,-6,1,0,1,-25,1,-18,1,-13,1
1557,-9,1,-9,1,0,1,9,1,-5,1,-5,1,-8,1,-1,1,4,1,-21,1,-16,1,-12,1
1558,-9,1,-7,1,2,1,8,1,-6,1,-3,1,-5,1,6,1,10,1,-15,1,-13,1,-10,1
1559,-7,1,-5,1,2,1,6,1,-5,1,-2,1,-2,1,16,1,18,1,-7,1,-9,1,-8,1
1560,-5,1,-3,1,2,1,4,1,-4,1,-1,1,0,1,26,1,29,1,2,1,-3,1,-5,1
1561,-2,1,0,1,2,1,1,1,-2,1,1,1,2,1,37,1,40,1,12,1,3,1,-2,1
1562,1,1,3,1,2,1,-2,1,0,1,3,1,4,1,47,1,52,1,24,1,12,1,1,1
1563,7,1,5,1,-2,1,-6,1,5,1,2,1,7,1,62,1,69,1,39,1,24,1,7,1
1564,16,1,7,1,-9,1,-11,1,13,1,-1,1,10,1,82,1,91,1,58,1,38,1,13,1
1565,31,1,10,1,-21,1,-20,1,26,1,-5,1,11,1,104,1,116,1,83,1,57,1,22,1
1566,50,1,14,1,-36,1,-32,1,43,1,-11,1,8,1,125,1,141,1,109,1,80,1,34,1
1567,71,1,20,1,-51,1,-45,1,61,1,-15,1,5,1,141,1,163,1,135,1,106,1,50,1
1568,94,1,26,1,-68,1,-60,1,81,1,-21,1,-1,1,149,1,177,1,155,1,131,1,67,1
1569,116,1,34,1,-82,1,-75,1,99,1,-24,1,-10,1,145,1,181,1,167,1,153,1,84,1
1570,135,1,40,1,-95,1,-87,1,115,1,-27,1,-22,1,130,1,174,1,168,1,167,1,99,1
1571,150,1,48,1,-102,1,-99,1,126,1,-27,1,-35,1,108,1,159,1,158,1,173,1,110,1
1572,157,1,57,1,-100,1,-107,1,129,1,-21,1,-50,1,75,1,130,1,135,1,168,1,116,1
1573,157,1,64,1,-93,1,-110,1,125,1,-14,1,-64,1,31,1,88,1,97,1,151,1,114,1
1574,146,1,67,1,-79,1,-106,1,113,1,-6,1,-74,1,-18,1,36,1,47,1,120,1,104,1
1575,128,1,69,1,-59,1,-98,1,94,1,5,1,-82,1,-70,1,-20,1,-8,1,82,1,90,1
1576,106,1,70,1,-36,1,-88,1,71,1,17,1,-87,1,-124,1,-80,1,-66,1,44,1,76,1
1577,82,1,68,1,-14,1,-75,1,48,1,27,1,-92,1,-178,1,-142,1,-125,1,3,1,58,1
1578,57,1,60,1,3,1,-58,1,27,1,32,1,-96,1,-226,1,-199,1,-184,1,-39,1,39,1
1579,38,1,47,1,9,1,-42,1,15,1,28,1,-103,1,-267,1,-245,1,-232,1,-75,1,20,1
1580,19,1,30,1,11,1,-24,1,4,1,21,1,-104,1,-289,1,-273,1,-265,1,-104,1,0,1
1581,-1,1,12,1,13,1,-5,1,-7,1,12,1,-99,1,-297,1,-287,1,-285,1,-128,1,-21,1
1582,-17,1,-5,1,12,1,11,1,-15,1,3,1,-94,1,-297,1,-290,1,-295,1,-144,1,-38,1
1583,-29,1,-20,1,9,1,24,1,-19,1,-6,1,-90,1,-293,1,-289,1,-298,1,-154,1,-52,1
1584,-35,1,-33,1,2,1,34,1,-19,1,-16,1,-88,1,-287,1,-283,1,-296,1,-159,1,-62,1
1585,-38,1,-43,1,-5,1,40,1,-17,1,-24,1,-85,1,-278,1,-275,1,-290,1,-161,1,-68,1
1586,-39,1,-50,1,-11,1,44,1,-14,1,-31,1,-83,1,-270,1,-266,1,-284,1,-162,1,-72,1
1587,-39,1,-54,1,-15,1,46,1,-12,1,-35,1,-82,1,-260,1,-255,1,-274,1,-160,1,-75,1
1588,-40,1,-57,1,-17,1,48,1,-12,1,-37,1,-79,1,-244,1,-239,1,-259,1,-156,1,-76,1
1589,-40,1,-59,1,-19,1,49,1,-11,1,-39,1,-75,1,-224,1,-219,1,-241,1,-149,1,-74,1
1590,-41,1,-57,1,-16,1,49,1,-13,1,-37,1,-70,1,-203,1,-197,1,-220,1,-140,1,-72,1
1591,-40,1,-54,1,-14,1,47,1,-13,1,-34,1,-66,1,-181,1,-176,1,-200,1,-130,1,-70,1
1592,-38,1,-51,1,-13,1,44,1,-13,1,-32,1,-62,1,-159,1,-155,1,-181,1,-119,1,-66,1
1593,-35,1,-46,1,-11,1,40,1,-12,1,-29,1,-58,1,-139,1,-135,1,-161,1,-108,1,-60,1
1594,-30,1,-41,1,-11,1,35,1,-10,1,-26,1,-52,1,-119,1,-115,1,-143,1,-96,1,-53,1
1595,-26,1,-35,1,-9,1,30,1,-9,1,-22,1,-46,1,-100,1,-96,1,-125,1,-84,1,-46,1
1596,-22,1,-29,1,-7,1,25,1,-8,1,-18,1,-39,1,-83,1,-79,1,-109,1,-73,1,-39,1
1597,-19,1,-25,1,-6,1,22,1,-7,1,-16,1,-32,1,-67,1,-64,1,-95,1,-64,1,-35,1
1598,-15,1,-22,1,-7,1,18,1,-4,1,-15,1,-25,1,-51,1,-49,1,-82,1,-57,1,-31,1
1599,-12,1,-19,1,-7,1,15,1,-3,1,-13,1,-20,1,-37,1,-37,1,-70,1,-51,1,-28,1
1600,-10,1,-17,1,-7,1,13,1,-2,1,-12,1,-15,1,-25,1,-27,1,-60,1,-47,1,-27,1
1601,-6,1,-15,1,-9,1,10,1,1,1,-12,1,-12,1,-16,1,-19,1,-52,1,-43,1,-26,1
1602,-6,1,-13,1,-7,1,9,1,0,1,-10,1,-10,1,-9,1,-12,1,-45,1,-39,1,-24,1
1603,-6,1,-11,1,-5,1,8,1,-1,1,-8,1,-9,1,-5,1,-6,1,-39,1,-35,1,-21,1
1604,-5,1,-9,1,-4,1,7,1,-1,1,-7,1,-7,1,-2,1,-2,1,-35,1,-31,1,-19,1
1605,-5,1,-8,1,-3,1,6,1,-1,1,-6,1,-5,1,0,1,0,1,-31,1,-28,1,-17,1
1606,-4,1,-7,1,-3,1,5,1,-1,1,-5,1,-4,1,1,1,2,1,-29,1,-27,1,-15,1
1607,-4,1,-5,1,-1,1,4,1,-2,1,-3,1,-2,1,3,1,4,1,-27,1,-26,1,-14,1
1608,-4,1,-5,1,-1,1,4,1,-2,1,-3,1,-1,1,6,1,6,1,-26,1,-24,1,-13,1
1609,-4,1,-5,1,-1,1,4,1,-2,1,-3,1,0,1,8,1,8,1,-23,1,-23,1,-13,1
1610,-4,1,-6,1,-2,1,5,1,-1,1,-4,1,0,1,10,1,10,1,-21,1,-22,1,-12,1
1611,-4,1,-6,1,-2,1,5,1,-1,1,-4,1,1,1,12,1,12,1,-18,1,-20,1,-11,1
1612,-4,1,-6,1,-2,1,5,1,-1,1,-4,1,1,1,14,1,13,1,-16,1,-19,1,-11,1
1613,-2,1,-6,1,-4,1,4,1,1,1,-5,1,1,1,15,1,15,1,-15,1,-18,1,-10,1
1614,-1,1,-5,1,-4,1,3,1,1,1,-5,1,2,1,16,1,16,1,-14,1,-17,1,-11,1
1615,0,1,-5,1,-5,1,2,1,2,1,-5,1,2,1,17,1,17,1,-14,1,-17,1,-11,1
1616,-1,1,-4,1,-3,1,2,1,1,1,-4,1,3,1,18,1,18,1,-12,1,-15,1,-11,1
1617,-2,1,-3,1,-1,1,2,1,-1,1,-2,1,4,1,19,1,19,1,-12,1,-15,1,-11,1
1618,-2,1,-3,1,-1,1,2,1,-1,1,-2,1,3,1,21,1,19,1,-11,1,-15,1,-11,1
1619,-2,1,-2,1,0,1,2,1,-1,1,-1,1,2,1,21,1,20,1,-10,1,-15,1,-11,1
1620,-2,1,-2,1,0,1,2,1,-1,1,-1,1,2,1,21,1,21,1,-9,1,-14,1,-11,1
1621,-1,1,-1,1,0,1,1,1,-1,1,-1,1,2,1,22,1,23,1,-8,1,-13,1,-9,1
1622,-1,1,-1,1,0,1,1,1,-1,1,-1,1,3,1,22,1,24,1,-7,1,-12,1,-8,1
1623,-1,1,-1,1,0,1,1,1,-1,1,-1,1,3,1,23,1,25,1,-6,1,-11,1,-7,1
1624,0,1,-1,1,-1,1,0,1,0,1,-1,1,4,1,24,1,25,1,-6,1,-11,1,-7,1
1625,1,1,-1,1,-2,1,0,1,1,1,-1,1,3,1,25,1,25,1,-6,1,-11,1,-7,1
1626,1,1,-1,1,-2,1,0,1,1,1,-1,1,4,1,26,1,25,1,-6,1,-11,1,-6,1
1627,0,1,-1,1,-1,1,0,1,0,1,-1,1,4,1,27,1,26,1,-5,1,-10,1,-5,1
1628,0,1,-2,1,-2,1,1,1,1,1,-2,1,4,1,28,1,26,1,-5,1,-10,1,-6,1
1629,0,1,-1,1,-1,1,0,1,0,1,-1,1,4,1,28,1,26,1,-3,1,-10,1,-5,1
1630,0,1,-1,1,-1,1,0,1,0,1,-1,1,5,1,29,1,27,1,-2,1,-9,1,-5,1
1631,1,1,0,1,-1,1,0,1,1,1,0,1,5,1,29,1,28,1,-1,1,-8,1,-4,1
1632,2,1,1,1,-1,1,-1,1,2,1,0,1,5,1,30,1,29,1,0,1,-8,1,-3,1
1633,3,1,1,1,-2,1,-2,1,3,1,0,1,5,1,31,1,30,1,0,1,-8,1,-3,1
1634,3,1,1,1,-2,1,-2,1,3,1,0,1,6,1,31,1,31,1,1,1,-8,1,-3,1
1635,2,1,1,1,-1,1,-1,1,2,1,0,1,6,1,32,1,32,1,1,1,-7,1,-3,1
1636,1,1,1,1,0,1,-1,1,1,1,1,1,6,1,33,1,32,1,2,1,-6,1,-3,1
1637,1,1,1,1,0,1,-1,1,1,1,1,1,7,1,34,1,33,1,3,1,-6,1,-2,1
1638,1,1,1,1,0,1,-1,1,1,1,1,1,7,1,34,1,34,1,3,1,-6,1,-2,1
1639,2,1,0,1,-2,1,-1,1,2,1,-1,1,7,1,35,1,34,1,4,1,-6,1,-2,1
1640,3,1,1,1,-2,1,-2,1,3,1,0,1,7,1,35,1,35,1,5,1,-5,1,-1,1
1641,4,1,1,1,-3,1,-2,1,4,1,-1,1,6,1,35,1,35,1,6,1,-5,1,-1,1
1642,4,1,1,1,-3,1,-2,1,4,1,-1,1,6,1,36,1,35,1,6,1,-4,1,0,1
1643,5,1,2,1,-3,1,-3,1,4,1,0,1,7,1,37,1,36,1,7,1,-3,1,0,1
1644,5,1,2,1,-3,1,-3,1,4,1,0,1,6,1,37,1,37,1,8,1,-3,1,0,1
1645,5,1,3,1,-2,1,-4,1,4,1,1,1,6,1,38,1,38,1,8,1,-3,1,1,1
1646,5,1,3,1,-2,1,-4,1,4,1,1,1,6,1,39,1,39,1,9,1,-4,1,1,1
1647,5,1,4,1,-1,1,-4,1,3,1,2,1,6,1,39,1,39,1,9,1,-3,1,1,1
1648,4,1,4,1,0,1,-4,1,2,1,2,1,6,1,41,1,40,1,10,1,-3,1,2,1
1649,5,1,4,1,-1,1,-4,1,3,1,2,1,7,1,42,1,42,1,11,1,-2,1,2,1
1650,6,1,4,1,-2,1,-5,1,4,1,1,1,7,1,44,1,43,1,12,1,-2,1,3,1
1651,8,1,5,1,-3,1,-6,1,6,1,1,1,6,1,44,1,43,1,12,1,-2,1,3,1
1652,8,1,4,1,-4,1,-6,1,6,1,0,1,6,1,46,1,44,1,13,1,-1,1,3,1
1653,9,1,4,1,-5,1,-6,1,7,1,0,1,6,1,48,1,46,1,15,1,0,1,4,1
1654,10,1,4,1,-6,1,-7,1,8,1,-1,1,6,1,48,1,47,1,16,1,1,1,5,1
1655,10,1,4,1,-6,1,-7,1,8,1,-1,1,6,1,49,1,48,1,17,1,2,1,5,1
1656,10,1,4,1,-6,1,-7,1,8,1,-1,1,7,1,50,1,49,1,18,1,2,1,5,1
1657,10,1,5,1,-5,1,-7,1,8,1,0,1,7,1,50,1,50,1,19,1,3,1,6,1
1658,10,1,5,1,-5,1,-7,1,8,1,0,1,7,1,51,1,51,1,19,1,3,1,6,1
1659,12,1,7,1,-5,1,-9,1,9,1,1,1,7,1,51,1,52,1,20,1,3,1,6,1
1660,13,1,6,1,-7,1,-9,1,10,1,0,1,7,1,53,1,53,1,21,1,4,1,7,1
1661,13,1,6,1,-7,1,-9,1,10,1,0,1,7,1,54,1,54,1,22,1,5,1,7,1
1662,13,1,6,1,-7,1,-9,1,10,1,0,1,7,1,56,1,55,1,24,1,6,1,8,1
1663,13,1,6,1,-7,1,-9,1,10,1,0,1,6,1,58,1,57,1,26,1,7,1,8,1
1664,14,1,6,1,-8,1,-10,1,11,1,-1,1,6,1,59,1,58,1,27,1,8,1,9,1
1665,15,1,7,1,-8,1,-11,1,12,1,0,1,6,1,60,1,59,1,28,1,8,1,9,1
1666,16,1,8,1,-8,1,-12,1,12,1,0,1,6,1,61,1,61,1,30,1,9,1,9,1
1667,15,1,9,1,-6,1,-12,1,11,1,2,1,7,1,63,1,63,1,32,1,10,1,10,1
1668,15,1,10,1,-5,1,-12,1,10,1,3,1,7,1,65,1,64,1,33,1,10,1,10,1
1669,16,1,11,1,-5,1,-13,1,11,1,3,1,8,1,67,1,66,1,34,1,11,1,11,1
1670,18,1,11,1,-7,1,-14,1,13,1,2,1,8,1,69,1,67,1,35,1,11,1,12,1
1671,19,1,12,1,-7,1,-15,1,13,1,3,1,8,1,71,1,69,1,37,1,12,1,13,1
1672,21,1,14,1,-7,1,-17,1,14,1,4,1,7,1,73,1,70,1,38,1,14,1,13,1
1673,22,1,15,1,-7,1,-18,1,15,1,4,1,7,1,75,1,72,1,40,1,15,1,14,1
1674,23,1,14,1,-9,1,-18,1,16,1,3,1,8,1,77,1,74,1,42,1,16,1,15,1
1675,24,1,16,1,-8,1,-20,1,16,1,4,1,8,1,78,1,76,1,44,1,18,1,16,1
1676,25,1,17,1,-8,1,-21,1,17,1,5,1,9,1,80,1,78,1,46,1,19,1,17,1
1677,27,1,19,1,-8,1,-23,1,18,1,6,1,9,1,82,1,79,1,49,1,21,1,18,1
1678,27,1,21,1,-6,1,-24,1,17,1,8,1,9,1,83,1,81,1,51,1,21,1,20,1
1679,28,1,21,1,-7,1,-24,1,18,1,7,1,9,1,85,1,83,1,52,1,22,1,21,1
1680,29,1,22,1,-7,1,-25,1,18,1,8,1,9,1,86,1,85,1,54,1,25,1,23,1
1681,30,1,23,1,-7,1,-26,1,19,1,8,1,9,1,88,1,86,1,56,1,27,1,24,1
1682,30,1,24,1,-6,1,-27,1,18,1,9,1,9,1,90,1,88,1,58,1,28,1,26,1
1683,31,1,26,1,-5,1,-28,1,18,1,11,1,9,1,92,1,90,1,59,1,30,1,27,1
1684,33,1,27,1,-6,1,-30,1,20,1,11,1,9,1,93,1,92,1,60,1,31,1,28,1
1685,33,1,28,1,-5,1,-30,1,19,1,12,1,9,1,94,1,94,1,61,1,32,1,29,1
1686,33,1,29,1,-4,1,-31,1,19,1,13,1,9,1,95,1,95,1,62,1,33,1,30,1
1687,34,1,31,1,-3,1,-32,1,19,1,14,1,9,1,96,1,96,1,64,1,34,1,32,1
1688,35,1,30,1,-5,1,-32,1,20,1,13,1,10,1,97,1,96,1,65,1,35,1,33,1
1689,35,1,31,1,-4,1,-33,1,20,1,14,1,9,1,97,1,97,1,66,1,35,1,33,1
1690,36,1,32,1,-4,1,-34,1,20,1,14,1,9,1,98,1,98,1,67,1,35,1,34,1
1691,36,1,33,1,-3,1,-34,1,20,1,15,1,9,1,98,1,99,1,68,1,36,1,35,1
1692,37,1,34,1,-3,1,-35,1,20,1,16,1,9,1,99,1,100,1,68,1,37,1,36,1
1693,40,1,34,1,-6,1,-37,1,23,1,14,1,9,1,99,1,100,1,69,1,38,1,36,1
1694,39,1,35,1,-4,1,-37,1,22,1,16,1,9,1,101,1,101,1,71,1,40,1,37,1
1695,39,1,37,1,-2,1,-38,1,21,1,18,1,8,1,100,1,101,1,72,1,41,1,38,1
1696,39,1,38,1,-1,1,-38,1,20,1,19,1,8,1,99,1,100,1,72,1,41,1,39,1
1697,39,1,39,1,0,1,-39,1,20,1,20,1,7,1,99,1,100,1,72,1,42,1,40,1
1698,39,1,40,1,1,1,-39,1,19,1,21,1,6,1,98,1,98,1,71,1,41,1,41,1
1699,39,1,41,1,2,1,-40,1,19,1,22,1,6,1,98,1,97,1,71,1,41,1,41,1
1700,39,1,42,1,3,1,-40,1,18,1,23,1,6,1,97,1,96,1,70,1,42,1,42,1
1701,39,1,43,1,4,1,-41,1,18,1,24,1,5,1,95,1,94,1,69,1,42,1,43,1
1702,39,1,42,1,3,1,-40,1,18,1,23,1,5,1,94,1,93,1,68,1,42,1,42,1
1703,38,1,42,1,4,1,-40,1,17,1,23,1,5,1,92,1,92,1,67,1,43,1,43,1
1704,37,1,43,1,6,1,-40,1,16,1,25,1,5,1,90,1,91,1,66,1,43,1,43,1
1705,36,1,44,1,8,1,-40,1,14,1,26,1,4,1,88,1,89,1,65,1,42,1,43,1
1706,35,1,43,1,8,1,-39,1,14,1,26,1,4,1,85,1,88,1,65,1,42,1,43,1
1707,33,1,43,1,10,1,-38,1,12,1,27,1,5,1,82,1,86,1,64,1,41,1,43,1
1708,32,1,43,1,11,1,-37,1,11,1,27,1,5,1,79,1,84,1,62,1,41,1,44,1
1709,30,1,42,1,12,1,-36,1,9,1,27,1,5,1,76,1,81,1,60,1,41,1,43,1
1710,28,1,40,1,12,1,-34,1,8,1,26,1,4,1,73,1,78,1,58,1,40,1,42,1
1711,27,1,40,1,13,1,-33,1,7,1,27,1,4,1,71,1,74,1,55,1,39,1,41,1
1712,26,1,38,1,12,1,-32,1,7,1,25,1,4,1,67,1,71,1,52,1,38,1,40,1
1713,24,1,37,1,13,1,-30,1,6,1,25,1,3,1,64,1,68,1,49,1,36,1,39,1
1714,22,1,35,1,13,1,-28,1,5,1,24,1,3,1,59,1,64,1,46,1,34,1,37,1
1715,21,1,34,1,13,1,-27,1,4,1,24,1,3,1,55,1,62,1,44,1,31,1,35,1
1716,19,1,32,1,13,1,-25,1,3,1,23,1,3,1,52,1,59,1,41,1,29,1,33,1
1717,17,1,31,1,14,1,-24,1,2,1,23,1,2,1,49,1,55,1,38,1,27,1,31,1
1718,16,1,30,1,14,1,-23,1,1,1,22,1,1,1,46,1,53,1,35,1,24,1,29,1
1719,15,1,28,1,13,1,-21,1,1,1,21,1,0,1,43,1,50,1,32,1,22,1,26,1
1720,14,1,25,1,11,1,-19,1,2,1,18,1,0,1,40,1,47,1,29,1,20,1,24,1
1721,12,1,23,1,11,1,-17,1,1,1,17,1,0,1,37,1,44,1,27,1,18,1,23,1
1722,9,1,21,1,12,1,-15,1,-1,1,17,1,0,1,34,1,41,1,24,1,16,1,21,1
1723,9,1,19,1,10,1,-14,1,0,1,15,1,0,1,30,1,37,1,21,1,13,1,19,1
1724,7,1,18,1,11,1,-12,1,-2,1,15,1,-1,1,27,1,33,1,18,1,10,1,17,1
1725,6,1,17,1,11,1,-11,1,-2,1,14,1,-1,1,24,1,30,1,14,1,7,1,16,1
1726,5,1,15,1,10,1,-10,1,-2,1,13,1,-1,1,22,1,28,1,11,1,5,1,14,1
1727,3,1,13,1,10,1,-8,1,-3,1,12,1,-1,1,21,1,25,1,9,1,4,1,13,1
1728,1,1,11,1,10,1,-6,1,-4,1,11,1,-1,1,19,1,23,1,8,1,3,1,12,1
1729,0,1,10,1,10,1,-5,1,-5,1,10,1,-2,1,16,1,21,1,6,1,1,1,11,1
1730,-1,1,9,1,10,1,-4,1,-5,1,9,1,-3,1,14,1,19,1,4,1,0,1,9,1
1731,-2,1,9,1,11,1,-3,1,-6,1,10,1,-3,1,12,1,17,1,2,1,-1,1,8,1
1732,-3,1,8,1,11,1,-2,1,-7,1,9,1,-3,1,9,1,15,1,0,1,-2,1,7,1
1733,-3,1,6,1,9,1,-1,1,-6,1,7,1,-2,1,7,1,13,1,0,1,-4,1,6,1
1734,-4,1,6,1,10,1,-1,1,-7,1,8,1,-2,1,6,1,12,1,-2,1,-6,1,5,1
1735,-4,1,4,1,8,1,0,1,-6,1,6,1,-3,1,5,1,10,1,-4,1,-7,1,5,1
1736,-4,1,4,1,8,1,0,1,-6,1,6,1,-3,1,4,1,9,1,-6,1,-6,1,5,1
1737,-5,1,4,1,9,1,0,1,-7,1,6,1,-3,1,2,1,8,1,-7,1,-7,1,5,1
1738,-6,1,3,1,9,1,1,1,-7,1,6,1,-4,1,2,1,7,1,-8,1,-7,1,4,1
1739,-6,1,1,1,7,1,2,1,-6,1,4,1,-4,1,1,1,6,1,-9,1,-9,1,3,1
1740,-6,1,1,1,7,1,2,1,-6,1,4,1,-4,1,0,1,5,1,-10,1,-10,1,2,1
1741,-6,1,1,1,7,1,2,1,-6,1,4,1,-3,1,0,1,5,1,-10,1,-11,1,2,1
1742,-8,1,0,1,8,1,4,1,-8,1,4,1,-3,1,0,1,4,1,-10,1,-11,1,1,1
1743,-8,1,0,1,8,1,4,1,-8,1,4,1,-3,1,-1,1,3,1,-11,1,-12,1,0,1
1744,-9,1,1,1,10,1,4,1,-9,1,5,1,-3,1,-2,1,3,1,-11,1,-12,1,0,1
1745,-9,1,1,1,10,1,4,1,-9,1,5,1,-3,1,-3,1,2,1,-12,1,-12,1,0,1
1746,-9,1,1,1,10,1,4,1,-9,1,5,1,-3,1,-4,1,2,1,-12,1,-12,1,0,1
1747,-9,1,1,1,10,1,4,1,-9,1,5,1,-3,1,-4,1,1,1,-12,1,-12,1,0,1
1748,-9,1,1,1,10,1,4,1,-9,1,5,1,-3,1,-5,1,0,1,-13,1,-12,1,0,1
1749,-9,1,1,1,10,1,4,1,-9,1,5,1,-4,1,-5,1,0,1,-13,1,-12,1,0,1
1750,-9,1,0,1,9,1,4,1,-9,1,4,1,-4,1,-5,1,0,1,-13,1,-12,1,0,1
1751,-9,1,0,1,9,1,4,1,-9,1,4,1,-4,1,-6,1,0,1,-13,1,-12,1,0,1
1752,-10,1,-1,1,9,1,5,1,-10,1,4,1,-4,1,-5,1,0,1,-13,1,-12,1,0,1
1753,-9,1,-1,1,8,1,5,1,-9,1,3,1,-4,1,-5,1,0,1,-13,1,-12,1,0,1
1754,-9,1,-2,1,7,1,5,1,-8,1,2,1,-4,1,-6,1,-1,1,-13,1,-13,1,0,1
1755,-9,1,-2,1,7,1,5,1,-8,1,2,1,-4,1,-7,1,-1,1,-14,1,-14,1,0,1
1756,-9,1,-2,1,7,1,5,1,-8,1,2,1,-4,1,-7,1,-2,1,-14,1,-14,1,-1,1
1757,-9,1,-2,1,7,1,5,1,-8,1,2,1,-3,1,-8,1,-2,1,-14,1,-15,1,-1,1
1758,-10,1,-2,1,8,1,6,1,-9,1,3,1,-3,1,-8,1,-2,1,-14,1,-15,1,-2,1
1759,-10,1,-3,1,7,1,6,1,-9,1,2,1,-3,1,-8,1,-2,1,-15,1,-15,1,-2,1
1760,-11,1,-2,1,9,1,6,1,-10,1,3,1,-4,1,-8,1,-3,1,-15,1,-16,1,-3,1
1761,-11,1,-1,1,10,1,6,1,-11,1,4,1,-5,1,-8,1,-3,1,-15,1,-16,1,-2,1
1762,-11,1,-1,1,10,1,6,1,-11,1,4,1,-5,1,-8,1,-3,1,-15,1,-16,1,-2,1
1763,-10,1,-2,1,8,1,6,1,-9,1,3,1,-5,1,-8,1,-3,1,-14,1,-15,1,-1,1
1764,-9,1,-1,1,8,1,5,1,-9,1,3,1,-5,1,-8,1,-3,1,-15,1,-15,1,-1,1
1765,-9,1,-1,1,8,1,5,1,-9,1,3,1,-5,1,-9,1,-4,1,-15,1,-15,1,-2,1
1766,-9,1,-2,1,7,1,5,1,-8,1,2,1,-5,1,-9,1,-3,1,-16,1,-15,1,-2,1
1767,-8,1,-2,1,6,1,5,1,-7,1,2,1,-5,1,-9,1,-3,1,-16,1,-15,1,-2,1
1768,-8,1,-2,1,6,1,5,1,-7,1,2,1,-5,1,-10,1,-4,1,-16,1,-15,1,-2,1
1769,-8,1,-2,1,6,1,5,1,-7,1,2,1,-6,1,-9,1,-3,1,-15,1,-15,1,-2,1
1770,-8,1,-2,1,6,1,5,1,-7,1,2,1,-6,1,-9,1,-3,1,-15,1,-16,1,-2,1
1771,-8,1,-2,1,6,1,5,1,-7,1,2,1,-6,1,-9,1,-3,1,-15,1,-16,1,-2,1
1772,-8,1,-2,1,6,1,5,1,-7,1,2,1,-6,1,-8,1,-3,1,-16,1,-15,1,-2,1
1773,-8,1,-2,1,6,1,5,1,-7,1,2,1,-5,1,-8,1,-4,1,-16,1,-15,1,-2,1
1774,-8,1,-2,1,6,1,5,1,-7,1,2,1,-5,1,-8,1,-4,1,-16,1,-15,1,-2,1
1775,-8,1,-1,1,7,1,4,1,-8,1,3,1,-4,1,-8,1,-4,1,-16,1,-15,1,-1,1
1776,-9,1,0,1,9,1,4,1,-9,1,4,1,-4,1,-8,1,-4,1,-16,1,-14,1,-1,1
1777,-9,1,0,1,9,1,4,1,-9,1,4,1,-4,1,-8,1,-4,1,-15,1,-14,1,0,1
1778,-8,1,-1,1,7,1,4,1,-8,1,3,1,-4,1,-8,1,-4,1,-15,1,-14,1,0,1
1779,-8,1,-2,1,6,1,5,1,-7,1,2,1,-4,1,-7,1,-4,1,-15,1,-15,1,-1,1
1780,-8,1,-2,1,6,1,5,1,-7,1,2,1,-4,1,-7,1,-3,1,-14,1,-15,1,-1,1
1781,-8,1,-2,1,6,1,5,1,-7,1,2,1,-4,1,-7,1,-3,1,-14,1,-15,1,-1,1
1782,-9,1,-1,1,8,1,5,1,-9,1,3,1,-4,1,-6,1,-2,1,-14,1,-15,1,-1,1
1783,-9,1,-1,1,8,1,5,1,-9,1,3,1,-5,1,-7,1,-2,1,-14,1,-15,1,-1,1
1784,-9,1,-1,1,8,1,5,1,-9,1,3,1,-4,1,-7,1,-3,1,-14,1,-16,1,-2,1
1785,-9,1,-1,1,8,1,5,1,-9,1,3,1,-4,1,-7,1,-2,1,-14,1,-16,1,-2,1
1786,-10,1,0,1,10,1,5,1,-10,1,5,1,-4,1,-7,1,-2,1,-14,1,-15,1,-2,1
1787,-10,1,0,1,10,1,5,1,-10,1,5,1,-4,1,-6,1,-3,1,-14,1,-15,1,-2,1
1788,-10,1,0,1,10,1,5,1,-10,1,5,1,-4,1,-6,1,-3,1,-14,1,-15,1,-2,1
1789,-9,1,-1,1,8,1,5,1,-9,1,3,1,-4,1,-6,1,-2,1,-13,1,-14,1,-2,1
1790,-9,1,-2,1,7,1,5,1,-8,1,2,1,-4,1,-5,1,-2,1,-12,1,-14,1,-2,1
1791,-9,1,-2,1,7,1,5,1,-8,1,2,1,-4,1,-6,1,-2,1,-12,1,-14,1,-2,1
1792,-9,1,-2,1,7,1,5,1,-8,1,2,1,-4,1,-7,1,-1,1,-12,1,-15,1,-3,1
1793,-9,1,-2,1,7,1,5,1,-8,1,2,1,-3,1,-6,1,0,1,-11,1,-15,1,-2,1
1794,-10,1,-2,1,8,1,6,1,-9,1,3,1,-3,1,-5,1,0,1,-11,1,-14,1,-2,1
1795,-10,1,-2,1,8,1,6,1,-9,1,3,1,-3,1,-4,1,0,1,-11,1,-14,1,-1,1
1796,-9,1,-1,1,8,1,5,1,-9,1,3,1,-3,1,-4,1,0,1,-10,1,-13,1,-1,1
1797,-8,1,-1,1,7,1,4,1,-8,1,3,1,-4,1,-4,1,0,1,-10,1,-13,1,-1,1
1798,-8,1,-1,1,7,1,4,1,-8,1,3,1,-4,1,-3,1,0,1,-10,1,-14,1,-1,1
1799,-8,1,0,1,8,1,4,1,-8,1,4,1,-5,1,-3,1,0,1,-10,1,-14,1,-1,1
1800,-8,1,0,1,8,1,4,1,-8,1,4,1,-5,1,-2,1,0,1,-10,1,-13,1,-1,1
1801,-8,1,1,1,9,1,3,1,-8,1,5,1,-6,1,-2,1,1,1,-10,1,-13,1,0,1
1802,-7,1,1,1,8,1,3,1,-7,1,4,1,-5,1,-3,1,1,1,-10,1,-13,1,0,1
1803,-7,1,1,1,8,1,3,1,-7,1,4,1,-4,1,-4,1,1,1,-9,1,-12,1,0,1
1804,-8,1,1,1,9,1,3,1,-8,1,5,1,-3,1,-4,1,1,1,-8,1,-11,1,0,1
1805,-8,1,0,1,8,1,4,1,-8,1,4,1,-3,1,-4,1,2,1,-8,1,-11,1,0,1
1806,-7,1,0,1,7,1,3,1,-7,1,3,1,-4,1,-4,1,2,1,-7,1,-11,1,0,1
1807,-7,1,1,1,8,1,3,1,-7,1,4,1,-5,1,-4,1,1,1,-8,1,-11,1,-1,1
1808,-7,1,1,1,8,1,3,1,-7,1,4,1,-6,1,-4,1,1,1,-9,1,-11,1,-1,1
1809,-7,1,1,1,8,1,3,1,-7,1,4,1,-6,1,-4,1,1,1,-8,1,-11,1,-1,1
1810,-6,1,0,1,6,1,3,1,-6,1,3,1,-6,1,-4,1,1,1,-8,1,-11,1,-1,1
1811,-6,1,0,1,6,1,3,1,-6,1,3,1,-5,1,-4,1,1,1,-7,1,-11,1,-1,1
1812,-6,1,-1,1,5,1,3,1,-6,1,2,1,-5,1,-5,1,1,1,-7,1,-11,1,-1,1
1813,-6,1,0,1,6,1,3,1,-6,1,3,1,-4,1,-4,1,1,1,-7,1,-11,1,-1,1
1814,-6,1,0,1,6,1,3,1,-6,1,3,1,-4,1,-4,1,1,1,-8,1,-12,1,-1,1
1815,-6,1,1,1,7,1,2,1,-6,1,4,1,-4,1,-4,1,2,1,-8,1,-12,1,-1,1
1816,-7,1,1,1,8,1,3,1,-7,1,4,1,-4,1,-4,1,3,1,-8,1,-12,1,0,1
1817,-7,1,0,1,7,1,3,1,-7,1,3,1,-4,1,-4,1,3,1,-8,1,-12,1,0,1
1818,-7,1,0,1,7,1,3,1,-7,1,3,1,-5,1,-5,1,3,1,-7,1,-12,1,0,1
1819,-7,1,-1,1,6,1,4,1,-7,1,2,1,-5,1,-4,1,3,1,-8,1,-12,1,0,1
1820,-6,1,-1,1,5,1,3,1,-6,1,2,1,-5,1,-4,1,2,1,-8,1,-12,1,1,1
1821,-6,1,0,1,6,1,3,1,-6,1,3,1,-5,1,-5,1,2,1,-8,1,-12,1,1,1
1822,-6,1,0,1,6,1,3,1,-6,1,3,1,-5,1,-5,1,2,1,-8,1,-12,1,1,1
1823,-6,1,0,1,6,1,3,1,-6,1,3,1,-6,1,-5,1,2,1,-8,1,-12,1,0,1
1824,-6,1,0,1,6,1,3,1,-6,1,3,1,-6,1,-4,1,2,1,-8,1,-12,1,1,1
1825,-6,1,0,1,6,1,3,1,-6,1,3,1,-6,1,-4,1,2,1,-8,1,-11,1,1,1
1826,-6,1,1,1,7,1,2,1,-6,1,4,1,-6,1,-4,1,3,1,-8,1,-11,1,0,1
1827,-6,1,0,1,6,1,3,1,-6,1,3,1,-6,1,-4,1,2,1,-7,1,-11,1,0,1
1828,-5,1,0,1,5,1,2,1,-5,1,2,1,-6,1,-4,1,2,1,-7,1,-11,1,0,1
1829,-5,1,0,1,5,1,2,1,-5,1,2,1,-7,1,-4,1,2,1,-7,1,-11,1,0,1
1830,-6,1,-1,1,5,1,3,1,-6,1,2,1,-7,1,-3,1,2,1,-7,1,-11,1,0,1
1831,-7,1,-1,1,6,1,4,1,-7,1,2,1,-7,1,-4,1,2,1,-7,1,-12,1,0,1
1832,-7,1,-2,1,5,1,4,1,-6,1,1,1,-7,1,-4,1,2,1,-7,1,-12,1,0,1
1833,-6,1,-2,1,4,1,4,1,-5,1,1,1,-7,1,-4,1,2,1,-8,1,-12,1,0,1
1834,-6,1,-2,1,4,1,4,1,-5,1,1,1,-7,1,-4,1,2,1,-8,1,-11,1,0,1
1835,-6,1,-1,1,5,1,3,1,-6,1,2,1,-7,1,-5,1,1,1,-8,1,-10,1,0,1
1836,-7,1,-1,1,6,1,4,1,-7,1,2,1,-7,1,-6,1,1,1,-8,1,-10,1,0,1
1837,-6,1,0,1,6,1,3,1,-6,1,3,1,-7,1,-6,1,0,1,-8,1,-10,1,0,1
1838,-7,1,0,1,7,1,3,1,-7,1,3,1,-7,1,-6,1,0,1,-8,1,-9,1,0,1
1839,-6,1,-1,1,5,1,3,1,-6,1,2,1,-6,1,-6,1,0,1,-8,1,-9,1,1,1
1840,-6,1,-1,1,5,1,3,1,-6,1,2,1,-6,1,-6,1,0,1,-7,1,-9,1,0,1
1841,-7,1,-2,1,5,1,4,1,-6,1,1,1,-6,1,-6,1,0,1,-7,1,-10,1,0,1
1842,-8,1,-2,1,6,1,5,1,-7,1,2,1,-5,1,-6,1,0,1,-8,1,-9,1,0,1
1843,-7,1,-2,1,5,1,4,1,-6,1,1,1,-6,1,-7,1,0,1,-8,1,-10,1,-1,1
1844,-6,1,-2,1,4,1,4,1,-5,1,1,1,-6,1,-7,1,-1,1,-8,1,-10,1,0,1
1845,-6,1,-3,1,3,1,4,1,-5,1,0,1,-6,1,-7,1,-1,1,-8,1,-10,1,0,1
1846,-6,1,-4,1,2,1,5,1,-4,1,-1,1,-7,1,-7,1,-1,1,-8,1,-9,1,0,1
1847,-7,1,-4,1,3,1,5,1,-5,1,-1,1,-7,1,-7,1,-1,1,-8,1,-9,1,0,1
