TS,I,If,II,IIf,III,IIIf,aVR,aVRf,aVL,aVLf,aVF,aVFf,V1,V1f,V2,V2f,V3,V3f,V4,V4f,V5,V5f,V6,V6f
1,-5,1,-17,1,-12,1,11,1,3,1,-15,1,-1,1,-7,1,2,1,-26,1,-67,1,-34,1
2,-5,1,-16,1,-11,1,10,1,3,1,-14,1,-1,1,-6,1,1,1,-25,1,-66,1,-34,1
3,-5,1,-16,1,-11,1,10,1,3,1,-14,1,-1,1,-6,1,1,1,-24,1,-66,1,-34,1
4,-4,1,-15,1,-11,1,9,1,3,1,-13,1,-1,1,-6,1,2,1,-23,1,-65,1,-33,1
5,-2,1,-13,1,-11,1,7,1,4,1,-12,1,0,1,-6,1,3,1,-21,1,-64,1,-32,1
6,-2,1,-11,1,-9,1,6,1,3,1,-10,1,0,1,-6,1,3,1,-21,1,-64,1,-32,1
7,-2,1,-10,1,-8,1,6,1,3,1,-9,1,0,1,-5,1,4,1,-20,1,-63,1,-32,1
8,-2,1,-8,1,-6,1,5,1,2,1,-7,1,1,1,-5,1,4,1,-19,1,-62,1,-31,1
9,-2,1,-8,1,-6,1,5,1,2,1,-7,1,2,1,-4,1,5,1,-18,1,-60,1,-30,1
10,-1,1,-8,1,-7,1,4,1,3,1,-8,1,3,1,-2,1,6,1,-18,1,-59,1,-30,1
11,-1,1,-8,1,-7,1,4,1,3,1,-8,1,4,1,-1,1,8,1,-17,1,-59,1,-29,1
12,0,1,-9,1,-9,1,4,1,4,1,-9,1,4,1,-1,1,8,1,-16,1,-58,1,-29,1
13,0,1,-9,1,-9,1,4,1,4,1,-9,1,3,1,-1,1,8,1,-17,1,-58,1,-29,1
14,1,1,-8,1,-9,1,3,1,5,1,-8,1,2,1,-1,1,8,1,-18,1,-57,1,-29,1
15,1,1,-7,1,-8,1,3,1,4,1,-7,1,2,1,-1,1,7,1,-17,1,-57,1,-29,1
16,1,1,-6,1,-7,1,2,1,4,1,-6,1,2,1,-1,1,8,1,-17,1,-57,1,-29,1
17,2,1,-6,1,-8,1,2,1,5,1,-7,1,2,1,0,1,9,1,-17,1,-55,1,-28,1
18,2,1,-5,1,-7,1,1,1,4,1,-6,1,1,1,1,1,10,1,-16,1,-56,1,-28,1
19,2,1,-5,1,-7,1,1,1,4,1,-6,1,1,1,2,1,11,1,-15,1,-55,1,-27,1
20,2,1,-5,1,-7,1,1,1,4,1,-6,1,0,1,4,1,11,1,-15,1,-55,1,-27,1
21,4,1,-4,1,-8,1,0,1,6,1,-6,1,0,1,5,1,12,1,-16,1,-54,1,-26,1
22,4,1,-4,1,-8,1,0,1,6,1,-6,1,0,1,5,1,14,1,-15,1,-53,1,-26,1
23,3,1,-3,1,-6,1,0,1,4,1,-4,1,0,1,5,1,14,1,-15,1,-54,1,-26,1
24,3,1,-3,1,-6,1,0,1,4,1,-4,1,0,1,5,1,15,1,-15,1,-53,1,-26,1
25,4,1,-3,1,-7,1,0,1,5,1,-5,1,-1,1,4,1,15,1,-14,1,-53,1,-26,1
26,4,1,-2,1,-6,1,-1,1,5,1,-4,1,-3,1,4,1,14,1,-14,1,-53,1,-26,1
27,4,1,-1,1,-5,1,-1,1,4,1,-3,1,-3,1,3,1,14,1,-15,1,-53,1,-25,1
28,5,1,-1,1,-6,1,-2,1,5,1,-3,1,-4,1,2,1,13,1,-14,1,-53,1,-25,1
29,5,1,0,1,-5,1,-2,1,5,1,-2,1,-6,1,1,1,13,1,-14,1,-52,1,-25,1
30,7,1,0,1,-7,1,-3,1,7,1,-3,1,-8,1,0,1,11,1,-14,1,-51,1,-25,1
31,7,1,1,1,-6,1,-4,1,7,1,-2,1,-10,1,-1,1,10,1,-13,1,-50,1,-24,1
32,8,1,2,1,-6,1,-5,1,7,1,-2,1,-12,1,-1,1,10,1,-13,1,-49,1,-24,1
33,9,1,3,1,-6,1,-6,1,8,1,-1,1,-14,1,-3,1,9,1,-13,1,-49,1,-23,1
34,11,1,3,1,-8,1,-7,1,10,1,-2,1,-16,1,-5,1,7,1,-14,1,-49,1,-23,1
35,12,1,3,1,-9,1,-7,1,11,1,-3,1,-17,1,-7,1,6,1,-16,1,-50,1,-23,1
36,13,1,2,1,-11,1,-7,1,12,1,-4,1,-19,1,-8,1,3,1,-17,1,-51,1,-24,1
37,13,1,1,1,-12,1,-7,1,13,1,-5,1,-20,1,-9,1,2,1,-18,1,-51,1,-25,1
38,13,1,0,1,-13,1,-6,1,13,1,-6,1,-20,1,-9,1,2,1,-19,1,-52,1,-25,1
39,12,1,0,1,-12,1,-6,1,12,1,-6,1,-20,1,-9,1,1,1,-20,1,-53,1,-26,1
40,13,1,-1,1,-14,1,-6,1,13,1,-7,1,-19,1,-9,1,1,1,-21,1,-54,1,-25,1
41,13,1,-3,1,-16,1,-5,1,14,1,-9,1,-19,1,-9,1,0,1,-21,1,-54,1,-25,1
42,13,1,-3,1,-16,1,-5,1,14,1,-9,1,-18,1,-10,1,1,1,-22,1,-54,1,-25,1
43,12,1,-6,1,-18,1,-3,1,15,1,-12,1,-16,1,-9,1,1,1,-22,1,-54,1,-24,1
44,13,1,-6,1,-19,1,-3,1,16,1,-12,1,-14,1,-8,1,2,1,-23,1,-53,1,-23,1
45,12,1,-7,1,-19,1,-2,1,15,1,-13,1,-13,1,-8,1,1,1,-22,1,-53,1,-23,1
46,12,1,-7,1,-19,1,-2,1,15,1,-13,1,-12,1,-8,1,0,1,-22,1,-54,1,-24,1
47,11,1,-7,1,-18,1,-2,1,14,1,-12,1,-11,1,-8,1,-1,1,-23,1,-53,1,-25,1
48,9,1,-7,1,-16,1,-1,1,12,1,-11,1,-10,1,-8,1,-2,1,-23,1,-53,1,-25,1
49,8,1,-8,1,-16,1,0,1,12,1,-12,1,-9,1,-8,1,0,1,-23,1,-53,1,-26,1
50,6,1,-10,1,-16,1,2,1,11,1,-13,1,-9,1,-8,1,0,1,-23,1,-55,1,-28,1
51,4,1,-12,1,-16,1,4,1,10,1,-14,1,-7,1,-8,1,0,1,-24,1,-56,1,-29,1
52,3,1,-15,1,-18,1,6,1,10,1,-16,1,-6,1,-8,1,0,1,-24,1,-57,1,-30,1
53,2,1,-18,1,-20,1,8,1,11,1,-19,1,-5,1,-10,1,0,1,-25,1,-58,1,-33,1
54,0,1,-19,1,-19,1,9,1,9,1,-19,1,-4,1,-11,1,0,1,-26,1,-60,1,-34,1
55,-2,1,-21,1,-19,1,11,1,8,1,-20,1,-4,1,-11,1,-2,1,-28,1,-61,1,-35,1
56,-4,1,-22,1,-18,1,13,1,7,1,-20,1,-4,1,-11,1,-4,1,-31,1,-63,1,-36,1
57,-5,1,-22,1,-17,1,13,1,6,1,-20,1,-4,1,-11,1,-6,1,-32,1,-64,1,-37,1
58,-6,1,-23,1,-17,1,14,1,5,1,-20,1,-4,1,-12,1,-7,1,-33,1,-65,1,-38,1
59,-6,1,-23,1,-17,1,14,1,5,1,-20,1,-4,1,-13,1,-8,1,-34,1,-67,1,-39,1
60,-7,1,-23,1,-16,1,15,1,4,1,-20,1,-5,1,-13,1,-8,1,-34,1,-68,1,-40,1
61,-7,1,-24,1,-17,1,15,1,5,1,-21,1,-5,1,-13,1,-8,1,-33,1,-68,1,-41,1
62,-7,1,-25,1,-18,1,16,1,5,1,-22,1,-5,1,-13,1,-9,1,-33,1,-68,1,-42,1
63,-7,1,-25,1,-18,1,16,1,5,1,-22,1,-5,1,-13,1,-9,1,-34,1,-70,1,-43,1
64,-8,1,-26,1,-18,1,17,1,5,1,-22,1,-5,1,-13,1,-9,1,-35,1,-71,1,-43,1
65,-7,1,-27,1,-20,1,17,1,6,1,-24,1,-5,1,-14,1,-9,1,-35,1,-71,1,-43,1
66,-7,1,-28,1,-21,1,17,1,7,1,-25,1,-5,1,-14,1,-9,1,-36,1,-71,1,-45,1
67,-7,1,-28,1,-21,1,17,1,7,1,-25,1,-5,1,-13,1,-10,1,-37,1,-71,1,-45,1
68,-8,1,-29,1,-21,1,18,1,6,1,-25,1,-4,1,-13,1,-10,1,-37,1,-71,1,-45,1
69,-8,1,-29,1,-21,1,18,1,6,1,-25,1,-4,1,-12,1,-10,1,-38,1,-72,1,-46,1
70,-8,1,-29,1,-21,1,18,1,6,1,-25,1,-4,1,-12,1,-9,1,-38,1,-71,1,-46,1
71,-8,1,-29,1,-21,1,18,1,6,1,-25,1,-4,1,-12,1,-10,1,-37,1,-72,1,-45,1
72,-8,1,-29,1,-21,1,18,1,6,1,-25,1,-4,1,-12,1,-10,1,-37,1,-71,1,-44,1
73,-9,1,-30,1,-21,1,19,1,6,1,-26,1,-3,1,-12,1,-10,1,-37,1,-70,1,-45,1
74,-9,1,-30,1,-21,1,19,1,6,1,-26,1,-3,1,-12,1,-10,1,-37,1,-70,1,-44,1
75,-9,1,-31,1,-22,1,20,1,6,1,-27,1,-3,1,-13,1,-10,1,-37,1,-70,1,-45,1
76,-9,1,-31,1,-22,1,20,1,6,1,-27,1,-3,1,-13,1,-11,1,-38,1,-71,1,-45,1
77,-9,1,-31,1,-22,1,20,1,6,1,-27,1,-3,1,-13,1,-12,1,-39,1,-71,1,-46,1
78,-9,1,-31,1,-22,1,20,1,6,1,-27,1,-2,1,-13,1,-12,1,-39,1,-72,1,-47,1
79,-9,1,-32,1,-23,1,20,1,7,1,-28,1,-2,1,-12,1,-12,1,-39,1,-73,1,-48,1
80,-10,1,-33,1,-23,1,21,1,6,1,-28,1,-1,1,-11,1,-12,1,-40,1,-72,1,-48,1
81,-10,1,-33,1,-23,1,21,1,6,1,-28,1,-1,1,-11,1,-12,1,-39,1,-71,1,-48,1
82,-11,1,-33,1,-22,1,22,1,5,1,-28,1,-1,1,-11,1,-13,1,-39,1,-72,1,-48,1
83,-11,1,-33,1,-22,1,22,1,5,1,-28,1,0,1,-11,1,-13,1,-39,1,-71,1,-48,1
84,-11,1,-33,1,-22,1,22,1,5,1,-28,1,-1,1,-12,1,-13,1,-40,1,-70,1,-48,1
85,-10,1,-33,1,-23,1,21,1,6,1,-28,1,-1,1,-12,1,-13,1,-39,1,-70,1,-49,1
86,-10,1,-32,1,-22,1,21,1,6,1,-27,1,-1,1,-12,1,-14,1,-39,1,-70,1,-49,1
87,-10,1,-32,1,-22,1,21,1,6,1,-27,1,-2,1,-12,1,-13,1,-40,1,-70,1,-49,1
88,-10,1,-32,1,-22,1,21,1,6,1,-27,1,-2,1,-12,1,-12,1,-39,1,-71,1,-50,1
89,-10,1,-31,1,-21,1,20,1,5,1,-26,1,-2,1,-12,1,-12,1,-39,1,-72,1,-50,1
90,-10,1,-31,1,-21,1,20,1,5,1,-26,1,-3,1,-12,1,-12,1,-39,1,-72,1,-49,1
91,-9,1,-31,1,-22,1,20,1,6,1,-27,1,-2,1,-11,1,-11,1,-39,1,-72,1,-49,1
92,-9,1,-31,1,-22,1,20,1,6,1,-27,1,-2,1,-11,1,-11,1,-38,1,-72,1,-49,1
93,-9,1,-32,1,-23,1,20,1,7,1,-28,1,-2,1,-11,1,-11,1,-39,1,-71,1,-48,1
94,-9,1,-32,1,-23,1,20,1,7,1,-28,1,-1,1,-11,1,-11,1,-40,1,-71,1,-48,1
95,-9,1,-31,1,-22,1,20,1,6,1,-27,1,-1,1,-11,1,-12,1,-39,1,-71,1,-48,1
96,-10,1,-31,1,-21,1,20,1,5,1,-26,1,0,1,-11,1,-12,1,-39,1,-71,1,-48,1
97,-10,1,-30,1,-20,1,20,1,5,1,-25,1,0,1,-12,1,-12,1,-39,1,-72,1,-48,1
98,-10,1,-30,1,-20,1,20,1,5,1,-25,1,0,1,-12,1,-12,1,-39,1,-72,1,-48,1
99,-10,1,-31,1,-21,1,20,1,5,1,-26,1,0,1,-12,1,-12,1,-38,1,-72,1,-47,1
100,-10,1,-31,1,-21,1,20,1,5,1,-26,1,0,1,-12,1,-12,1,-39,1,-72,1,-47,1
101,-10,1,-31,1,-21,1,20,1,5,1,-26,1,0,1,-11,1,-12,1,-39,1,-72,1,-47,1
102,-11,1,-32,1,-21,1,21,1,5,1,-27,1,0,1,-10,1,-12,1,-40,1,-73,1,-48,1
103,-11,1,-35,1,-24,1,23,1,6,1,-30,1,1,1,-8,1,-12,1,-43,1,-75,1,-50,1
104,-12,1,-37,1,-25,1,24,1,6,1,-31,1,2,1,-5,1,-12,1,-46,1,-78,1,-53,1
105,-12,1,-40,1,-28,1,26,1,8,1,-34,1,4,1,2,1,-11,1,-49,1,-82,1,-58,1
106,-13,1,-41,1,-28,1,27,1,7,1,-35,1,9,1,17,1,-9,1,-52,1,-89,1,-64,1
107,-14,1,-44,1,-30,1,29,1,8,1,-37,1,17,1,39,1,-3,1,-55,1,-95,1,-70,1
108,-17,1,-47,1,-30,1,32,1,6,1,-39,1,28,1,68,1,3,1,-58,1,-101,1,-76,1
109,-19,1,-50,1,-31,1,34,1,6,1,-41,1,41,1,101,1,13,1,-61,1,-110,1,-82,1
110,-20,1,-53,1,-33,1,36,1,6,1,-43,1,57,1,137,1,27,1,-63,1,-116,1,-87,1
111,-20,1,-54,1,-34,1,37,1,7,1,-44,1,77,1,173,1,48,1,-60,1,-118,1,-88,1
112,-19,1,-52,1,-33,1,35,1,7,1,-43,1,96,1,209,1,76,1,-52,1,-114,1,-86,1
113,-17,1,-48,1,-31,1,32,1,7,1,-40,1,114,1,247,1,111,1,-36,1,-100,1,-77,1
114,-9,1,-39,1,-30,1,24,1,10,1,-35,1,129,1,283,1,152,1,-8,1,-77,1,-63,1
115,4,1,-22,1,-26,1,9,1,15,1,-24,1,135,1,313,1,197,1,34,1,-39,1,-38,1
116,24,1,0,1,-24,1,-12,1,24,1,-12,1,133,1,327,1,239,1,89,1,13,1,-4,1
117,49,1,30,1,-19,1,-39,1,34,1,6,1,122,1,324,1,277,1,154,1,79,1,38,1
118,72,1,66,1,-6,1,-69,1,39,1,30,1,105,1,306,1,310,1,227,1,152,1,88,1
119,93,1,102,1,9,1,-97,1,42,1,56,1,88,1,276,1,339,1,301,1,226,1,141,1
120,103,1,136,1,33,1,-119,1,35,1,85,1,75,1,233,1,360,1,367,1,293,1,190,1
121,107,1,163,1,56,1,-135,1,26,1,110,1,60,1,176,1,369,1,418,1,350,1,232,1
122,108,1,183,1,75,1,-145,1,17,1,129,1,35,1,105,1,358,1,449,1,390,1,268,1
123,108,1,192,1,84,1,-150,1,12,1,138,1,4,1,23,1,330,1,456,1,410,1,291,1
124,106,1,191,1,85,1,-148,1,11,1,138,1,-30,1,-62,1,284,1,433,1,405,1,298,1
125,101,1,183,1,82,1,-142,1,10,1,133,1,-62,1,-143,1,222,1,383,1,374,1,288,1
126,92,1,172,1,80,1,-132,1,6,1,126,1,-85,1,-211,1,146,1,312,1,315,1,260,1
127,78,1,157,1,79,1,-117,1,0,1,118,1,-100,1,-264,1,64,1,228,1,242,1,221,1
128,64,1,140,1,76,1,-102,1,-6,1,108,1,-111,1,-304,1,-18,1,144,1,169,1,179,1
129,47,1,127,1,80,1,-87,1,-16,1,104,1,-115,1,-330,1,-88,1,70,1,105,1,141,1
130,29,1,114,1,85,1,-71,1,-28,1,100,1,-114,1,-344,1,-143,1,13,1,50,1,106,1
131,12,1,102,1,90,1,-57,1,-39,1,96,1,-112,1,-346,1,-178,1,-32,1,6,1,77,1
132,-2,1,88,1,90,1,-43,1,-46,1,89,1,-110,1,-338,1,-193,1,-64,1,-28,1,52,1
133,-11,1,73,1,84,1,-31,1,-47,1,78,1,-108,1,-322,1,-191,1,-84,1,-54,1,32,1
134,-16,1,57,1,73,1,-20,1,-44,1,65,1,-104,1,-298,1,-179,1,-94,1,-71,1,15,1
135,-18,1,44,1,62,1,-13,1,-40,1,53,1,-98,1,-268,1,-162,1,-94,1,-79,1,1,1
136,-17,1,34,1,51,1,-8,1,-34,1,42,1,-88,1,-235,1,-143,1,-89,1,-79,1,-6,1
137,-15,1,30,1,45,1,-7,1,-30,1,37,1,-73,1,-198,1,-125,1,-81,1,-74,1,-10,1
138,-15,1,25,1,40,1,-5,1,-27,1,32,1,-58,1,-160,1,-108,1,-71,1,-70,1,-13,1
139,-15,1,21,1,36,1,-3,1,-25,1,28,1,-43,1,-126,1,-92,1,-64,1,-68,1,-14,1
140,-15,1,17,1,32,1,-1,1,-23,1,24,1,-30,1,-98,1,-76,1,-58,1,-67,1,-16,1
141,-14,1,11,1,25,1,1,1,-19,1,18,1,-23,1,-78,1,-62,1,-55,1,-69,1,-19,1
142,-14,1,3,1,17,1,5,1,-15,1,10,1,-21,1,-67,1,-50,1,-53,1,-72,1,-23,1
143,-14,1,-4,1,10,1,9,1,-12,1,3,1,-20,1,-64,1,-41,1,-51,1,-74,1,-28,1
144,-14,1,-10,1,4,1,12,1,-9,1,-3,1,-20,1,-62,1,-33,1,-49,1,-75,1,-33,1
145,-15,1,-15,1,0,1,15,1,-8,1,-8,1,-19,1,-60,1,-28,1,-46,1,-75,1,-37,1
146,-15,1,-17,1,-2,1,16,1,-7,1,-10,1,-16,1,-56,1,-28,1,-45,1,-74,1,-37,1
147,-15,1,-16,1,-1,1,15,1,-7,1,-9,1,-12,1,-50,1,-28,1,-43,1,-72,1,-37,1
148,-15,1,-15,1,0,1,15,1,-8,1,-8,1,-7,1,-41,1,-29,1,-43,1,-72,1,-36,1
149,-16,1,-15,1,1,1,15,1,-9,1,-7,1,-3,1,-33,1,-28,1,-43,1,-71,1,-35,1
150,-16,1,-15,1,1,1,15,1,-9,1,-7,1,-1,1,-27,1,-27,1,-42,1,-72,1,-35,1
151,-16,1,-17,1,-1,1,16,1,-8,1,-9,1,-1,1,-23,1,-25,1,-42,1,-73,1,-35,1
152,-17,1,-18,1,-1,1,17,1,-8,1,-10,1,-2,1,-23,1,-23,1,-42,1,-74,1,-37,1
153,-17,1,-20,1,-3,1,18,1,-7,1,-12,1,-3,1,-26,1,-22,1,-42,1,-74,1,-39,1
154,-16,1,-20,1,-4,1,18,1,-6,1,-12,1,-3,1,-29,1,-21,1,-42,1,-76,1,-40,1
155,-16,1,-21,1,-5,1,18,1,-6,1,-13,1,-4,1,-29,1,-21,1,-43,1,-77,1,-41,1
156,-16,1,-21,1,-5,1,18,1,-6,1,-13,1,-3,1,-28,1,-21,1,-44,1,-77,1,-42,1
157,-16,1,-21,1,-5,1,18,1,-6,1,-13,1,-2,1,-25,1,-20,1,-45,1,-78,1,-42,1
158,-17,1,-22,1,-5,1,19,1,-6,1,-14,1,-1,1,-23,1,-20,1,-45,1,-78,1,-43,1
159,-18,1,-22,1,-4,1,20,1,-7,1,-13,1,0,1,-21,1,-19,1,-45,1,-78,1,-43,1
160,-18,1,-22,1,-4,1,20,1,-7,1,-13,1,1,1,-20,1,-19,1,-44,1,-76,1,-43,1
161,-18,1,-22,1,-4,1,20,1,-7,1,-13,1,1,1,-19,1,-19,1,-43,1,-75,1,-43,1
162,-18,1,-23,1,-5,1,20,1,-7,1,-14,1,2,1,-19,1,-19,1,-43,1,-74,1,-43,1
163,-18,1,-23,1,-5,1,20,1,-7,1,-14,1,2,1,-19,1,-18,1,-43,1,-74,1,-43,1
164,-17,1,-24,1,-7,1,20,1,-5,1,-16,1,1,1,-20,1,-17,1,-42,1,-74,1,-43,1
165,-17,1,-24,1,-7,1,20,1,-5,1,-16,1,1,1,-20,1,-17,1,-41,1,-74,1,-43,1
166,-16,1,-24,1,-8,1,20,1,-4,1,-16,1,1,1,-20,1,-17,1,-42,1,-74,1,-42,1
167,-16,1,-24,1,-8,1,20,1,-4,1,-16,1,1,1,-20,1,-17,1,-42,1,-74,1,-42,1
168,-16,1,-24,1,-8,1,20,1,-4,1,-16,1,1,1,-20,1,-17,1,-41,1,-73,1,-41,1
169,-16,1,-23,1,-7,1,19,1,-5,1,-15,1,0,1,-20,1,-17,1,-41,1,-72,1,-42,1
170,-16,1,-23,1,-7,1,19,1,-5,1,-15,1,0,1,-20,1,-17,1,-42,1,-73,1,-41,1
171,-15,1,-23,1,-8,1,19,1,-4,1,-16,1,0,1,-20,1,-17,1,-42,1,-73,1,-41,1
172,-15,1,-22,1,-7,1,18,1,-4,1,-15,1,0,1,-19,1,-17,1,-42,1,-73,1,-40,1
173,-15,1,-21,1,-6,1,18,1,-5,1,-14,1,0,1,-19,1,-17,1,-43,1,-73,1,-39,1
174,-15,1,-21,1,-6,1,18,1,-5,1,-14,1,-1,1,-19,1,-17,1,-43,1,-72,1,-39,1
175,-15,1,-21,1,-6,1,18,1,-5,1,-14,1,-2,1,-20,1,-18,1,-42,1,-71,1,-39,1
176,-15,1,-21,1,-6,1,18,1,-5,1,-14,1,-2,1,-20,1,-18,1,-42,1,-70,1,-39,1
177,-15,1,-21,1,-6,1,18,1,-5,1,-14,1,-1,1,-19,1,-18,1,-42,1,-70,1,-39,1
178,-15,1,-21,1,-6,1,18,1,-5,1,-14,1,-1,1,-19,1,-18,1,-41,1,-69,1,-38,1
179,-15,1,-21,1,-6,1,18,1,-5,1,-14,1,-1,1,-19,1,-18,1,-41,1,-68,1,-39,1
180,-15,1,-21,1,-6,1,18,1,-5,1,-14,1,-1,1,-19,1,-17,1,-41,1,-67,1,-39,1
181,-15,1,-21,1,-6,1,18,1,-5,1,-14,1,-1,1,-19,1,-17,1,-41,1,-67,1,-38,1
182,-15,1,-21,1,-6,1,18,1,-5,1,-14,1,-1,1,-19,1,-18,1,-39,1,-67,1,-39,1
183,-15,1,-21,1,-6,1,18,1,-5,1,-14,1,-1,1,-19,1,-17,1,-39,1,-66,1,-38,1
184,-15,1,-21,1,-6,1,18,1,-5,1,-14,1,0,1,-18,1,-16,1,-40,1,-65,1,-37,1
185,-15,1,-20,1,-5,1,17,1,-5,1,-13,1,0,1,-18,1,-16,1,-39,1,-65,1,-38,1
186,-15,1,-20,1,-5,1,17,1,-5,1,-13,1,-1,1,-19,1,-16,1,-39,1,-65,1,-38,1
187,-15,1,-19,1,-4,1,17,1,-6,1,-12,1,-1,1,-19,1,-17,1,-39,1,-66,1,-39,1
188,-15,1,-19,1,-4,1,17,1,-6,1,-12,1,-1,1,-19,1,-18,1,-39,1,-66,1,-40,1
189,-15,1,-19,1,-4,1,17,1,-6,1,-12,1,-1,1,-19,1,-17,1,-39,1,-67,1,-41,1
190,-15,1,-18,1,-3,1,16,1,-6,1,-11,1,0,1,-18,1,-16,1,-39,1,-67,1,-41,1
191,-15,1,-18,1,-3,1,16,1,-6,1,-11,1,1,1,-18,1,-16,1,-39,1,-66,1,-41,1
192,-15,1,-18,1,-3,1,16,1,-6,1,-11,1,0,1,-18,1,-17,1,-39,1,-66,1,-40,1
193,-15,1,-17,1,-2,1,16,1,-7,1,-10,1,-2,1,-18,1,-17,1,-39,1,-65,1,-38,1
194,-15,1,-17,1,-2,1,16,1,-7,1,-10,1,-3,1,-18,1,-17,1,-39,1,-64,1,-37,1
195,-14,1,-16,1,-2,1,15,1,-6,1,-9,1,-4,1,-18,1,-17,1,-39,1,-64,1,-37,1
196,-13,1,-15,1,-2,1,14,1,-6,1,-9,1,-6,1,-19,1,-17,1,-38,1,-63,1,-37,1
197,-13,1,-14,1,-1,1,13,1,-6,1,-8,1,-7,1,-19,1,-17,1,-37,1,-62,1,-37,1
198,-12,1,-14,1,-2,1,13,1,-5,1,-8,1,-8,1,-18,1,-15,1,-36,1,-61,1,-35,1
199,-12,1,-14,1,-2,1,13,1,-5,1,-8,1,-8,1,-18,1,-13,1,-35,1,-59,1,-34,1
200,-11,1,-14,1,-3,1,12,1,-4,1,-9,1,-8,1,-17,1,-13,1,-34,1,-58,1,-33,1
201,-11,1,-14,1,-3,1,12,1,-4,1,-9,1,-7,1,-17,1,-13,1,-33,1,-58,1,-31,1
202,-10,1,-14,1,-4,1,12,1,-3,1,-9,1,-7,1,-17,1,-12,1,-33,1,-57,1,-29,1
203,-9,1,-13,1,-4,1,11,1,-3,1,-9,1,-7,1,-16,1,-11,1,-32,1,-57,1,-29,1
204,-9,1,-13,1,-4,1,11,1,-3,1,-9,1,-6,1,-16,1,-10,1,-31,1,-57,1,-29,1
205,-9,1,-12,1,-3,1,10,1,-3,1,-8,1,-5,1,-16,1,-10,1,-31,1,-56,1,-29,1
206,-9,1,-11,1,-2,1,10,1,-4,1,-7,1,-5,1,-16,1,-9,1,-29,1,-56,1,-28,1
207,-9,1,-11,1,-2,1,10,1,-4,1,-7,1,-5,1,-14,1,-8,1,-28,1,-54,1,-27,1
208,-9,1,-11,1,-2,1,10,1,-4,1,-7,1,-5,1,-13,1,-8,1,-28,1,-52,1,-27,1
209,-9,1,-11,1,-2,1,10,1,-4,1,-7,1,-4,1,-13,1,-7,1,-27,1,-50,1,-27,1
210,-8,1,-10,1,-2,1,9,1,-3,1,-6,1,-4,1,-12,1,-6,1,-26,1,-50,1,-26,1
211,-7,1,-10,1,-3,1,8,1,-2,1,-7,1,-3,1,-12,1,-6,1,-24,1,-49,1,-25,1
212,-7,1,-9,1,-2,1,8,1,-3,1,-6,1,-3,1,-12,1,-5,1,-23,1,-48,1,-24,1
213,-7,1,-8,1,-1,1,7,1,-3,1,-5,1,-3,1,-12,1,-4,1,-21,1,-48,1,-24,1
214,-6,1,-8,1,-2,1,7,1,-2,1,-5,1,-4,1,-11,1,-2,1,-20,1,-45,1,-22,1
215,-5,1,-7,1,-2,1,6,1,-2,1,-5,1,-6,1,-11,1,0,1,-18,1,-44,1,-21,1
216,-5,1,-6,1,-1,1,5,1,-2,1,-4,1,-6,1,-9,1,1,1,-16,1,-42,1,-21,1
217,-4,1,-5,1,-1,1,4,1,-2,1,-3,1,-7,1,-8,1,2,1,-14,1,-41,1,-21,1
218,-4,1,-3,1,1,1,3,1,-3,1,-1,1,-7,1,-8,1,3,1,-13,1,-39,1,-19,1
219,-5,1,-2,1,3,1,3,1,-4,1,0,1,-7,1,-7,1,4,1,-12,1,-38,1,-18,1
220,-5,1,-1,1,4,1,3,1,-5,1,1,1,-6,1,-6,1,4,1,-11,1,-36,1,-17,1
221,-4,1,-1,1,3,1,2,1,-4,1,1,1,-6,1,-5,1,5,1,-8,1,-34,1,-15,1
222,-2,1,-1,1,1,1,1,1,-2,1,0,1,-7,1,-4,1,6,1,-7,1,-32,1,-15,1
223,-2,1,0,1,2,1,1,1,-2,1,1,1,-8,1,-3,1,9,1,-6,1,-29,1,-14,1
224,-1,1,0,1,1,1,0,1,-1,1,0,1,-9,1,-1,1,11,1,-3,1,-28,1,-13,1
225,-1,1,1,1,2,1,0,1,-1,1,1,1,-9,1,0,1,13,1,-1,1,-25,1,-12,1
226,0,1,2,1,2,1,-1,1,-1,1,2,1,-11,1,1,1,15,1,0,1,-24,1,-11,1
227,1,1,4,1,3,1,-2,1,-1,1,4,1,-13,1,2,1,16,1,3,1,-23,1,-10,1
228,2,1,6,1,4,1,-4,1,-1,1,5,1,-13,1,3,1,18,1,7,1,-21,1,-8,1
229,3,1,7,1,4,1,-5,1,0,1,6,1,-13,1,4,1,21,1,8,1,-19,1,-6,1
230,4,1,7,1,3,1,-5,1,1,1,5,1,-13,1,7,1,24,1,9,1,-17,1,-4,1
231,4,1,7,1,3,1,-5,1,1,1,5,1,-12,1,9,1,27,1,12,1,-14,1,-2,1
232,5,1,7,1,2,1,-6,1,2,1,5,1,-13,1,10,1,30,1,14,1,-11,1,0,1
233,5,1,8,1,3,1,-6,1,1,1,6,1,-14,1,12,1,32,1,16,1,-9,1,2,1
234,7,1,9,1,2,1,-8,1,3,1,6,1,-15,1,14,1,34,1,17,1,-7,1,4,1
235,7,1,10,1,3,1,-8,1,2,1,7,1,-16,1,15,1,36,1,20,1,-4,1,4,1
236,8,1,12,1,4,1,-10,1,2,1,8,1,-16,1,17,1,37,1,21,1,-3,1,5,1
237,9,1,15,1,6,1,-12,1,2,1,11,1,-17,1,18,1,41,1,25,1,-1,1,6,1
238,11,1,17,1,6,1,-14,1,3,1,12,1,-19,1,20,1,44,1,30,1,3,1,7,1
239,13,1,19,1,6,1,-16,1,4,1,13,1,-21,1,23,1,47,1,36,1,6,1,9,1
240,15,1,20,1,5,1,-17,1,5,1,13,1,-21,1,25,1,50,1,39,1,9,1,11,1
241,15,1,21,1,6,1,-18,1,5,1,14,1,-23,1,27,1,53,1,42,1,12,1,13,1
242,17,1,21,1,4,1,-19,1,7,1,13,1,-24,1,29,1,55,1,45,1,16,1,16,1
243,18,1,21,1,3,1,-19,1,8,1,12,1,-25,1,31,1,58,1,49,1,21,1,19,1
244,20,1,22,1,2,1,-21,1,9,1,12,1,-26,1,34,1,61,1,53,1,25,1,21,1
245,21,1,23,1,2,1,-22,1,10,1,13,1,-27,1,35,1,64,1,57,1,29,1,23,1
246,21,1,24,1,3,1,-22,1,9,1,14,1,-28,1,37,1,67,1,61,1,33,1,23,1
247,22,1,26,1,4,1,-24,1,9,1,15,1,-28,1,38,1,70,1,63,1,35,1,25,1
248,24,1,26,1,2,1,-25,1,11,1,14,1,-28,1,41,1,72,1,65,1,37,1,26,1
249,25,1,27,1,2,1,-26,1,12,1,15,1,-28,1,41,1,74,1,66,1,39,1,27,1
250,25,1,28,1,3,1,-26,1,11,1,16,1,-28,1,43,1,76,1,69,1,39,1,28,1
251,26,1,28,1,2,1,-27,1,12,1,15,1,-28,1,44,1,78,1,71,1,40,1,28,1
252,26,1,28,1,2,1,-27,1,12,1,15,1,-28,1,46,1,80,1,73,1,42,1,29,1
253,27,1,28,1,1,1,-27,1,13,1,15,1,-28,1,47,1,82,1,74,1,43,1,30,1
254,27,1,28,1,1,1,-27,1,13,1,15,1,-28,1,47,1,83,1,76,1,45,1,29,1
255,28,1,28,1,0,1,-28,1,14,1,14,1,-28,1,48,1,85,1,77,1,47,1,30,1
256,28,1,28,1,0,1,-28,1,14,1,14,1,-28,1,49,1,87,1,78,1,48,1,32,1
257,29,1,29,1,0,1,-29,1,15,1,15,1,-28,1,50,1,89,1,80,1,50,1,33,1
258,29,1,29,1,0,1,-29,1,15,1,15,1,-28,1,51,1,92,1,82,1,51,1,35,1
259,29,1,29,1,0,1,-29,1,15,1,15,1,-28,1,51,1,93,1,83,1,53,1,35,1
260,29,1,29,1,0,1,-29,1,15,1,15,1,-28,1,51,1,93,1,83,1,54,1,36,1
261,30,1,29,1,-1,1,-29,1,16,1,14,1,-29,1,51,1,93,1,85,1,55,1,35,1
262,30,1,29,1,-1,1,-29,1,16,1,14,1,-27,1,50,1,93,1,84,1,56,1,35,1
263,30,1,29,1,-1,1,-29,1,16,1,14,1,-27,1,50,1,93,1,84,1,55,1,36,1
264,30,1,29,1,-1,1,-29,1,16,1,14,1,-27,1,50,1,92,1,84,1,54,1,36,1
265,30,1,28,1,-2,1,-29,1,16,1,13,1,-27,1,49,1,91,1,83,1,53,1,35,1
266,29,1,28,1,-1,1,-28,1,15,1,14,1,-27,1,48,1,90,1,81,1,52,1,34,1
267,28,1,27,1,-1,1,-27,1,15,1,13,1,-27,1,47,1,89,1,80,1,50,1,34,1
268,28,1,27,1,-1,1,-27,1,15,1,13,1,-27,1,46,1,88,1,78,1,50,1,32,1
269,26,1,25,1,-1,1,-25,1,14,1,12,1,-26,1,45,1,86,1,76,1,49,1,31,1
270,24,1,23,1,-1,1,-23,1,13,1,11,1,-25,1,45,1,84,1,73,1,47,1,29,1
271,24,1,21,1,-3,1,-22,1,14,1,9,1,-25,1,43,1,81,1,69,1,45,1,27,1
272,22,1,19,1,-3,1,-20,1,13,1,8,1,-24,1,41,1,79,1,64,1,42,1,27,1
273,22,1,17,1,-5,1,-19,1,14,1,6,1,-23,1,41,1,75,1,59,1,38,1,24,1
274,21,1,16,1,-5,1,-18,1,13,1,6,1,-22,1,39,1,71,1,55,1,33,1,22,1
275,19,1,14,1,-5,1,-16,1,12,1,5,1,-22,1,37,1,67,1,52,1,29,1,19,1
276,18,1,11,1,-7,1,-14,1,13,1,2,1,-21,1,34,1,63,1,48,1,24,1,15,1
277,15,1,10,1,-5,1,-12,1,10,1,3,1,-20,1,32,1,60,1,43,1,19,1,12,1
278,13,1,9,1,-4,1,-11,1,9,1,3,1,-20,1,30,1,56,1,38,1,15,1,8,1
279,10,1,7,1,-3,1,-8,1,7,1,2,1,-18,1,29,1,53,1,32,1,11,1,4,1
280,9,1,6,1,-3,1,-7,1,6,1,2,1,-17,1,27,1,50,1,26,1,6,1,0,1
281,8,1,4,1,-4,1,-6,1,6,1,0,1,-16,1,25,1,47,1,21,1,1,1,-2,1
282,7,1,1,1,-6,1,-4,1,7,1,-2,1,-13,1,24,1,44,1,18,1,-3,1,-6,1
283,5,1,0,1,-5,1,-2,1,5,1,-2,1,-12,1,24,1,42,1,14,1,-6,1,-9,1
284,3,1,-2,1,-5,1,0,1,4,1,-3,1,-10,1,22,1,39,1,11,1,-10,1,-11,1
285,1,1,-4,1,-5,1,1,1,3,1,-4,1,-9,1,21,1,37,1,9,1,-13,1,-14,1
286,0,1,-6,1,-6,1,3,1,3,1,-6,1,-8,1,19,1,35,1,7,1,-16,1,-16,1
287,-1,1,-7,1,-6,1,4,1,2,1,-7,1,-7,1,18,1,31,1,3,1,-19,1,-18,1
288,-3,1,-8,1,-5,1,5,1,1,1,-7,1,-5,1,17,1,29,1,-1,1,-22,1,-20,1
289,-6,1,-9,1,-3,1,7,1,-2,1,-6,1,-5,1,15,1,27,1,-5,1,-25,1,-22,1
290,-6,1,-10,1,-4,1,8,1,-1,1,-7,1,-5,1,15,1,23,1,-9,1,-27,1,-25,1
291,-7,1,-11,1,-4,1,9,1,-2,1,-8,1,-4,1,14,1,22,1,-12,1,-30,1,-27,1
292,-7,1,-13,1,-6,1,10,1,-1,1,-10,1,-3,1,14,1,19,1,-14,1,-32,1,-30,1
293,-7,1,-14,1,-7,1,10,1,0,1,-11,1,-2,1,13,1,17,1,-14,1,-35,1,-33,1
294,-8,1,-16,1,-8,1,12,1,0,1,-12,1,-2,1,12,1,15,1,-17,1,-37,1,-35,1
295,-8,1,-16,1,-8,1,12,1,0,1,-12,1,-2,1,11,1,13,1,-18,1,-39,1,-36,1
296,-9,1,-17,1,-8,1,13,1,-1,1,-13,1,-2,1,11,1,10,1,-20,1,-41,1,-37,1
297,-10,1,-18,1,-8,1,14,1,-1,1,-13,1,-2,1,10,1,9,1,-22,1,-41,1,-37,1
298,-10,1,-18,1,-8,1,14,1,-1,1,-13,1,-2,1,9,1,8,1,-23,1,-42,1,-38,1
299,-10,1,-19,1,-9,1,14,1,-1,1,-14,1,-2,1,8,1,8,1,-25,1,-43,1,-37,1
300,-10,1,-19,1,-9,1,14,1,-1,1,-14,1,-2,1,8,1,8,1,-26,1,-44,1,-36,1
301,-11,1,-19,1,-8,1,15,1,-2,1,-14,1,-2,1,8,1,6,1,-29,1,-45,1,-36,1
302,-11,1,-19,1,-8,1,15,1,-2,1,-14,1,-2,1,8,1,5,1,-31,1,-46,1,-36,1
303,-12,1,-20,1,-8,1,16,1,-2,1,-14,1,-2,1,7,1,5,1,-30,1,-46,1,-37,1
304,-12,1,-20,1,-8,1,16,1,-2,1,-14,1,-1,1,6,1,4,1,-31,1,-46,1,-38,1
305,-12,1,-21,1,-9,1,16,1,-2,1,-15,1,-1,1,5,1,2,1,-31,1,-48,1,-39,1
306,-13,1,-22,1,-9,1,17,1,-2,1,-16,1,-1,1,3,1,2,1,-32,1,-49,1,-41,1
307,-13,1,-22,1,-9,1,17,1,-2,1,-16,1,-1,1,2,1,0,1,-34,1,-50,1,-40,1
308,-13,1,-22,1,-9,1,17,1,-2,1,-16,1,0,1,2,1,0,1,-35,1,-50,1,-41,1
309,-13,1,-22,1,-9,1,17,1,-2,1,-16,1,0,1,1,1,-1,1,-35,1,-52,1,-42,1
310,-13,1,-24,1,-11,1,18,1,-1,1,-18,1,1,1,2,1,-1,1,-35,1,-53,1,-42,1
311,-13,1,-24,1,-11,1,18,1,-1,1,-18,1,1,1,2,1,-1,1,-35,1,-52,1,-41,1
312,-13,1,-25,1,-12,1,19,1,-1,1,-19,1,2,1,3,1,0,1,-35,1,-51,1,-41,1
313,-13,1,-25,1,-12,1,19,1,-1,1,-19,1,2,1,3,1,0,1,-35,1,-50,1,-40,1
314,-13,1,-25,1,-12,1,19,1,-1,1,-19,1,2,1,2,1,0,1,-35,1,-50,1,-41,1
315,-13,1,-25,1,-12,1,19,1,-1,1,-19,1,2,1,1,1,0,1,-35,1,-49,1,-40,1
316,-13,1,-25,1,-12,1,19,1,-1,1,-19,1,2,1,1,1,-1,1,-35,1,-50,1,-41,1
317,-13,1,-26,1,-13,1,19,1,0,1,-20,1,2,1,0,1,-2,1,-36,1,-50,1,-41,1
318,-13,1,-26,1,-13,1,19,1,0,1,-20,1,1,1,0,1,-3,1,-36,1,-50,1,-41,1
319,-13,1,-26,1,-13,1,19,1,0,1,-20,1,0,1,0,1,-4,1,-36,1,-50,1,-42,1
320,-13,1,-26,1,-13,1,19,1,0,1,-20,1,0,1,-1,1,-4,1,-38,1,-51,1,-43,1
321,-13,1,-26,1,-13,1,19,1,0,1,-20,1,0,1,-2,1,-4,1,-39,1,-52,1,-43,1
322,-13,1,-26,1,-13,1,19,1,0,1,-20,1,0,1,-2,1,-5,1,-39,1,-52,1,-43,1
323,-13,1,-26,1,-13,1,19,1,0,1,-20,1,-1,1,-1,1,-5,1,-39,1,-53,1,-43,1
324,-13,1,-26,1,-13,1,19,1,0,1,-20,1,-1,1,-1,1,-6,1,-40,1,-54,1,-44,1
325,-13,1,-26,1,-13,1,19,1,0,1,-20,1,-1,1,-2,1,-6,1,-41,1,-54,1,-45,1
326,-14,1,-26,1,-12,1,20,1,-1,1,-19,1,0,1,-3,1,-7,1,-41,1,-54,1,-44,1
327,-14,1,-25,1,-11,1,19,1,-2,1,-18,1,0,1,-4,1,-7,1,-41,1,-53,1,-45,1
328,-14,1,-25,1,-11,1,19,1,-2,1,-18,1,0,1,-5,1,-7,1,-42,1,-54,1,-46,1
329,-14,1,-24,1,-10,1,19,1,-2,1,-17,1,0,1,-6,1,-8,1,-41,1,-54,1,-45,1
330,-15,1,-24,1,-9,1,19,1,-3,1,-17,1,0,1,-6,1,-8,1,-41,1,-53,1,-45,1
331,-15,1,-24,1,-9,1,19,1,-3,1,-17,1,-1,1,-7,1,-8,1,-41,1,-53,1,-44,1
332,-15,1,-24,1,-9,1,19,1,-3,1,-17,1,-1,1,-7,1,-9,1,-41,1,-52,1,-43,1
333,-16,1,-24,1,-8,1,20,1,-4,1,-16,1,0,1,-7,1,-10,1,-40,1,-52,1,-43,1
334,-16,1,-25,1,-9,1,20,1,-4,1,-17,1,-1,1,-8,1,-10,1,-41,1,-52,1,-43,1
335,-16,1,-25,1,-9,1,20,1,-4,1,-17,1,-1,1,-8,1,-11,1,-41,1,-52,1,-43,1
336,-16,1,-24,1,-8,1,20,1,-4,1,-16,1,-1,1,-8,1,-11,1,-42,1,-53,1,-42,1
337,-16,1,-24,1,-8,1,20,1,-4,1,-16,1,-1,1,-9,1,-12,1,-42,1,-54,1,-43,1
338,-16,1,-24,1,-8,1,20,1,-4,1,-16,1,-1,1,-10,1,-12,1,-43,1,-54,1,-43,1
339,-16,1,-24,1,-8,1,20,1,-4,1,-16,1,-1,1,-10,1,-13,1,-44,1,-54,1,-42,1
340,-16,1,-24,1,-8,1,20,1,-4,1,-16,1,-1,1,-11,1,-13,1,-45,1,-54,1,-42,1
341,-16,1,-24,1,-8,1,20,1,-4,1,-16,1,-1,1,-11,1,-14,1,-45,1,-55,1,-42,1
342,-17,1,-24,1,-7,1,20,1,-5,1,-16,1,-1,1,-12,1,-15,1,-46,1,-55,1,-42,1
343,-17,1,-24,1,-7,1,20,1,-5,1,-16,1,-1,1,-12,1,-15,1,-47,1,-56,1,-43,1
344,-17,1,-25,1,-8,1,21,1,-5,1,-17,1,-1,1,-13,1,-15,1,-47,1,-56,1,-43,1
345,-17,1,-25,1,-8,1,21,1,-5,1,-17,1,-1,1,-13,1,-15,1,-47,1,-56,1,-45,1
346,-17,1,-25,1,-8,1,21,1,-5,1,-17,1,-1,1,-13,1,-15,1,-47,1,-56,1,-45,1
347,-17,1,-24,1,-7,1,20,1,-5,1,-16,1,-1,1,-15,1,-16,1,-48,1,-57,1,-45,1
348,-17,1,-24,1,-7,1,20,1,-5,1,-16,1,-1,1,-15,1,-17,1,-47,1,-57,1,-45,1
349,-16,1,-24,1,-8,1,20,1,-4,1,-16,1,-1,1,-14,1,-17,1,-48,1,-57,1,-44,1
350,-16,1,-24,1,-8,1,20,1,-4,1,-16,1,-1,1,-14,1,-16,1,-48,1,-57,1,-44,1
351,-16,1,-25,1,-9,1,20,1,-4,1,-17,1,-1,1,-14,1,-15,1,-47,1,-56,1,-44,1
352,-15,1,-25,1,-10,1,20,1,-3,1,-18,1,-1,1,-14,1,-15,1,-46,1,-55,1,-43,1
353,-15,1,-25,1,-10,1,20,1,-3,1,-18,1,-1,1,-14,1,-15,1,-47,1,-55,1,-43,1
354,-15,1,-24,1,-9,1,19,1,-3,1,-17,1,-2,1,-14,1,-16,1,-48,1,-55,1,-43,1
355,-14,1,-23,1,-9,1,18,1,-3,1,-16,1,-3,1,-14,1,-16,1,-47,1,-55,1,-42,1
356,-14,1,-22,1,-8,1,18,1,-3,1,-15,1,-3,1,-15,1,-16,1,-47,1,-56,1,-43,1
357,-14,1,-22,1,-8,1,18,1,-3,1,-15,1,-4,1,-15,1,-17,1,-47,1,-56,1,-43,1
358,-14,1,-22,1,-8,1,18,1,-3,1,-15,1,-4,1,-15,1,-17,1,-47,1,-56,1,-44,1
359,-13,1,-22,1,-9,1,17,1,-2,1,-16,1,-4,1,-16,1,-18,1,-46,1,-56,1,-44,1
360,-13,1,-21,1,-8,1,17,1,-3,1,-15,1,-5,1,-15,1,-18,1,-46,1,-56,1,-44,1
361,-13,1,-20,1,-7,1,16,1,-3,1,-14,1,-5,1,-15,1,-18,1,-46,1,-56,1,-44,1
362,-13,1,-19,1,-6,1,16,1,-4,1,-13,1,-5,1,-14,1,-18,1,-47,1,-56,1,-43,1
363,-12,1,-19,1,-7,1,15,1,-3,1,-13,1,-5,1,-14,1,-17,1,-46,1,-56,1,-42,1
364,-12,1,-19,1,-7,1,15,1,-3,1,-13,1,-5,1,-15,1,-18,1,-47,1,-56,1,-42,1
365,-12,1,-19,1,-7,1,15,1,-3,1,-13,1,-6,1,-15,1,-18,1,-47,1,-56,1,-41,1
366,-11,1,-19,1,-8,1,15,1,-2,1,-14,1,-6,1,-15,1,-18,1,-46,1,-55,1,-42,1
367,-11,1,-19,1,-8,1,15,1,-2,1,-14,1,-6,1,-15,1,-18,1,-46,1,-55,1,-41,1
368,-11,1,-19,1,-8,1,15,1,-2,1,-14,1,-5,1,-15,1,-18,1,-46,1,-54,1,-41,1
369,-10,1,-19,1,-9,1,14,1,-1,1,-14,1,-5,1,-14,1,-17,1,-45,1,-53,1,-42,1
370,-10,1,-19,1,-9,1,14,1,-1,1,-14,1,-5,1,-14,1,-17,1,-44,1,-53,1,-41,1
371,-10,1,-20,1,-10,1,15,1,0,1,-15,1,-5,1,-13,1,-16,1,-44,1,-52,1,-42,1
372,-10,1,-20,1,-10,1,15,1,0,1,-15,1,-5,1,-13,1,-16,1,-43,1,-51,1,-41,1
373,-10,1,-20,1,-10,1,15,1,0,1,-15,1,-5,1,-13,1,-16,1,-43,1,-51,1,-41,1
374,-9,1,-20,1,-11,1,14,1,1,1,-16,1,-5,1,-13,1,-16,1,-43,1,-51,1,-41,1
375,-9,1,-20,1,-11,1,14,1,1,1,-16,1,-5,1,-14,1,-15,1,-44,1,-51,1,-40,1
376,-9,1,-19,1,-10,1,14,1,0,1,-15,1,-6,1,-12,1,-14,1,-44,1,-51,1,-41,1
377,-9,1,-19,1,-10,1,14,1,0,1,-15,1,-6,1,-12,1,-14,1,-44,1,-50,1,-41,1
378,-9,1,-19,1,-10,1,14,1,0,1,-15,1,-6,1,-11,1,-13,1,-43,1,-50,1,-40,1
379,-8,1,-19,1,-11,1,13,1,1,1,-15,1,-6,1,-11,1,-13,1,-42,1,-50,1,-40,1
380,-7,1,-19,1,-12,1,13,1,2,1,-16,1,-6,1,-11,1,-13,1,-42,1,-49,1,-39,1
381,-7,1,-20,1,-13,1,13,1,3,1,-17,1,-6,1,-11,1,-13,1,-43,1,-48,1,-39,1
382,-7,1,-20,1,-13,1,13,1,3,1,-17,1,-6,1,-10,1,-13,1,-42,1,-48,1,-39,1
383,-7,1,-20,1,-13,1,13,1,3,1,-17,1,-6,1,-10,1,-13,1,-42,1,-48,1,-40,1
384,-6,1,-20,1,-14,1,13,1,4,1,-17,1,-6,1,-10,1,-13,1,-42,1,-48,1,-41,1
385,-6,1,-19,1,-13,1,12,1,3,1,-16,1,-5,1,-10,1,-13,1,-42,1,-49,1,-42,1
386,-6,1,-19,1,-13,1,12,1,3,1,-16,1,-4,1,-10,1,-13,1,-42,1,-50,1,-44,1
387,-6,1,-20,1,-14,1,13,1,4,1,-17,1,-3,1,-10,1,-13,1,-42,1,-50,1,-44,1
388,-6,1,-20,1,-14,1,13,1,4,1,-17,1,-3,1,-10,1,-12,1,-43,1,-50,1,-43,1
389,-7,1,-20,1,-13,1,13,1,3,1,-17,1,-3,1,-9,1,-11,1,-42,1,-49,1,-43,1
390,-7,1,-20,1,-13,1,13,1,3,1,-17,1,-4,1,-8,1,-12,1,-41,1,-48,1,-43,1
391,-7,1,-20,1,-13,1,13,1,3,1,-17,1,-4,1,-8,1,-11,1,-41,1,-47,1,-43,1
392,-7,1,-20,1,-13,1,13,1,3,1,-17,1,-4,1,-8,1,-11,1,-42,1,-47,1,-42,1
393,-7,1,-21,1,-14,1,14,1,3,1,-18,1,-4,1,-8,1,-11,1,-41,1,-47,1,-41,1
394,-6,1,-21,1,-15,1,13,1,4,1,-18,1,-4,1,-8,1,-11,1,-41,1,-46,1,-41,1
395,-5,1,-21,1,-16,1,13,1,5,1,-19,1,-3,1,-8,1,-11,1,-42,1,-47,1,-41,1
396,-5,1,-21,1,-16,1,13,1,5,1,-19,1,-4,1,-8,1,-12,1,-43,1,-46,1,-41,1
397,-5,1,-21,1,-16,1,13,1,5,1,-19,1,-4,1,-8,1,-12,1,-41,1,-46,1,-41,1
398,-6,1,-21,1,-15,1,13,1,4,1,-18,1,-4,1,-8,1,-12,1,-41,1,-46,1,-42,1
399,-6,1,-21,1,-15,1,13,1,4,1,-18,1,-5,1,-8,1,-12,1,-42,1,-47,1,-42,1
400,-6,1,-21,1,-15,1,13,1,4,1,-18,1,-5,1,-7,1,-12,1,-42,1,-46,1,-43,1
401,-6,1,-22,1,-16,1,14,1,5,1,-19,1,-5,1,-7,1,-11,1,-42,1,-46,1,-43,1
402,-6,1,-21,1,-15,1,13,1,4,1,-18,1,-6,1,-7,1,-12,1,-43,1,-46,1,-42,1
403,-6,1,-21,1,-15,1,13,1,4,1,-18,1,-6,1,-6,1,-12,1,-43,1,-46,1,-42,1
404,-6,1,-21,1,-15,1,13,1,4,1,-18,1,-5,1,-6,1,-12,1,-44,1,-47,1,-42,1
405,-6,1,-21,1,-15,1,13,1,4,1,-18,1,-5,1,-7,1,-12,1,-43,1,-48,1,-43,1
406,-6,1,-21,1,-15,1,13,1,4,1,-18,1,-5,1,-7,1,-12,1,-44,1,-49,1,-45,1
407,-6,1,-21,1,-15,1,13,1,4,1,-18,1,-5,1,-7,1,-12,1,-45,1,-49,1,-45,1
408,-6,1,-22,1,-16,1,14,1,5,1,-19,1,-5,1,-7,1,-12,1,-46,1,-49,1,-45,1
409,-6,1,-22,1,-16,1,14,1,5,1,-19,1,-4,1,-6,1,-12,1,-45,1,-48,1,-45,1
410,-5,1,-22,1,-17,1,13,1,6,1,-20,1,-4,1,-6,1,-12,1,-45,1,-48,1,-45,1
411,-5,1,-22,1,-17,1,13,1,6,1,-20,1,-4,1,-6,1,-12,1,-46,1,-48,1,-45,1
412,-5,1,-23,1,-18,1,14,1,6,1,-21,1,-5,1,-6,1,-12,1,-46,1,-48,1,-45,1
413,-5,1,-23,1,-18,1,14,1,6,1,-21,1,-5,1,-6,1,-12,1,-46,1,-49,1,-45,1
414,-6,1,-24,1,-18,1,15,1,6,1,-21,1,-5,1,-6,1,-12,1,-46,1,-49,1,-45,1
415,-5,1,-24,1,-19,1,14,1,7,1,-22,1,-6,1,-6,1,-12,1,-48,1,-51,1,-46,1
416,-5,1,-24,1,-19,1,14,1,7,1,-22,1,-6,1,-6,1,-14,1,-50,1,-51,1,-47,1
417,-5,1,-23,1,-18,1,14,1,6,1,-21,1,-5,1,-6,1,-15,1,-50,1,-53,1,-47,1
418,-6,1,-23,1,-17,1,14,1,5,1,-20,1,-5,1,-6,1,-16,1,-51,1,-53,1,-49,1
419,-5,1,-21,1,-16,1,13,1,5,1,-19,1,-5,1,-5,1,-15,1,-50,1,-54,1,-49,1
420,-5,1,-20,1,-15,1,12,1,5,1,-18,1,-5,1,-4,1,-14,1,-49,1,-52,1,-49,1
421,-4,1,-19,1,-15,1,11,1,5,1,-17,1,-4,1,-4,1,-14,1,-47,1,-51,1,-48,1
422,-4,1,-19,1,-15,1,11,1,5,1,-17,1,-3,1,-4,1,-12,1,-46,1,-50,1,-47,1
423,-4,1,-17,1,-13,1,10,1,4,1,-15,1,-1,1,-3,1,-12,1,-46,1,-49,1,-46,1
424,-4,1,-16,1,-12,1,10,1,4,1,-14,1,0,1,-2,1,-11,1,-46,1,-49,1,-45,1
425,-4,1,-16,1,-12,1,10,1,4,1,-14,1,0,1,-1,1,-9,1,-44,1,-46,1,-45,1
426,-4,1,-16,1,-12,1,10,1,4,1,-14,1,1,1,-1,1,-9,1,-43,1,-45,1,-44,1
427,-4,1,-15,1,-11,1,9,1,3,1,-13,1,2,1,-1,1,-7,1,-42,1,-45,1,-43,1
428,-3,1,-15,1,-12,1,9,1,4,1,-14,1,2,1,0,1,-7,1,-41,1,-44,1,-42,1
429,-3,1,-15,1,-12,1,9,1,4,1,-14,1,3,1,0,1,-7,1,-40,1,-44,1,-41,1
430,-2,1,-15,1,-13,1,8,1,5,1,-14,1,3,1,0,1,-6,1,-40,1,-43,1,-41,1
431,-1,1,-16,1,-15,1,8,1,7,1,-16,1,2,1,2,1,-6,1,-40,1,-42,1,-40,1
432,-1,1,-16,1,-15,1,8,1,7,1,-16,1,1,1,2,1,-7,1,-40,1,-43,1,-40,1
433,0,1,-15,1,-15,1,7,1,7,1,-15,1,1,1,2,1,-6,1,-39,1,-42,1,-40,1
434,1,1,-14,1,-15,1,6,1,8,1,-14,1,1,1,3,1,-6,1,-39,1,-42,1,-39,1
435,1,1,-13,1,-14,1,6,1,7,1,-13,1,1,1,4,1,-6,1,-39,1,-42,1,-40,1
436,1,1,-12,1,-13,1,5,1,7,1,-12,1,0,1,5,1,-5,1,-38,1,-42,1,-41,1
437,2,1,-13,1,-15,1,5,1,8,1,-14,1,0,1,6,1,-5,1,-37,1,-43,1,-41,1
438,2,1,-13,1,-15,1,5,1,8,1,-14,1,-1,1,6,1,-4,1,-38,1,-42,1,-41,1
439,1,1,-13,1,-14,1,6,1,7,1,-13,1,-1,1,6,1,-4,1,-38,1,-43,1,-40,1
440,1,1,-13,1,-14,1,6,1,7,1,-13,1,-1,1,6,1,-3,1,-38,1,-43,1,-40,1
441,2,1,-13,1,-15,1,5,1,8,1,-14,1,0,1,6,1,-3,1,-37,1,-42,1,-40,1
442,2,1,-13,1,-15,1,5,1,8,1,-14,1,-1,1,5,1,-3,1,-37,1,-41,1,-39,1
443,3,1,-13,1,-16,1,5,1,9,1,-14,1,-2,1,5,1,-3,1,-37,1,-41,1,-39,1
444,3,1,-12,1,-15,1,4,1,9,1,-13,1,-3,1,6,1,-3,1,-37,1,-40,1,-38,1
445,4,1,-12,1,-16,1,4,1,10,1,-14,1,-4,1,5,1,-4,1,-36,1,-40,1,-38,1
446,4,1,-11,1,-15,1,3,1,9,1,-13,1,-6,1,3,1,-5,1,-36,1,-39,1,-38,1
447,5,1,-10,1,-15,1,2,1,10,1,-12,1,-6,1,2,1,-5,1,-36,1,-38,1,-38,1
448,6,1,-10,1,-16,1,2,1,11,1,-13,1,-8,1,1,1,-5,1,-37,1,-38,1,-38,1
449,7,1,-9,1,-16,1,1,1,11,1,-12,1,-10,1,-1,1,-6,1,-37,1,-37,1,-36,1
450,8,1,-8,1,-16,1,0,1,12,1,-12,1,-12,1,-2,1,-8,1,-37,1,-37,1,-36,1
451,9,1,-8,1,-17,1,0,1,13,1,-12,1,-13,1,-3,1,-9,1,-38,1,-37,1,-35,1
452,10,1,-9,1,-19,1,0,1,14,1,-14,1,-14,1,-4,1,-10,1,-40,1,-38,1,-36,1
453,10,1,-9,1,-19,1,0,1,14,1,-14,1,-16,1,-5,1,-10,1,-40,1,-38,1,-36,1
454,10,1,-9,1,-19,1,0,1,14,1,-14,1,-16,1,-6,1,-11,1,-41,1,-38,1,-37,1
455,10,1,-9,1,-19,1,0,1,14,1,-14,1,-16,1,-6,1,-12,1,-42,1,-39,1,-37,1
456,11,1,-10,1,-21,1,0,1,16,1,-15,1,-16,1,-7,1,-13,1,-43,1,-40,1,-37,1
457,11,1,-10,1,-21,1,0,1,16,1,-15,1,-16,1,-7,1,-15,1,-44,1,-40,1,-36,1
458,12,1,-11,1,-23,1,0,1,17,1,-17,1,-16,1,-7,1,-16,1,-44,1,-41,1,-36,1
459,11,1,-11,1,-22,1,0,1,16,1,-16,1,-15,1,-6,1,-15,1,-43,1,-40,1,-37,1
460,11,1,-11,1,-22,1,0,1,16,1,-16,1,-14,1,-5,1,-15,1,-43,1,-39,1,-36,1
461,11,1,-11,1,-22,1,0,1,16,1,-16,1,-14,1,-5,1,-15,1,-42,1,-39,1,-37,1
462,11,1,-12,1,-23,1,0,1,17,1,-17,1,-13,1,-5,1,-15,1,-42,1,-38,1,-37,1
463,11,1,-13,1,-24,1,1,1,17,1,-18,1,-12,1,-5,1,-15,1,-43,1,-38,1,-37,1
464,11,1,-13,1,-24,1,1,1,17,1,-18,1,-12,1,-5,1,-15,1,-45,1,-39,1,-38,1
465,11,1,-14,1,-25,1,1,1,18,1,-19,1,-11,1,-5,1,-16,1,-46,1,-41,1,-38,1
466,9,1,-16,1,-25,1,3,1,17,1,-20,1,-10,1,-5,1,-15,1,-45,1,-42,1,-38,1
467,7,1,-17,1,-24,1,5,1,15,1,-20,1,-9,1,-5,1,-15,1,-45,1,-43,1,-38,1
468,4,1,-18,1,-22,1,7,1,13,1,-20,1,-8,1,-5,1,-16,1,-47,1,-45,1,-40,1
469,3,1,-19,1,-22,1,8,1,12,1,-20,1,-6,1,-6,1,-18,1,-48,1,-46,1,-41,1
470,2,1,-21,1,-23,1,9,1,12,1,-22,1,-6,1,-7,1,-19,1,-49,1,-47,1,-41,1
471,1,1,-23,1,-24,1,11,1,12,1,-23,1,-6,1,-8,1,-20,1,-50,1,-48,1,-43,1
472,0,1,-25,1,-25,1,12,1,12,1,-25,1,-6,1,-8,1,-20,1,-51,1,-49,1,-44,1
473,-1,1,-27,1,-26,1,14,1,12,1,-27,1,-6,1,-8,1,-20,1,-52,1,-50,1,-46,1
474,-3,1,-29,1,-26,1,16,1,11,1,-28,1,-5,1,-8,1,-20,1,-52,1,-50,1,-47,1
475,-5,1,-30,1,-25,1,17,1,10,1,-28,1,-4,1,-8,1,-21,1,-52,1,-50,1,-49,1
476,-5,1,-31,1,-26,1,18,1,10,1,-29,1,-4,1,-9,1,-21,1,-53,1,-50,1,-50,1
477,-5,1,-32,1,-27,1,18,1,11,1,-30,1,-4,1,-9,1,-23,1,-54,1,-52,1,-51,1
478,-5,1,-33,1,-28,1,19,1,11,1,-31,1,-4,1,-9,1,-24,1,-55,1,-53,1,-51,1
479,-6,1,-34,1,-28,1,20,1,11,1,-31,1,-3,1,-9,1,-24,1,-55,1,-54,1,-51,1
480,-6,1,-35,1,-29,1,20,1,11,1,-32,1,-3,1,-9,1,-25,1,-56,1,-54,1,-52,1
481,-6,1,-36,1,-30,1,21,1,12,1,-33,1,-3,1,-9,1,-25,1,-57,1,-55,1,-52,1
482,-6,1,-36,1,-30,1,21,1,12,1,-33,1,-3,1,-10,1,-25,1,-57,1,-56,1,-53,1
483,-6,1,-36,1,-30,1,21,1,12,1,-33,1,-4,1,-10,1,-25,1,-57,1,-57,1,-54,1
484,-6,1,-36,1,-30,1,21,1,12,1,-33,1,-4,1,-10,1,-25,1,-58,1,-58,1,-54,1
485,-6,1,-36,1,-30,1,21,1,12,1,-33,1,-4,1,-10,1,-26,1,-59,1,-58,1,-55,1
486,-6,1,-35,1,-29,1,20,1,11,1,-32,1,-4,1,-10,1,-26,1,-60,1,-59,1,-56,1
487,-5,1,-35,1,-30,1,20,1,12,1,-33,1,-4,1,-9,1,-27,1,-60,1,-60,1,-57,1
488,-5,1,-35,1,-30,1,20,1,12,1,-33,1,-4,1,-10,1,-28,1,-61,1,-60,1,-57,1
489,-5,1,-36,1,-31,1,20,1,13,1,-34,1,-4,1,-10,1,-28,1,-61,1,-61,1,-57,1
490,-5,1,-36,1,-31,1,20,1,13,1,-34,1,-3,1,-10,1,-27,1,-61,1,-60,1,-57,1
491,-5,1,-36,1,-31,1,20,1,13,1,-34,1,-3,1,-10,1,-26,1,-60,1,-60,1,-57,1
492,-5,1,-36,1,-31,1,20,1,13,1,-34,1,-2,1,-11,1,-26,1,-61,1,-60,1,-57,1
493,-5,1,-36,1,-31,1,20,1,13,1,-34,1,-2,1,-11,1,-27,1,-61,1,-59,1,-57,1
494,-6,1,-37,1,-31,1,21,1,12,1,-34,1,-2,1,-11,1,-27,1,-61,1,-60,1,-57,1
495,-6,1,-37,1,-31,1,21,1,12,1,-34,1,-1,1,-11,1,-28,1,-60,1,-59,1,-57,1
496,-5,1,-37,1,-32,1,21,1,13,1,-35,1,-1,1,-11,1,-28,1,-60,1,-59,1,-58,1
497,-5,1,-38,1,-33,1,21,1,14,1,-36,1,-1,1,-11,1,-28,1,-60,1,-60,1,-58,1
498,-5,1,-38,1,-33,1,21,1,14,1,-36,1,-1,1,-11,1,-28,1,-60,1,-59,1,-58,1
499,-4,1,-38,1,-34,1,21,1,15,1,-36,1,-1,1,-11,1,-28,1,-59,1,-60,1,-58,1
500,-4,1,-38,1,-34,1,21,1,15,1,-36,1,-2,1,-11,1,-28,1,-59,1,-59,1,-57,1
501,-4,1,-38,1,-34,1,21,1,15,1,-36,1,-2,1,-10,1,-28,1,-59,1,-59,1,-58,1
502,-4,1,-39,1,-35,1,21,1,15,1,-37,1,-1,1,-10,1,-29,1,-59,1,-59,1,-57,1
503,-4,1,-39,1,-35,1,21,1,15,1,-37,1,-2,1,-10,1,-29,1,-60,1,-59,1,-57,1
504,-4,1,-39,1,-35,1,21,1,15,1,-37,1,-2,1,-10,1,-29,1,-59,1,-60,1,-58,1
505,-4,1,-39,1,-35,1,21,1,15,1,-37,1,-2,1,-10,1,-28,1,-61,1,-60,1,-58,1
506,-3,1,-39,1,-36,1,21,1,16,1,-38,1,-2,1,-10,1,-29,1,-62,1,-61,1,-59,1
507,-3,1,-39,1,-36,1,21,1,16,1,-38,1,-2,1,-11,1,-29,1,-63,1,-62,1,-58,1
508,-3,1,-39,1,-36,1,21,1,16,1,-38,1,-2,1,-11,1,-29,1,-63,1,-61,1,-59,1
509,-3,1,-39,1,-36,1,21,1,16,1,-38,1,-2,1,-11,1,-29,1,-62,1,-63,1,-58,1
510,-3,1,-39,1,-36,1,21,1,16,1,-38,1,-1,1,-12,1,-29,1,-63,1,-62,1,-59,1
511,-4,1,-39,1,-35,1,21,1,15,1,-37,1,-1,1,-12,1,-29,1,-63,1,-62,1,-58,1
512,-4,1,-40,1,-36,1,22,1,16,1,-38,1,-1,1,-12,1,-30,1,-63,1,-62,1,-58,1
513,-4,1,-40,1,-36,1,22,1,16,1,-38,1,-1,1,-12,1,-31,1,-63,1,-61,1,-58,1
514,-3,1,-39,1,-36,1,21,1,16,1,-38,1,-2,1,-13,1,-31,1,-64,1,-62,1,-58,1
515,-3,1,-38,1,-35,1,20,1,16,1,-37,1,-2,1,-13,1,-31,1,-64,1,-62,1,-59,1
516,-3,1,-38,1,-35,1,20,1,16,1,-37,1,-2,1,-12,1,-31,1,-65,1,-62,1,-60,1
517,-3,1,-38,1,-35,1,20,1,16,1,-37,1,-2,1,-12,1,-32,1,-64,1,-64,1,-61,1
518,-3,1,-38,1,-35,1,20,1,16,1,-37,1,-2,1,-12,1,-30,1,-64,1,-64,1,-60,1
519,-2,1,-38,1,-36,1,20,1,17,1,-37,1,-3,1,-11,1,-30,1,-64,1,-64,1,-61,1
520,-2,1,-40,1,-38,1,21,1,18,1,-39,1,-2,1,-10,1,-30,1,-64,1,-64,1,-60,1
521,-2,1,-41,1,-39,1,21,1,18,1,-40,1,-1,1,-7,1,-30,1,-67,1,-66,1,-62,1
522,-2,1,-43,1,-41,1,22,1,19,1,-42,1,0,1,-2,1,-30,1,-70,1,-70,1,-63,1
523,-2,1,-45,1,-43,1,23,1,20,1,-44,1,3,1,5,1,-28,1,-73,1,-75,1,-68,1
524,-2,1,-48,1,-46,1,25,1,22,1,-47,1,7,1,20,1,-24,1,-78,1,-82,1,-72,1
525,-4,1,-50,1,-46,1,27,1,21,1,-48,1,16,1,43,1,-17,1,-81,1,-88,1,-78,1
526,-6,1,-54,1,-48,1,30,1,21,1,-51,1,28,1,73,1,-8,1,-84,1,-97,1,-85,1
527,-7,1,-58,1,-51,1,32,1,22,1,-55,1,43,1,107,1,3,1,-86,1,-104,1,-92,1
528,-7,1,-60,1,-53,1,33,1,23,1,-57,1,60,1,143,1,20,1,-86,1,-109,1,-99,1
529,-7,1,-60,1,-53,1,33,1,23,1,-57,1,80,1,181,1,42,1,-83,1,-108,1,-99,1
530,-6,1,-57,1,-51,1,31,1,22,1,-54,1,101,1,219,1,72,1,-73,1,-100,1,-95,1
531,-3,1,-51,1,-48,1,27,1,22,1,-50,1,121,1,258,1,111,1,-52,1,-83,1,-85,1
532,5,1,-40,1,-45,1,17,1,25,1,-42,1,134,1,292,1,155,1,-19,1,-53,1,-67,1
533,19,1,-21,1,-40,1,1,1,29,1,-30,1,139,1,313,1,201,1,28,1,-9,1,-39,1
534,38,1,2,1,-36,1,-20,1,37,1,-17,1,133,1,320,1,242,1,88,1,49,1,0,1
535,61,1,32,1,-29,1,-46,1,45,1,2,1,119,1,310,1,278,1,160,1,118,1,46,1
536,83,1,68,1,-15,1,-75,1,49,1,27,1,100,1,286,1,307,1,236,1,195,1,100,1
537,99,1,104,1,5,1,-101,1,47,1,55,1,82,1,252,1,331,1,312,1,270,1,152,1
538,107,1,139,1,32,1,-123,1,38,1,86,1,68,1,206,1,345,1,378,1,336,1,200,1
539,109,1,168,1,59,1,-138,1,25,1,114,1,51,1,148,1,345,1,429,1,392,1,240,1
540,109,1,189,1,80,1,-149,1,15,1,135,1,24,1,76,1,327,1,458,1,431,1,272,1
541,108,1,197,1,89,1,-152,1,10,1,143,1,-7,1,-5,1,293,1,460,1,450,1,291,1
542,107,1,195,1,88,1,-151,1,10,1,142,1,-40,1,-87,1,243,1,435,1,442,1,295,1
543,101,1,187,1,86,1,-144,1,8,1,137,1,-69,1,-165,1,178,1,379,1,403,1,282,1
544,90,1,171,1,81,1,-130,1,5,1,126,1,-89,1,-230,1,102,1,301,1,338,1,253,1
545,77,1,152,1,75,1,-114,1,1,1,114,1,-104,1,-280,1,21,1,210,1,259,1,213,1
546,63,1,134,1,71,1,-98,1,-4,1,103,1,-112,1,-313,1,-59,1,123,1,181,1,170,1
547,48,1,119,1,71,1,-83,1,-11,1,95,1,-116,1,-334,1,-128,1,45,1,113,1,131,1
548,33,1,106,1,73,1,-69,1,-20,1,90,1,-116,1,-342,1,-182,1,-16,1,56,1,95,1
549,17,1,95,1,78,1,-56,1,-30,1,87,1,-114,1,-339,1,-215,1,-64,1,11,1,63,1
550,4,1,81,1,77,1,-42,1,-36,1,79,1,-112,1,-329,1,-229,1,-97,1,-21,1,36,1
551,-4,1,67,1,71,1,-31,1,-37,1,69,1,-109,1,-310,1,-224,1,-116,1,-43,1,13,1
552,-7,1,52,1,59,1,-22,1,-33,1,55,1,-103,1,-287,1,-208,1,-124,1,-57,1,-4,1
553,-8,1,39,1,47,1,-15,1,-27,1,43,1,-95,1,-260,1,-187,1,-122,1,-62,1,-16,1
554,-6,1,28,1,34,1,-11,1,-20,1,31,1,-83,1,-228,1,-164,1,-114,1,-60,1,-22,1
555,-6,1,20,1,26,1,-7,1,-16,1,23,1,-69,1,-194,1,-143,1,-104,1,-58,1,-23,1
556,-6,1,16,1,22,1,-5,1,-14,1,19,1,-53,1,-157,1,-125,1,-94,1,-56,1,-22,1
557,-6,1,12,1,18,1,-3,1,-12,1,15,1,-40,1,-124,1,-109,1,-84,1,-55,1,-22,1
558,-6,1,9,1,15,1,-1,1,-10,1,12,1,-30,1,-97,1,-96,1,-78,1,-54,1,-25,1
559,-6,1,5,1,11,1,0,1,-8,1,8,1,-24,1,-78,1,-84,1,-75,1,-54,1,-28,1
560,-5,1,0,1,5,1,2,1,-5,1,2,1,-23,1,-66,1,-73,1,-72,1,-55,1,-33,1
561,-5,1,-6,1,-1,1,5,1,-2,1,-4,1,-22,1,-62,1,-63,1,-70,1,-54,1,-38,1
562,-5,1,-12,1,-7,1,8,1,1,1,-10,1,-22,1,-61,1,-54,1,-68,1,-54,1,-42,1
563,-5,1,-17,1,-12,1,11,1,3,1,-15,1,-19,1,-61,1,-49,1,-67,1,-54,1,-44,1
564,-6,1,-19,1,-13,1,12,1,3,1,-16,1,-16,1,-59,1,-46,1,-65,1,-54,1,-45,1
565,-6,1,-21,1,-15,1,13,1,4,1,-18,1,-12,1,-53,1,-46,1,-64,1,-54,1,-44,1
566,-6,1,-20,1,-14,1,13,1,4,1,-17,1,-8,1,-47,1,-48,1,-63,1,-54,1,-44,1
567,-6,1,-20,1,-14,1,13,1,4,1,-17,1,-5,1,-38,1,-48,1,-63,1,-56,1,-44,1
568,-7,1,-20,1,-13,1,13,1,3,1,-17,1,-4,1,-31,1,-47,1,-63,1,-56,1,-44,1
569,-8,1,-21,1,-13,1,14,1,2,1,-17,1,-3,1,-28,1,-46,1,-63,1,-57,1,-45,1
570,-7,1,-22,1,-15,1,14,1,4,1,-19,1,-3,1,-28,1,-43,1,-62,1,-58,1,-47,1
571,-8,1,-22,1,-14,1,15,1,3,1,-18,1,-3,1,-30,1,-41,1,-62,1,-59,1,-49,1
572,-8,1,-24,1,-16,1,16,1,4,1,-20,1,-2,1,-31,1,-40,1,-63,1,-59,1,-49,1
573,-8,1,-24,1,-16,1,16,1,4,1,-20,1,-1,1,-32,1,-40,1,-63,1,-58,1,-51,1
574,-8,1,-25,1,-17,1,16,1,4,1,-21,1,-1,1,-31,1,-40,1,-63,1,-58,1,-51,1
575,-8,1,-26,1,-18,1,17,1,5,1,-22,1,0,1,-29,1,-39,1,-62,1,-58,1,-51,1
576,-9,1,-26,1,-17,1,17,1,4,1,-22,1,0,1,-27,1,-39,1,-62,1,-57,1,-50,1
577,-8,1,-26,1,-18,1,17,1,5,1,-22,1,0,1,-25,1,-39,1,-62,1,-57,1,-49,1
578,-8,1,-26,1,-18,1,17,1,5,1,-22,1,0,1,-23,1,-38,1,-61,1,-57,1,-49,1
579,-8,1,-26,1,-18,1,17,1,5,1,-22,1,0,1,-23,1,-37,1,-60,1,-57,1,-49,1
580,-8,1,-26,1,-18,1,17,1,5,1,-22,1,1,1,-22,1,-37,1,-60,1,-56,1,-49,1
581,-8,1,-26,1,-18,1,17,1,5,1,-22,1,1,1,-22,1,-36,1,-60,1,-55,1,-49,1
582,-8,1,-26,1,-18,1,17,1,5,1,-22,1,1,1,-22,1,-35,1,-60,1,-55,1,-49,1
583,-8,1,-26,1,-18,1,17,1,5,1,-22,1,1,1,-23,1,-35,1,-60,1,-54,1,-48,1
584,-8,1,-26,1,-18,1,17,1,5,1,-22,1,1,1,-23,1,-35,1,-59,1,-55,1,-49,1
585,-8,1,-26,1,-18,1,17,1,5,1,-22,1,1,1,-23,1,-35,1,-59,1,-54,1,-48,1
586,-9,1,-26,1,-17,1,17,1,4,1,-22,1,1,1,-23,1,-35,1,-59,1,-54,1,-48,1
587,-8,1,-26,1,-18,1,17,1,5,1,-22,1,1,1,-23,1,-35,1,-60,1,-54,1,-49,1
588,-8,1,-25,1,-17,1,16,1,4,1,-21,1,1,1,-23,1,-35,1,-58,1,-54,1,-48,1
589,-8,1,-25,1,-17,1,16,1,4,1,-21,1,1,1,-23,1,-35,1,-57,1,-54,1,-48,1
590,-8,1,-26,1,-18,1,17,1,5,1,-22,1,1,1,-23,1,-34,1,-58,1,-53,1,-47,1
591,-8,1,-26,1,-18,1,17,1,5,1,-22,1,1,1,-23,1,-34,1,-58,1,-53,1,-47,1
592,-8,1,-26,1,-18,1,17,1,5,1,-22,1,1,1,-23,1,-35,1,-58,1,-52,1,-46,1
593,-8,1,-26,1,-18,1,17,1,5,1,-22,1,0,1,-23,1,-35,1,-57,1,-52,1,-46,1
594,-8,1,-26,1,-18,1,17,1,5,1,-22,1,0,1,-22,1,-35,1,-57,1,-51,1,-45,1
595,-8,1,-25,1,-17,1,16,1,4,1,-21,1,0,1,-22,1,-35,1,-57,1,-50,1,-46,1
596,-8,1,-24,1,-16,1,16,1,4,1,-20,1,0,1,-22,1,-34,1,-57,1,-51,1,-45,1
597,-8,1,-24,1,-16,1,16,1,4,1,-20,1,0,1,-22,1,-35,1,-57,1,-50,1,-46,1
598,-8,1,-23,1,-15,1,15,1,3,1,-19,1,0,1,-22,1,-33,1,-56,1,-50,1,-46,1
599,-8,1,-23,1,-15,1,15,1,3,1,-19,1,0,1,-22,1,-33,1,-55,1,-49,1,-45,1
600,-8,1,-23,1,-15,1,15,1,3,1,-19,1,0,1,-22,1,-34,1,-55,1,-50,1,-45,1
601,-8,1,-23,1,-15,1,15,1,3,1,-19,1,-1,1,-22,1,-34,1,-56,1,-49,1,-45,1
602,-8,1,-23,1,-15,1,15,1,3,1,-19,1,0,1,-22,1,-34,1,-54,1,-48,1,-45,1
603,-8,1,-23,1,-15,1,15,1,3,1,-19,1,-1,1,-22,1,-33,1,-54,1,-48,1,-44,1
604,-8,1,-22,1,-14,1,15,1,3,1,-18,1,-1,1,-22,1,-33,1,-54,1,-47,1,-44,1
605,-8,1,-22,1,-14,1,15,1,3,1,-18,1,-1,1,-22,1,-33,1,-54,1,-47,1,-43,1
606,-8,1,-22,1,-14,1,15,1,3,1,-18,1,-2,1,-23,1,-34,1,-53,1,-46,1,-43,1
607,-7,1,-21,1,-14,1,14,1,3,1,-18,1,-1,1,-23,1,-33,1,-52,1,-45,1,-42,1
608,-7,1,-20,1,-13,1,13,1,3,1,-17,1,-1,1,-23,1,-33,1,-51,1,-44,1,-42,1
609,-7,1,-20,1,-13,1,13,1,3,1,-17,1,-1,1,-23,1,-31,1,-50,1,-43,1,-40,1
610,-6,1,-20,1,-14,1,13,1,4,1,-17,1,-1,1,-23,1,-31,1,-50,1,-43,1,-41,1
611,-6,1,-20,1,-14,1,13,1,4,1,-17,1,-1,1,-23,1,-30,1,-49,1,-42,1,-40,1
612,-6,1,-20,1,-14,1,13,1,4,1,-17,1,-1,1,-22,1,-29,1,-48,1,-42,1,-39,1
613,-7,1,-21,1,-14,1,14,1,3,1,-18,1,-2,1,-22,1,-29,1,-48,1,-41,1,-39,1
614,-7,1,-20,1,-13,1,13,1,3,1,-17,1,-2,1,-22,1,-29,1,-48,1,-42,1,-38,1
615,-7,1,-18,1,-11,1,12,1,2,1,-15,1,-3,1,-22,1,-29,1,-48,1,-41,1,-38,1
616,-7,1,-18,1,-11,1,12,1,2,1,-15,1,-2,1,-22,1,-29,1,-47,1,-41,1,-38,1
617,-7,1,-17,1,-10,1,12,1,1,1,-14,1,-2,1,-22,1,-29,1,-46,1,-40,1,-38,1
618,-7,1,-17,1,-10,1,12,1,1,1,-14,1,-3,1,-22,1,-28,1,-46,1,-39,1,-38,1
619,-5,1,-15,1,-10,1,10,1,2,1,-13,1,-3,1,-21,1,-28,1,-45,1,-39,1,-37,1
620,-5,1,-15,1,-10,1,10,1,2,1,-13,1,-3,1,-21,1,-27,1,-45,1,-38,1,-36,1
621,-5,1,-14,1,-9,1,9,1,2,1,-12,1,-3,1,-21,1,-27,1,-43,1,-38,1,-36,1
622,-4,1,-13,1,-9,1,8,1,2,1,-11,1,-2,1,-21,1,-24,1,-42,1,-37,1,-35,1
623,-4,1,-12,1,-8,1,8,1,2,1,-10,1,-3,1,-21,1,-24,1,-40,1,-36,1,-35,1
624,-4,1,-12,1,-8,1,8,1,2,1,-10,1,-4,1,-21,1,-24,1,-40,1,-36,1,-34,1
625,-4,1,-11,1,-7,1,7,1,1,1,-9,1,-4,1,-20,1,-23,1,-38,1,-35,1,-33,1
626,-3,1,-11,1,-8,1,7,1,2,1,-10,1,-4,1,-20,1,-23,1,-37,1,-35,1,-33,1
627,-3,1,-11,1,-8,1,7,1,2,1,-10,1,-5,1,-19,1,-22,1,-37,1,-34,1,-32,1
628,-3,1,-10,1,-7,1,6,1,2,1,-9,1,-4,1,-19,1,-21,1,-36,1,-33,1,-32,1
629,-3,1,-10,1,-7,1,6,1,2,1,-9,1,-4,1,-17,1,-20,1,-35,1,-31,1,-30,1
630,-3,1,-10,1,-7,1,6,1,2,1,-9,1,-5,1,-16,1,-19,1,-33,1,-30,1,-29,1
631,-2,1,-8,1,-6,1,5,1,2,1,-7,1,-5,1,-15,1,-17,1,-32,1,-28,1,-28,1
632,-2,1,-8,1,-6,1,5,1,2,1,-7,1,-5,1,-14,1,-17,1,-30,1,-27,1,-27,1
633,-2,1,-6,1,-4,1,4,1,1,1,-5,1,-6,1,-13,1,-15,1,-28,1,-25,1,-26,1
634,-1,1,-5,1,-4,1,3,1,1,1,-5,1,-6,1,-13,1,-14,1,-27,1,-24,1,-26,1
635,-1,1,-5,1,-4,1,3,1,1,1,-5,1,-7,1,-12,1,-13,1,-26,1,-23,1,-25,1
636,-1,1,-3,1,-2,1,2,1,0,1,-3,1,-7,1,-12,1,-12,1,-23,1,-22,1,-24,1
637,0,1,-3,1,-3,1,1,1,1,1,-3,1,-8,1,-11,1,-10,1,-22,1,-21,1,-23,1
638,1,1,-2,1,-3,1,0,1,2,1,-2,1,-9,1,-10,1,-8,1,-21,1,-18,1,-22,1
639,2,1,-1,1,-3,1,0,1,2,1,-2,1,-9,1,-9,1,-7,1,-20,1,-17,1,-20,1
640,2,1,0,1,-2,1,-1,1,2,1,-1,1,-9,1,-7,1,-5,1,-18,1,-14,1,-18,1
641,2,1,1,1,-1,1,-1,1,2,1,0,1,-9,1,-6,1,-3,1,-15,1,-11,1,-16,1
642,4,1,3,1,-1,1,-3,1,3,1,1,1,-9,1,-4,1,-1,1,-13,1,-8,1,-14,1
643,4,1,3,1,-1,1,-3,1,3,1,1,1,-10,1,-3,1,0,1,-11,1,-6,1,-13,1
644,5,1,4,1,-1,1,-4,1,3,1,2,1,-10,1,-2,1,2,1,-8,1,-4,1,-12,1
645,6,1,5,1,-1,1,-5,1,4,1,2,1,-10,1,-1,1,4,1,-5,1,-1,1,-10,1
646,6,1,6,1,0,1,-6,1,3,1,3,1,-10,1,0,1,6,1,-3,1,0,1,-9,1
647,7,1,7,1,0,1,-7,1,4,1,4,1,-11,1,2,1,9,1,-1,1,3,1,-7,1
648,8,1,8,1,0,1,-8,1,4,1,4,1,-11,1,4,1,12,1,2,1,4,1,-5,1
649,9,1,9,1,0,1,-9,1,5,1,5,1,-12,1,6,1,15,1,5,1,8,1,-4,1
650,10,1,11,1,1,1,-10,1,5,1,6,1,-12,1,8,1,19,1,10,1,11,1,-1,1
651,10,1,12,1,2,1,-11,1,4,1,7,1,-12,1,10,1,22,1,14,1,14,1,0,1
652,12,1,12,1,0,1,-12,1,6,1,6,1,-12,1,13,1,25,1,17,1,17,1,2,1
653,13,1,13,1,0,1,-13,1,7,1,7,1,-12,1,15,1,28,1,20,1,19,1,4,1
654,14,1,13,1,-1,1,-13,1,8,1,6,1,-13,1,16,1,30,1,23,1,22,1,5,1
655,15,1,14,1,-1,1,-14,1,8,1,7,1,-14,1,19,1,32,1,25,1,24,1,6,1
656,17,1,16,1,-1,1,-16,1,9,1,8,1,-15,1,19,1,35,1,28,1,26,1,8,1
657,18,1,18,1,0,1,-18,1,9,1,9,1,-16,1,22,1,37,1,31,1,29,1,9,1
658,19,1,20,1,1,1,-19,1,9,1,11,1,-17,1,23,1,40,1,35,1,33,1,11,1
659,19,1,21,1,2,1,-20,1,9,1,12,1,-17,1,25,1,44,1,38,1,36,1,13,1
660,19,1,23,1,4,1,-21,1,8,1,14,1,-18,1,28,1,47,1,43,1,40,1,15,1
661,21,1,23,1,2,1,-22,1,10,1,13,1,-18,1,30,1,51,1,46,1,43,1,17,1
662,23,1,23,1,0,1,-23,1,12,1,12,1,-19,1,32,1,54,1,49,1,45,1,19,1
663,25,1,22,1,-3,1,-23,1,14,1,10,1,-19,1,34,1,57,1,52,1,48,1,22,1
664,27,1,23,1,-4,1,-25,1,16,1,10,1,-20,1,35,1,59,1,54,1,50,1,23,1
665,28,1,23,1,-5,1,-25,1,17,1,9,1,-20,1,38,1,61,1,57,1,53,1,25,1
666,28,1,24,1,-4,1,-26,1,16,1,10,1,-20,1,39,1,63,1,59,1,54,1,25,1
667,28,1,25,1,-3,1,-26,1,16,1,11,1,-21,1,40,1,65,1,62,1,56,1,27,1
668,29,1,28,1,-1,1,-28,1,15,1,14,1,-22,1,41,1,68,1,66,1,59,1,27,1
669,29,1,28,1,-1,1,-28,1,15,1,14,1,-22,1,42,1,70,1,70,1,61,1,30,1
670,30,1,29,1,-1,1,-29,1,16,1,14,1,-24,1,45,1,73,1,72,1,63,1,30,1
671,31,1,29,1,-2,1,-30,1,17,1,14,1,-23,1,45,1,75,1,74,1,65,1,33,1
672,32,1,28,1,-4,1,-30,1,18,1,12,1,-23,1,47,1,77,1,75,1,67,1,33,1
673,33,1,29,1,-4,1,-31,1,19,1,13,1,-24,1,47,1,78,1,76,1,69,1,34,1
674,33,1,29,1,-4,1,-31,1,19,1,13,1,-25,1,48,1,81,1,79,1,70,1,34,1
675,34,1,29,1,-5,1,-31,1,20,1,12,1,-25,1,48,1,81,1,80,1,70,1,34,1
676,34,1,30,1,-4,1,-32,1,19,1,13,1,-26,1,48,1,82,1,82,1,71,1,34,1
677,34,1,30,1,-4,1,-32,1,19,1,13,1,-27,1,48,1,82,1,82,1,71,1,35,1
678,34,1,31,1,-3,1,-32,1,19,1,14,1,-27,1,48,1,83,1,84,1,72,1,36,1
679,34,1,31,1,-3,1,-32,1,19,1,14,1,-28,1,48,1,83,1,85,1,72,1,37,1
680,35,1,31,1,-4,1,-33,1,20,1,14,1,-28,1,48,1,84,1,85,1,73,1,37,1
681,36,1,31,1,-5,1,-33,1,21,1,13,1,-28,1,48,1,83,1,85,1,73,1,38,1
682,35,1,31,1,-4,1,-33,1,20,1,14,1,-28,1,47,1,83,1,84,1,72,1,37,1
683,35,1,30,1,-5,1,-32,1,20,1,13,1,-27,1,47,1,82,1,83,1,72,1,37,1
684,35,1,30,1,-5,1,-32,1,20,1,13,1,-28,1,47,1,80,1,81,1,71,1,36,1
685,36,1,30,1,-6,1,-33,1,21,1,12,1,-28,1,46,1,79,1,79,1,70,1,35,1
686,34,1,28,1,-6,1,-31,1,20,1,11,1,-28,1,45,1,78,1,76,1,68,1,33,1
687,33,1,28,1,-5,1,-30,1,19,1,12,1,-27,1,44,1,76,1,73,1,65,1,31,1
688,33,1,27,1,-6,1,-30,1,20,1,11,1,-26,1,42,1,73,1,70,1,61,1,28,1
689,33,1,26,1,-7,1,-29,1,20,1,10,1,-25,1,40,1,71,1,67,1,57,1,26,1
690,31,1,24,1,-7,1,-27,1,19,1,9,1,-24,1,38,1,68,1,63,1,52,1,24,1
691,29,1,21,1,-8,1,-25,1,19,1,7,1,-21,1,35,1,66,1,59,1,48,1,21,1
692,28,1,19,1,-9,1,-23,1,19,1,5,1,-20,1,34,1,63,1,54,1,45,1,19,1
693,26,1,17,1,-9,1,-21,1,18,1,4,1,-19,1,33,1,60,1,50,1,40,1,15,1
694,24,1,15,1,-9,1,-19,1,17,1,3,1,-18,1,32,1,56,1,45,1,37,1,13,1
695,22,1,13,1,-9,1,-17,1,16,1,2,1,-17,1,30,1,52,1,40,1,32,1,9,1
696,21,1,10,1,-11,1,-15,1,16,1,0,1,-16,1,27,1,48,1,34,1,28,1,6,1
697,19,1,8,1,-11,1,-13,1,15,1,-1,1,-15,1,26,1,44,1,30,1,22,1,2,1
698,17,1,6,1,-11,1,-11,1,14,1,-2,1,-14,1,24,1,42,1,25,1,17,1,-1,1
699,15,1,3,1,-12,1,-9,1,14,1,-4,1,-12,1,22,1,38,1,20,1,12,1,-3,1
700,14,1,1,1,-13,1,-7,1,14,1,-6,1,-10,1,21,1,35,1,16,1,8,1,-6,1
701,13,1,0,1,-13,1,-6,1,13,1,-6,1,-9,1,21,1,33,1,13,1,5,1,-8,1
702,12,1,-2,1,-14,1,-5,1,13,1,-8,1,-7,1,20,1,31,1,9,1,3,1,-11,1
703,11,1,-3,1,-14,1,-4,1,12,1,-8,1,-6,1,19,1,28,1,7,1,0,1,-13,1
704,9,1,-4,1,-13,1,-2,1,11,1,-8,1,-6,1,18,1,25,1,3,1,-3,1,-16,1
705,7,1,-6,1,-13,1,0,1,10,1,-9,1,-4,1,16,1,23,1,0,1,-4,1,-18,1
706,6,1,-7,1,-13,1,0,1,9,1,-10,1,-3,1,14,1,20,1,-3,1,-8,1,-21,1
707,4,1,-9,1,-13,1,2,1,8,1,-11,1,-3,1,13,1,18,1,-5,1,-11,1,-22,1
708,3,1,-10,1,-13,1,3,1,8,1,-11,1,-2,1,12,1,16,1,-7,1,-13,1,-24,1
709,2,1,-14,1,-16,1,6,1,9,1,-15,1,-1,1,11,1,15,1,-9,1,-15,1,-25,1
710,1,1,-16,1,-17,1,7,1,9,1,-16,1,0,1,11,1,14,1,-11,1,-17,1,-26,1
711,1,1,-16,1,-17,1,7,1,9,1,-16,1,1,1,10,1,12,1,-13,1,-19,1,-27,1
712,0,1,-18,1,-18,1,9,1,9,1,-18,1,1,1,10,1,10,1,-14,1,-20,1,-29,1
713,0,1,-18,1,-18,1,9,1,9,1,-18,1,2,1,9,1,8,1,-16,1,-21,1,-30,1
714,0,1,-18,1,-18,1,9,1,9,1,-18,1,2,1,8,1,4,1,-18,1,-21,1,-31,1
715,0,1,-20,1,-20,1,10,1,10,1,-20,1,3,1,6,1,3,1,-21,1,-23,1,-32,1
716,-2,1,-21,1,-19,1,11,1,8,1,-20,1,3,1,5,1,2,1,-23,1,-24,1,-32,1
717,-3,1,-21,1,-18,1,12,1,7,1,-20,1,3,1,4,1,1,1,-25,1,-26,1,-33,1
718,-3,1,-22,1,-19,1,12,1,8,1,-21,1,3,1,4,1,0,1,-27,1,-27,1,-34,1
719,-3,1,-22,1,-19,1,12,1,8,1,-21,1,3,1,4,1,0,1,-28,1,-28,1,-35,1
720,-3,1,-22,1,-19,1,12,1,8,1,-21,1,4,1,3,1,-1,1,-28,1,-29,1,-36,1
721,-4,1,-22,1,-18,1,13,1,7,1,-20,1,4,1,3,1,-1,1,-28,1,-29,1,-36,1
722,-4,1,-23,1,-19,1,13,1,7,1,-21,1,5,1,2,1,-2,1,-28,1,-30,1,-36,1
723,-4,1,-23,1,-19,1,13,1,7,1,-21,1,5,1,2,1,-2,1,-29,1,-30,1,-36,1
724,-4,1,-23,1,-19,1,13,1,7,1,-21,1,6,1,2,1,-4,1,-29,1,-30,1,-35,1
725,-5,1,-24,1,-19,1,14,1,7,1,-22,1,6,1,1,1,-4,1,-30,1,-29,1,-37,1
726,-5,1,-24,1,-19,1,14,1,7,1,-22,1,6,1,0,1,-4,1,-30,1,-30,1,-37,1
727,-5,1,-24,1,-19,1,14,1,7,1,-22,1,6,1,-1,1,-5,1,-30,1,-30,1,-38,1
728,-5,1,-23,1,-18,1,14,1,6,1,-21,1,6,1,-2,1,-5,1,-31,1,-31,1,-37,1
729,-5,1,-23,1,-18,1,14,1,6,1,-21,1,5,1,-2,1,-5,1,-32,1,-30,1,-37,1
730,-5,1,-24,1,-19,1,14,1,7,1,-22,1,5,1,-2,1,-5,1,-33,1,-29,1,-37,1
731,-5,1,-25,1,-20,1,15,1,7,1,-23,1,5,1,-2,1,-5,1,-32,1,-29,1,-37,1
732,-6,1,-25,1,-19,1,15,1,6,1,-22,1,5,1,-2,1,-6,1,-32,1,-29,1,-36,1
733,-6,1,-25,1,-19,1,15,1,6,1,-22,1,5,1,-2,1,-5,1,-32,1,-30,1,-36,1
734,-6,1,-25,1,-19,1,15,1,6,1,-22,1,5,1,-3,1,-5,1,-32,1,-30,1,-36,1
735,-6,1,-25,1,-19,1,15,1,6,1,-22,1,4,1,-3,1,-5,1,-32,1,-30,1,-36,1
736,-7,1,-26,1,-19,1,16,1,6,1,-23,1,4,1,-3,1,-6,1,-32,1,-30,1,-36,1
737,-7,1,-25,1,-18,1,16,1,5,1,-22,1,5,1,-4,1,-6,1,-32,1,-30,1,-37,1
738,-7,1,-25,1,-18,1,16,1,5,1,-22,1,5,1,-4,1,-7,1,-32,1,-30,1,-37,1
739,-7,1,-25,1,-18,1,16,1,5,1,-22,1,5,1,-5,1,-7,1,-32,1,-31,1,-38,1
740,-7,1,-25,1,-18,1,16,1,5,1,-22,1,5,1,-5,1,-8,1,-32,1,-30,1,-37,1
741,-7,1,-25,1,-18,1,16,1,5,1,-22,1,5,1,-6,1,-8,1,-32,1,-31,1,-36,1
742,-8,1,-26,1,-18,1,17,1,5,1,-22,1,5,1,-6,1,-8,1,-32,1,-30,1,-37,1
743,-8,1,-26,1,-18,1,17,1,5,1,-22,1,5,1,-6,1,-8,1,-32,1,-31,1,-36,1
744,-8,1,-26,1,-18,1,17,1,5,1,-22,1,5,1,-7,1,-8,1,-32,1,-31,1,-37,1
745,-8,1,-26,1,-18,1,17,1,5,1,-22,1,5,1,-7,1,-8,1,-33,1,-32,1,-38,1
746,-9,1,-25,1,-16,1,17,1,3,1,-21,1,5,1,-9,1,-8,1,-32,1,-32,1,-38,1
747,-9,1,-25,1,-16,1,17,1,3,1,-21,1,5,1,-9,1,-9,1,-33,1,-32,1,-38,1
748,-9,1,-25,1,-16,1,17,1,3,1,-21,1,5,1,-10,1,-9,1,-34,1,-32,1,-38,1
749,-9,1,-25,1,-16,1,17,1,3,1,-21,1,5,1,-10,1,-10,1,-34,1,-32,1,-37,1
750,-9,1,-25,1,-16,1,17,1,3,1,-21,1,5,1,-11,1,-10,1,-34,1,-32,1,-37,1
751,-9,1,-25,1,-16,1,17,1,3,1,-21,1,6,1,-11,1,-10,1,-33,1,-31,1,-37,1
752,-10,1,-25,1,-15,1,17,1,2,1,-20,1,6,1,-11,1,-10,1,-33,1,-31,1,-37,1
753,-10,1,-25,1,-15,1,17,1,2,1,-20,1,6,1,-12,1,-10,1,-34,1,-31,1,-36,1
754,-10,1,-25,1,-15,1,17,1,2,1,-20,1,5,1,-12,1,-11,1,-34,1,-31,1,-36,1
755,-10,1,-25,1,-15,1,17,1,2,1,-20,1,5,1,-12,1,-12,1,-35,1,-31,1,-36,1
756,-11,1,-24,1,-13,1,17,1,1,1,-19,1,5,1,-13,1,-13,1,-35,1,-32,1,-36,1
757,-10,1,-24,1,-14,1,17,1,2,1,-19,1,5,1,-14,1,-13,1,-36,1,-32,1,-36,1
758,-10,1,-24,1,-14,1,17,1,2,1,-19,1,5,1,-15,1,-14,1,-37,1,-33,1,-37,1
759,-9,1,-24,1,-15,1,16,1,3,1,-20,1,5,1,-15,1,-14,1,-37,1,-32,1,-36,1
760,-9,1,-24,1,-15,1,16,1,3,1,-20,1,5,1,-16,1,-14,1,-38,1,-32,1,-37,1
761,-9,1,-23,1,-14,1,16,1,2,1,-19,1,5,1,-16,1,-15,1,-36,1,-31,1,-36,1
762,-10,1,-23,1,-13,1,16,1,1,1,-18,1,4,1,-16,1,-15,1,-36,1,-30,1,-36,1
763,-10,1,-23,1,-13,1,16,1,1,1,-18,1,4,1,-16,1,-15,1,-36,1,-30,1,-35,1
764,-10,1,-23,1,-13,1,16,1,1,1,-18,1,4,1,-16,1,-15,1,-37,1,-30,1,-35,1
765,-10,1,-23,1,-13,1,16,1,1,1,-18,1,3,1,-17,1,-15,1,-37,1,-30,1,-35,1
766,-10,1,-23,1,-13,1,16,1,1,1,-18,1,3,1,-17,1,-16,1,-36,1,-31,1,-35,1
767,-10,1,-22,1,-12,1,16,1,1,1,-17,1,3,1,-18,1,-16,1,-37,1,-31,1,-34,1
768,-10,1,-21,1,-11,1,15,1,0,1,-16,1,3,1,-18,1,-15,1,-37,1,-31,1,-35,1
769,-10,1,-21,1,-11,1,15,1,0,1,-16,1,3,1,-19,1,-16,1,-36,1,-31,1,-35,1
770,-10,1,-21,1,-11,1,15,1,0,1,-16,1,3,1,-19,1,-16,1,-36,1,-31,1,-35,1
771,-10,1,-22,1,-12,1,16,1,1,1,-17,1,4,1,-20,1,-17,1,-36,1,-31,1,-35,1
772,-10,1,-22,1,-12,1,16,1,1,1,-17,1,4,1,-19,1,-17,1,-36,1,-30,1,-35,1
773,-11,1,-22,1,-11,1,16,1,0,1,-17,1,3,1,-19,1,-17,1,-37,1,-30,1,-34,1
774,-10,1,-22,1,-12,1,16,1,1,1,-17,1,3,1,-19,1,-17,1,-37,1,-29,1,-34,1
775,-10,1,-21,1,-11,1,15,1,0,1,-16,1,2,1,-19,1,-17,1,-37,1,-30,1,-33,1
776,-10,1,-21,1,-11,1,15,1,0,1,-16,1,2,1,-19,1,-17,1,-36,1,-29,1,-34,1
777,-10,1,-20,1,-10,1,15,1,0,1,-15,1,2,1,-19,1,-17,1,-36,1,-29,1,-33,1
778,-10,1,-20,1,-10,1,15,1,0,1,-15,1,3,1,-19,1,-17,1,-36,1,-28,1,-34,1
779,-9,1,-19,1,-10,1,14,1,0,1,-15,1,2,1,-19,1,-15,1,-36,1,-29,1,-33,1
780,-9,1,-18,1,-9,1,13,1,0,1,-14,1,2,1,-19,1,-15,1,-35,1,-27,1,-33,1
781,-9,1,-18,1,-9,1,13,1,0,1,-14,1,2,1,-19,1,-14,1,-34,1,-26,1,-32,1
782,-8,1,-18,1,-10,1,13,1,1,1,-14,1,2,1,-19,1,-14,1,-33,1,-26,1,-33,1
783,-8,1,-17,1,-9,1,12,1,0,1,-13,1,2,1,-19,1,-15,1,-33,1,-26,1,-32,1
784,-8,1,-17,1,-9,1,12,1,0,1,-13,1,1,1,-19,1,-15,1,-33,1,-26,1,-32,1
785,-8,1,-16,1,-8,1,12,1,0,1,-12,1,1,1,-19,1,-15,1,-32,1,-25,1,-31,1
786,-8,1,-16,1,-8,1,12,1,0,1,-12,1,1,1,-19,1,-15,1,-31,1,-26,1,-32,1
787,-8,1,-16,1,-8,1,12,1,0,1,-12,1,1,1,-18,1,-15,1,-31,1,-25,1,-30,1
788,-8,1,-16,1,-8,1,12,1,0,1,-12,1,1,1,-18,1,-14,1,-31,1,-24,1,-30,1
789,-8,1,-16,1,-8,1,12,1,0,1,-12,1,1,1,-18,1,-14,1,-30,1,-23,1,-29,1
790,-7,1,-17,1,-10,1,12,1,1,1,-14,1,2,1,-16,1,-12,1,-30,1,-23,1,-29,1
791,-7,1,-17,1,-10,1,12,1,1,1,-14,1,2,1,-16,1,-11,1,-29,1,-22,1,-28,1
792,-7,1,-17,1,-10,1,12,1,1,1,-14,1,2,1,-16,1,-11,1,-29,1,-22,1,-28,1
793,-7,1,-17,1,-10,1,12,1,1,1,-14,1,2,1,-16,1,-11,1,-29,1,-21,1,-27,1
794,-6,1,-17,1,-11,1,11,1,2,1,-14,1,2,1,-16,1,-11,1,-29,1,-22,1,-28,1
795,-5,1,-17,1,-12,1,11,1,3,1,-15,1,2,1,-15,1,-11,1,-29,1,-21,1,-27,1
796,-6,1,-16,1,-10,1,11,1,2,1,-13,1,1,1,-15,1,-11,1,-28,1,-21,1,-28,1
797,-6,1,-16,1,-10,1,11,1,2,1,-13,1,1,1,-14,1,-11,1,-28,1,-21,1,-28,1
798,-5,1,-15,1,-10,1,10,1,2,1,-13,1,2,1,-14,1,-10,1,-28,1,-22,1,-29,1
799,-5,1,-15,1,-10,1,10,1,2,1,-13,1,2,1,-14,1,-10,1,-28,1,-21,1,-28,1
800,-5,1,-16,1,-11,1,10,1,3,1,-14,1,2,1,-14,1,-9,1,-27,1,-21,1,-28,1
801,-5,1,-16,1,-11,1,10,1,3,1,-14,1,2,1,-14,1,-8,1,-27,1,-20,1,-28,1
802,-5,1,-15,1,-10,1,10,1,2,1,-13,1,2,1,-13,1,-7,1,-26,1,-20,1,-28,1
803,-4,1,-15,1,-11,1,9,1,3,1,-13,1,2,1,-13,1,-7,1,-26,1,-19,1,-27,1
804,-4,1,-15,1,-11,1,9,1,3,1,-13,1,2,1,-13,1,-7,1,-26,1,-18,1,-27,1
805,-4,1,-15,1,-11,1,9,1,3,1,-13,1,2,1,-13,1,-7,1,-26,1,-18,1,-27,1
806,-3,1,-14,1,-11,1,8,1,4,1,-13,1,2,1,-13,1,-7,1,-27,1,-18,1,-27,1
807,-3,1,-14,1,-11,1,8,1,4,1,-13,1,1,1,-13,1,-7,1,-26,1,-19,1,-27,1
808,-3,1,-14,1,-11,1,8,1,4,1,-13,1,1,1,-13,1,-7,1,-25,1,-18,1,-29,1
809,-3,1,-14,1,-11,1,8,1,4,1,-13,1,1,1,-12,1,-7,1,-25,1,-18,1,-28,1
810,-2,1,-15,1,-13,1,8,1,5,1,-14,1,0,1,-11,1,-7,1,-24,1,-17,1,-29,1
811,-2,1,-15,1,-13,1,8,1,5,1,-14,1,0,1,-10,1,-6,1,-24,1,-17,1,-28,1
812,-2,1,-15,1,-13,1,8,1,5,1,-14,1,0,1,-10,1,-6,1,-24,1,-16,1,-28,1
813,-2,1,-16,1,-14,1,9,1,6,1,-15,1,0,1,-10,1,-7,1,-24,1,-16,1,-27,1
814,-2,1,-16,1,-14,1,9,1,6,1,-15,1,0,1,-10,1,-6,1,-24,1,-16,1,-28,1
815,-2,1,-16,1,-14,1,9,1,6,1,-15,1,0,1,-10,1,-6,1,-24,1,-17,1,-27,1
816,-2,1,-15,1,-13,1,8,1,5,1,-14,1,0,1,-10,1,-7,1,-24,1,-17,1,-28,1
817,-2,1,-15,1,-13,1,8,1,5,1,-14,1,0,1,-10,1,-7,1,-24,1,-17,1,-28,1
818,-2,1,-16,1,-14,1,9,1,6,1,-15,1,0,1,-10,1,-7,1,-24,1,-17,1,-29,1
819,-2,1,-16,1,-14,1,9,1,6,1,-15,1,0,1,-10,1,-7,1,-24,1,-17,1,-28,1
820,-1,1,-16,1,-15,1,8,1,7,1,-16,1,0,1,-10,1,-7,1,-24,1,-17,1,-30,1
821,-1,1,-16,1,-15,1,8,1,7,1,-16,1,0,1,-9,1,-7,1,-25,1,-17,1,-29,1
822,-1,1,-17,1,-16,1,9,1,7,1,-17,1,0,1,-9,1,-8,1,-25,1,-17,1,-29,1
823,-1,1,-17,1,-16,1,9,1,7,1,-17,1,0,1,-9,1,-8,1,-24,1,-18,1,-28,1
824,-1,1,-17,1,-16,1,9,1,7,1,-17,1,0,1,-10,1,-8,1,-24,1,-19,1,-28,1
825,-1,1,-17,1,-16,1,9,1,7,1,-17,1,-1,1,-10,1,-7,1,-24,1,-20,1,-29,1
826,-1,1,-16,1,-15,1,8,1,7,1,-16,1,0,1,-10,1,-7,1,-25,1,-22,1,-29,1
827,-1,1,-16,1,-15,1,8,1,7,1,-16,1,0,1,-10,1,-8,1,-25,1,-24,1,-29,1
828,-1,1,-16,1,-15,1,8,1,7,1,-16,1,0,1,-9,1,-8,1,-25,1,-24,1,-31,1
829,-1,1,-17,1,-16,1,9,1,7,1,-17,1,0,1,-9,1,-9,1,-26,1,-26,1,-31,1
830,-1,1,-17,1,-16,1,9,1,7,1,-17,1,0,1,-8,1,-9,1,-26,1,-26,1,-31,1
831,-1,1,-17,1,-16,1,9,1,7,1,-17,1,0,1,-8,1,-10,1,-27,1,-29,1,-30,1
832,-1,1,-17,1,-16,1,9,1,7,1,-17,1,0,1,-8,1,-10,1,-27,1,-29,1,-30,1
833,-1,1,-18,1,-17,1,9,1,8,1,-18,1,0,1,-9,1,-10,1,-26,1,-30,1,-30,1
834,-1,1,-18,1,-17,1,9,1,8,1,-18,1,-1,1,-9,1,-10,1,-26,1,-31,1,-31,1
835,0,1,-18,1,-18,1,9,1,9,1,-18,1,-1,1,-9,1,-11,1,-27,1,-33,1,-30,1
836,0,1,-17,1,-17,1,8,1,8,1,-17,1,0,1,-9,1,-10,1,-27,1,-34,1,-32,1
837,0,1,-17,1,-17,1,8,1,8,1,-17,1,0,1,-9,1,-10,1,-28,1,-36,1,-33,1
838,0,1,-17,1,-17,1,8,1,8,1,-17,1,0,1,-10,1,-11,1,-29,1,-37,1,-33,1
839,0,1,-17,1,-17,1,8,1,8,1,-17,1,0,1,-10,1,-11,1,-28,1,-38,1,-32,1
840,0,1,-18,1,-18,1,9,1,9,1,-18,1,0,1,-9,1,-12,1,-29,1,-38,1,-32,1
841,0,1,-18,1,-18,1,9,1,9,1,-18,1,0,1,-9,1,-12,1,-29,1,-39,1,-32,1
842,1,1,-18,1,-19,1,8,1,10,1,-18,1,0,1,-10,1,-12,1,-29,1,-39,1,-32,1
843,1,1,-19,1,-20,1,9,1,10,1,-19,1,0,1,-10,1,-12,1,-29,1,-39,1,-31,1
844,1,1,-19,1,-20,1,9,1,10,1,-19,1,0,1,-11,1,-12,1,-28,1,-39,1,-31,1
845,1,1,-17,1,-18,1,8,1,9,1,-17,1,0,1,-11,1,-12,1,-28,1,-40,1,-31,1
846,0,1,-16,1,-16,1,8,1,8,1,-16,1,0,1,-10,1,-12,1,-28,1,-39,1,-31,1
847,0,1,-14,1,-14,1,7,1,7,1,-14,1,0,1,-9,1,-10,1,-28,1,-39,1,-31,1
848,1,1,-14,1,-15,1,6,1,8,1,-14,1,1,1,-8,1,-9,1,-27,1,-38,1,-31,1
849,1,1,-13,1,-14,1,6,1,7,1,-13,1,3,1,-8,1,-9,1,-26,1,-38,1,-31,1
850,2,1,-13,1,-15,1,5,1,8,1,-14,1,4,1,-6,1,-9,1,-25,1,-37,1,-30,1
851,3,1,-12,1,-15,1,4,1,9,1,-13,1,5,1,-6,1,-8,1,-25,1,-37,1,-30,1
852,2,1,-12,1,-14,1,5,1,8,1,-13,1,6,1,-4,1,-7,1,-25,1,-37,1,-30,1
853,3,1,-11,1,-14,1,4,1,8,1,-12,1,6,1,-3,1,-6,1,-25,1,-37,1,-30,1
854,3,1,-10,1,-13,1,3,1,8,1,-11,1,7,1,-3,1,-6,1,-25,1,-36,1,-29,1
855,5,1,-10,1,-15,1,2,1,10,1,-12,1,7,1,-3,1,-6,1,-23,1,-36,1,-29,1
856,5,1,-9,1,-14,1,2,1,9,1,-11,1,6,1,-3,1,-6,1,-23,1,-36,1,-29,1
857,6,1,-8,1,-14,1,1,1,10,1,-11,1,6,1,-3,1,-6,1,-23,1,-36,1,-28,1
858,6,1,-8,1,-14,1,1,1,10,1,-11,1,6,1,-3,1,-6,1,-23,1,-35,1,-27,1
859,6,1,-8,1,-14,1,1,1,10,1,-11,1,5,1,-2,1,-4,1,-22,1,-35,1,-27,1
860,7,1,-8,1,-15,1,0,1,11,1,-11,1,5,1,-1,1,-4,1,-21,1,-33,1,-26,1
861,8,1,-8,1,-16,1,0,1,12,1,-12,1,4,1,-1,1,-2,1,-20,1,-33,1,-26,1
862,9,1,-8,1,-17,1,0,1,13,1,-12,1,4,1,0,1,-2,1,-20,1,-32,1,-25,1
863,11,1,-7,1,-18,1,-2,1,14,1,-12,1,4,1,0,1,-2,1,-20,1,-33,1,-25,1
864,12,1,-6,1,-18,1,-3,1,15,1,-12,1,2,1,1,1,-2,1,-20,1,-32,1,-24,1
865,12,1,-6,1,-18,1,-3,1,15,1,-12,1,2,1,3,1,-1,1,-20,1,-32,1,-25,1
866,12,1,-6,1,-18,1,-3,1,15,1,-12,1,1,1,3,1,0,1,-19,1,-32,1,-24,1
867,12,1,-5,1,-17,1,-3,1,14,1,-11,1,1,1,2,1,0,1,-18,1,-32,1,-25,1
868,13,1,-3,1,-16,1,-5,1,14,1,-9,1,1,1,2,1,0,1,-17,1,-31,1,-25,1
869,13,1,-2,1,-15,1,-5,1,14,1,-8,1,1,1,2,1,1,1,-17,1,-29,1,-24,1
870,13,1,-2,1,-15,1,-5,1,14,1,-8,1,0,1,2,1,1,1,-17,1,-28,1,-23,1
871,14,1,-1,1,-15,1,-6,1,14,1,-8,1,-1,1,1,1,1,1,-16,1,-28,1,-23,1
872,15,1,-1,1,-16,1,-7,1,15,1,-8,1,-3,1,0,1,0,1,-16,1,-27,1,-23,1
873,15,1,0,1,-15,1,-7,1,15,1,-7,1,-5,1,0,1,-1,1,-17,1,-27,1,-23,1
874,17,1,0,1,-17,1,-8,1,17,1,-8,1,-7,1,-2,1,-3,1,-17,1,-26,1,-22,1
875,17,1,1,1,-16,1,-9,1,17,1,-7,1,-9,1,-3,1,-3,1,-18,1,-26,1,-22,1
876,18,1,2,1,-16,1,-10,1,17,1,-7,1,-11,1,-5,1,-4,1,-19,1,-26,1,-21,1
877,20,1,2,1,-18,1,-11,1,19,1,-8,1,-12,1,-7,1,-5,1,-18,1,-26,1,-21,1
878,21,1,1,1,-20,1,-11,1,21,1,-9,1,-13,1,-7,1,-6,1,-18,1,-26,1,-20,1
879,23,1,0,1,-23,1,-11,1,23,1,-11,1,-15,1,-8,1,-7,1,-19,1,-27,1,-20,1
880,24,1,0,1,-24,1,-12,1,24,1,-12,1,-15,1,-10,1,-9,1,-22,1,-27,1,-21,1
881,24,1,-1,1,-25,1,-11,1,24,1,-13,1,-16,1,-11,1,-10,1,-22,1,-28,1,-20,1
882,24,1,-2,1,-26,1,-11,1,25,1,-14,1,-16,1,-11,1,-10,1,-22,1,-28,1,-20,1
883,24,1,-2,1,-26,1,-11,1,25,1,-14,1,-16,1,-12,1,-11,1,-22,1,-29,1,-21,1
884,24,1,-2,1,-26,1,-11,1,25,1,-14,1,-15,1,-12,1,-11,1,-23,1,-29,1,-22,1
885,24,1,-3,1,-27,1,-10,1,25,1,-15,1,-15,1,-12,1,-12,1,-25,1,-30,1,-22,1
886,24,1,-3,1,-27,1,-10,1,25,1,-15,1,-15,1,-12,1,-13,1,-26,1,-30,1,-23,1
887,24,1,-4,1,-28,1,-10,1,26,1,-16,1,-14,1,-12,1,-13,1,-26,1,-31,1,-22,1
888,23,1,-5,1,-28,1,-9,1,25,1,-16,1,-13,1,-12,1,-14,1,-25,1,-30,1,-23,1
889,22,1,-5,1,-27,1,-8,1,24,1,-16,1,-13,1,-12,1,-14,1,-25,1,-32,1,-22,1
890,22,1,-5,1,-27,1,-8,1,24,1,-16,1,-12,1,-12,1,-15,1,-25,1,-31,1,-23,1
891,21,1,-6,1,-27,1,-7,1,24,1,-16,1,-11,1,-13,1,-15,1,-26,1,-31,1,-23,1
892,20,1,-7,1,-27,1,-6,1,23,1,-17,1,-10,1,-13,1,-15,1,-26,1,-31,1,-23,1
893,19,1,-8,1,-27,1,-5,1,23,1,-17,1,-9,1,-13,1,-14,1,-26,1,-32,1,-23,1
894,18,1,-10,1,-28,1,-4,1,23,1,-19,1,-9,1,-13,1,-14,1,-27,1,-33,1,-24,1
895,15,1,-12,1,-27,1,-1,1,21,1,-19,1,-9,1,-13,1,-15,1,-28,1,-34,1,-26,1
896,13,1,-14,1,-27,1,0,1,20,1,-20,1,-8,1,-14,1,-16,1,-29,1,-36,1,-28,1
897,12,1,-15,1,-27,1,1,1,19,1,-21,1,-7,1,-14,1,-17,1,-31,1,-37,1,-30,1
898,11,1,-16,1,-27,1,2,1,19,1,-21,1,-7,1,-14,1,-18,1,-32,1,-39,1,-31,1
899,10,1,-18,1,-28,1,4,1,19,1,-23,1,-7,1,-14,1,-19,1,-33,1,-39,1,-32,1
900,8,1,-19,1,-27,1,5,1,17,1,-23,1,-6,1,-14,1,-19,1,-34,1,-41,1,-34,1
901,6,1,-21,1,-27,1,7,1,16,1,-24,1,-6,1,-15,1,-20,1,-35,1,-42,1,-35,1
902,6,1,-22,1,-28,1,8,1,17,1,-25,1,-5,1,-15,1,-20,1,-35,1,-44,1,-35,1
903,5,1,-22,1,-27,1,8,1,16,1,-24,1,-4,1,-16,1,-20,1,-36,1,-45,1,-37,1
904,5,1,-23,1,-28,1,9,1,16,1,-25,1,-4,1,-15,1,-20,1,-37,1,-45,1,-37,1
905,5,1,-23,1,-28,1,9,1,16,1,-25,1,-4,1,-16,1,-21,1,-37,1,-45,1,-39,1
906,5,1,-25,1,-30,1,10,1,17,1,-27,1,-5,1,-16,1,-22,1,-39,1,-47,1,-39,1
907,5,1,-26,1,-31,1,10,1,18,1,-28,1,-5,1,-17,1,-22,1,-40,1,-47,1,-41,1
908,5,1,-26,1,-31,1,10,1,18,1,-28,1,-4,1,-18,1,-23,1,-40,1,-47,1,-41,1
909,4,1,-26,1,-30,1,11,1,17,1,-28,1,-3,1,-17,1,-24,1,-41,1,-47,1,-41,1
910,4,1,-27,1,-31,1,11,1,17,1,-29,1,-3,1,-17,1,-24,1,-40,1,-46,1,-41,1
911,3,1,-28,1,-31,1,12,1,17,1,-29,1,-3,1,-17,1,-24,1,-40,1,-46,1,-41,1
912,3,1,-29,1,-32,1,13,1,17,1,-30,1,-2,1,-17,1,-24,1,-40,1,-45,1,-41,1
913,2,1,-29,1,-31,1,13,1,16,1,-30,1,-2,1,-18,1,-25,1,-40,1,-45,1,-42,1
914,2,1,-29,1,-31,1,13,1,16,1,-30,1,-2,1,-18,1,-25,1,-41,1,-46,1,-41,1
915,2,1,-29,1,-31,1,13,1,16,1,-30,1,-3,1,-18,1,-25,1,-42,1,-45,1,-42,1
916,1,1,-28,1,-29,1,13,1,15,1,-28,1,-3,1,-18,1,-25,1,-41,1,-46,1,-42,1
917,1,1,-28,1,-29,1,13,1,15,1,-28,1,-3,1,-18,1,-24,1,-42,1,-47,1,-42,1
918,1,1,-28,1,-29,1,13,1,15,1,-28,1,-3,1,-18,1,-24,1,-41,1,-48,1,-42,1
919,0,1,-28,1,-28,1,14,1,14,1,-28,1,-3,1,-18,1,-24,1,-41,1,-48,1,-43,1
920,1,1,-29,1,-30,1,14,1,15,1,-29,1,-3,1,-17,1,-24,1,-41,1,-49,1,-43,1
921,1,1,-30,1,-31,1,14,1,16,1,-30,1,-3,1,-17,1,-24,1,-41,1,-48,1,-43,1
922,0,1,-31,1,-31,1,15,1,15,1,-31,1,-3,1,-17,1,-24,1,-40,1,-49,1,-43,1
923,0,1,-31,1,-31,1,15,1,15,1,-31,1,-2,1,-18,1,-24,1,-40,1,-49,1,-42,1
924,0,1,-31,1,-31,1,15,1,15,1,-31,1,-2,1,-17,1,-25,1,-40,1,-50,1,-43,1
925,0,1,-31,1,-31,1,15,1,15,1,-31,1,-3,1,-17,1,-25,1,-41,1,-50,1,-42,1
926,0,1,-31,1,-31,1,15,1,15,1,-31,1,-3,1,-17,1,-26,1,-41,1,-52,1,-43,1
927,0,1,-31,1,-31,1,15,1,15,1,-31,1,-2,1,-18,1,-26,1,-42,1,-52,1,-44,1
928,0,1,-30,1,-30,1,15,1,15,1,-30,1,-1,1,-18,1,-26,1,-42,1,-53,1,-44,1
929,0,1,-30,1,-30,1,15,1,15,1,-30,1,-1,1,-18,1,-26,1,-42,1,-52,1,-44,1
930,1,1,-30,1,-31,1,14,1,16,1,-30,1,-1,1,-18,1,-25,1,-42,1,-52,1,-44,1
931,0,1,-31,1,-31,1,15,1,15,1,-31,1,-1,1,-19,1,-25,1,-42,1,-52,1,-43,1
932,0,1,-32,1,-32,1,16,1,16,1,-32,1,0,1,-19,1,-25,1,-42,1,-52,1,-43,1
933,0,1,-32,1,-32,1,16,1,16,1,-32,1,-1,1,-19,1,-26,1,-43,1,-51,1,-43,1
934,0,1,-31,1,-31,1,15,1,15,1,-31,1,-2,1,-19,1,-26,1,-42,1,-51,1,-43,1
935,1,1,-31,1,-32,1,15,1,16,1,-31,1,-2,1,-19,1,-26,1,-42,1,-51,1,-44,1
936,0,1,-31,1,-31,1,15,1,15,1,-31,1,-2,1,-19,1,-27,1,-43,1,-51,1,-43,1
937,1,1,-30,1,-31,1,14,1,16,1,-30,1,-2,1,-19,1,-27,1,-43,1,-52,1,-45,1
938,1,1,-30,1,-31,1,14,1,16,1,-30,1,-1,1,-20,1,-27,1,-43,1,-53,1,-45,1
939,1,1,-30,1,-31,1,14,1,16,1,-30,1,-1,1,-19,1,-26,1,-43,1,-53,1,-45,1
940,1,1,-31,1,-32,1,15,1,16,1,-31,1,-1,1,-19,1,-27,1,-42,1,-53,1,-44,1
941,1,1,-31,1,-32,1,15,1,16,1,-31,1,-1,1,-19,1,-27,1,-43,1,-53,1,-44,1
942,1,1,-31,1,-32,1,15,1,16,1,-31,1,0,1,-20,1,-27,1,-43,1,-52,1,-43,1
943,0,1,-31,1,-31,1,15,1,15,1,-31,1,-1,1,-21,1,-27,1,-44,1,-52,1,-43,1
944,0,1,-31,1,-31,1,15,1,15,1,-31,1,-1,1,-21,1,-27,1,-44,1,-51,1,-43,1
945,0,1,-32,1,-32,1,16,1,16,1,-32,1,-2,1,-20,1,-27,1,-43,1,-52,1,-44,1
946,0,1,-32,1,-32,1,16,1,16,1,-32,1,-2,1,-18,1,-27,1,-44,1,-52,1,-44,1
947,1,1,-32,1,-33,1,15,1,17,1,-32,1,-1,1,-16,1,-28,1,-45,1,-54,1,-45,1
948,1,1,-34,1,-35,1,16,1,18,1,-34,1,0,1,-13,1,-28,1,-46,1,-56,1,-47,1
949,0,1,-36,1,-36,1,18,1,18,1,-36,1,3,1,-5,1,-27,1,-49,1,-60,1,-51,1
950,0,1,-39,1,-39,1,19,1,19,1,-39,1,6,1,8,1,-24,1,-52,1,-65,1,-55,1
951,-2,1,-42,1,-40,1,22,1,19,1,-41,1,14,1,29,1,-19,1,-54,1,-72,1,-59,1
952,-5,1,-45,1,-40,1,25,1,17,1,-43,1,25,1,57,1,-13,1,-58,1,-80,1,-66,1
953,-7,1,-49,1,-42,1,28,1,17,1,-46,1,40,1,88,1,-7,1,-63,1,-89,1,-72,1
954,-9,1,-52,1,-43,1,30,1,17,1,-48,1,59,1,120,1,3,1,-68,1,-98,1,-79,1
955,-9,1,-54,1,-45,1,31,1,18,1,-50,1,80,1,152,1,17,1,-68,1,-103,1,-84,1
956,-10,1,-53,1,-43,1,31,1,16,1,-48,1,102,1,185,1,38,1,-65,1,-103,1,-84,1
957,-8,1,-50,1,-42,1,29,1,17,1,-46,1,124,1,218,1,66,1,-53,1,-93,1,-80,1
958,-4,1,-41,1,-37,1,22,1,16,1,-39,1,140,1,248,1,101,1,-29,1,-73,1,-68,1
959,6,1,-26,1,-32,1,10,1,19,1,-29,1,146,1,272,1,141,1,7,1,-39,1,-47,1
960,24,1,-5,1,-29,1,-9,1,26,1,-17,1,142,1,285,1,184,1,59,1,8,1,-15,1
961,47,1,22,1,-25,1,-34,1,36,1,-1,1,128,1,285,1,223,1,122,1,69,1,25,1
962,70,1,55,1,-15,1,-62,1,43,1,20,1,110,1,270,1,262,1,194,1,139,1,74,1
963,91,1,91,1,0,1,-91,1,46,1,46,1,92,1,245,1,298,1,268,1,212,1,124,1
964,107,1,127,1,20,1,-117,1,44,1,74,1,76,1,209,1,328,1,338,1,280,1,172,1
965,115,1,158,1,43,1,-136,1,36,1,101,1,56,1,159,1,348,1,398,1,340,1,215,1
966,118,1,180,1,62,1,-149,1,28,1,121,1,27,1,94,1,351,1,441,1,388,1,251,1
967,119,1,194,1,75,1,-156,1,22,1,135,1,-9,1,16,1,338,1,461,1,420,1,277,1
968,120,1,197,1,77,1,-158,1,22,1,137,1,-49,1,-65,1,308,1,458,1,430,1,291,1
969,118,1,193,1,75,1,-155,1,22,1,134,1,-86,1,-142,1,261,1,426,1,416,1,291,1
970,112,1,183,1,71,1,-147,1,21,1,127,1,-115,1,-210,1,196,1,367,1,373,1,275,1
971,103,1,169,1,66,1,-136,1,19,1,118,1,-135,1,-262,1,119,1,286,1,307,1,246,1
972,93,1,153,1,60,1,-123,1,17,1,107,1,-146,1,-300,1,35,1,197,1,235,1,212,1
973,81,1,139,1,58,1,-110,1,12,1,99,1,-150,1,-327,1,-44,1,117,1,167,1,177,1
974,66,1,127,1,61,1,-96,1,3,1,94,1,-147,1,-344,1,-109,1,49,1,109,1,143,1
975,50,1,114,1,64,1,-82,1,-7,1,89,1,-142,1,-349,1,-157,1,-5,1,60,1,111,1
976,35,1,99,1,64,1,-67,1,-14,1,82,1,-136,1,-343,1,-184,1,-45,1,22,1,79,1
977,23,1,84,1,61,1,-53,1,-19,1,73,1,-130,1,-328,1,-190,1,-72,1,-7,1,53,1
978,13,1,68,1,55,1,-40,1,-21,1,62,1,-122,1,-303,1,-181,1,-85,1,-26,1,31,1
979,6,1,53,1,47,1,-29,1,-20,1,50,1,-111,1,-272,1,-162,1,-86,1,-38,1,17,1
980,3,1,42,1,39,1,-22,1,-18,1,41,1,-97,1,-236,1,-141,1,-82,1,-43,1,8,1
981,3,1,36,1,33,1,-19,1,-15,1,35,1,-81,1,-199,1,-120,1,-74,1,-42,1,5,1
982,4,1,31,1,27,1,-17,1,-11,1,29,1,-64,1,-162,1,-103,1,-64,1,-41,1,4,1
983,5,1,27,1,22,1,-16,1,-8,1,25,1,-48,1,-128,1,-90,1,-56,1,-40,1,3,1
984,5,1,21,1,16,1,-13,1,-5,1,19,1,-36,1,-102,1,-79,1,-50,1,-40,1,0,1
985,5,1,15,1,10,1,-10,1,-2,1,13,1,-28,1,-83,1,-69,1,-47,1,-40,1,-6,1
986,3,1,8,1,5,1,-5,1,-1,1,7,1,-25,1,-73,1,-61,1,-46,1,-42,1,-13,1
987,1,1,1,1,0,1,-1,1,1,1,1,1,-25,1,-68,1,-54,1,-45,1,-44,1,-22,1
988,0,1,-4,1,-4,1,2,1,2,1,-4,1,-25,1,-68,1,-47,1,-45,1,-46,1,-27,1
989,-1,1,-8,1,-7,1,4,1,3,1,-8,1,-24,1,-66,1,-42,1,-45,1,-47,1,-31,1
990,-1,1,-9,1,-8,1,5,1,3,1,-9,1,-21,1,-63,1,-38,1,-43,1,-49,1,-30,1
991,-2,1,-9,1,-7,1,5,1,2,1,-8,1,-16,1,-57,1,-37,1,-43,1,-48,1,-29,1
992,-3,1,-9,1,-6,1,6,1,1,1,-8,1,-11,1,-49,1,-37,1,-43,1,-49,1,-28,1
993,-3,1,-9,1,-6,1,6,1,1,1,-8,1,-7,1,-42,1,-38,1,-42,1,-51,1,-28,1
994,-3,1,-9,1,-6,1,6,1,1,1,-8,1,-6,1,-36,1,-39,1,-42,1,-53,1,-29,1
995,-4,1,-12,1,-8,1,8,1,2,1,-10,1,-6,1,-34,1,-39,1,-43,1,-53,1,-30,1
996,-4,1,-13,1,-9,1,8,1,2,1,-11,1,-6,1,-34,1,-38,1,-44,1,-54,1,-33,1
997,-5,1,-15,1,-10,1,10,1,2,1,-13,1,-7,1,-36,1,-37,1,-45,1,-55,1,-33,1
998,-6,1,-16,1,-10,1,11,1,2,1,-13,1,-7,1,-38,1,-36,1,-46,1,-55,1,-35,1
999,-6,1,-16,1,-10,1,11,1,2,1,-13,1,-7,1,-38,1,-36,1,-46,1,-55,1,-36,1
1000,-6,1,-18,1,-12,1,12,1,3,1,-15,1,-6,1,-37,1,-35,1,-46,1,-55,1,-37,1
1001,-6,1,-18,1,-12,1,12,1,3,1,-15,1,-4,1,-35,1,-34,1,-45,1,-55,1,-37,1
1002,-6,1,-19,1,-13,1,12,1,3,1,-16,1,-4,1,-33,1,-34,1,-45,1,-55,1,-37,1
1003,-6,1,-20,1,-14,1,13,1,4,1,-17,1,-4,1,-31,1,-34,1,-45,1,-55,1,-36,1
1004,-6,1,-19,1,-13,1,12,1,3,1,-16,1,-4,1,-31,1,-34,1,-46,1,-54,1,-36,1
1005,-6,1,-18,1,-12,1,12,1,3,1,-15,1,-4,1,-30,1,-34,1,-45,1,-54,1,-36,1
1006,-6,1,-18,1,-12,1,12,1,3,1,-15,1,-5,1,-30,1,-34,1,-45,1,-54,1,-36,1
1007,-6,1,-17,1,-11,1,11,1,2,1,-14,1,-4,1,-30,1,-34,1,-45,1,-55,1,-37,1
1008,-6,1,-17,1,-11,1,11,1,2,1,-14,1,-4,1,-30,1,-33,1,-45,1,-55,1,-38,1
1009,-6,1,-17,1,-11,1,11,1,2,1,-14,1,-4,1,-29,1,-32,1,-45,1,-56,1,-38,1
1010,-5,1,-18,1,-13,1,11,1,4,1,-16,1,-4,1,-28,1,-32,1,-45,1,-56,1,-38,1
1011,-5,1,-18,1,-13,1,11,1,4,1,-16,1,-4,1,-28,1,-33,1,-44,1,-56,1,-38,1
1012,-5,1,-18,1,-13,1,11,1,4,1,-16,1,-4,1,-28,1,-33,1,-44,1,-56,1,-37,1
1013,-5,1,-19,1,-14,1,12,1,4,1,-17,1,-3,1,-28,1,-33,1,-44,1,-57,1,-37,1
1014,-5,1,-19,1,-14,1,12,1,4,1,-17,1,-3,1,-28,1,-33,1,-44,1,-57,1,-36,1
1015,-5,1,-17,1,-12,1,11,1,3,1,-15,1,-3,1,-29,1,-33,1,-44,1,-59,1,-37,1
1016,-5,1,-16,1,-11,1,10,1,3,1,-14,1,-3,1,-29,1,-33,1,-44,1,-61,1,-36,1
1017,-5,1,-15,1,-10,1,10,1,2,1,-13,1,-4,1,-29,1,-33,1,-44,1,-60,1,-37,1
1018,-5,1,-15,1,-10,1,10,1,2,1,-13,1,-3,1,-29,1,-32,1,-43,1,-62,1,-37,1
1019,-5,1,-15,1,-10,1,10,1,2,1,-13,1,-2,1,-28,1,-31,1,-42,1,-61,1,-37,1
1020,-5,1,-16,1,-11,1,10,1,3,1,-14,1,-2,1,-28,1,-31,1,-42,1,-62,1,-36,1
1021,-5,1,-16,1,-11,1,10,1,3,1,-14,1,-1,1,-28,1,-32,1,-43,1,-61,1,-36,1
1022,-5,1,-17,1,-12,1,11,1,3,1,-15,1,-2,1,-28,1,-32,1,-43,1,-61,1,-35,1
1023,-4,1,-17,1,-13,1,10,1,4,1,-15,1,-2,1,-28,1,-32,1,-42,1,-60,1,-35,1
1024,-4,1,-16,1,-12,1,10,1,4,1,-14,1,-3,1,-28,1,-32,1,-42,1,-60,1,-36,1
1025,-5,1,-15,1,-10,1,10,1,2,1,-13,1,-3,1,-28,1,-32,1,-42,1,-59,1,-35,1
1026,-5,1,-14,1,-9,1,9,1,2,1,-12,1,-3,1,-28,1,-32,1,-42,1,-60,1,-36,1
1027,-5,1,-13,1,-8,1,9,1,1,1,-11,1,-3,1,-28,1,-32,1,-42,1,-59,1,-35,1
1028,-5,1,-13,1,-8,1,9,1,1,1,-11,1,-3,1,-28,1,-32,1,-42,1,-60,1,-35,1
1029,-5,1,-14,1,-9,1,9,1,2,1,-12,1,-2,1,-28,1,-32,1,-41,1,-60,1,-34,1
1030,-5,1,-13,1,-8,1,9,1,1,1,-11,1,-2,1,-28,1,-30,1,-40,1,-60,1,-34,1
1031,-4,1,-12,1,-8,1,8,1,2,1,-10,1,-2,1,-28,1,-30,1,-40,1,-60,1,-33,1
1032,-3,1,-12,1,-9,1,7,1,3,1,-11,1,-2,1,-28,1,-31,1,-40,1,-59,1,-33,1
1033,-3,1,-12,1,-9,1,7,1,3,1,-11,1,-2,1,-28,1,-31,1,-41,1,-59,1,-32,1
1034,-3,1,-12,1,-9,1,7,1,3,1,-11,1,-2,1,-28,1,-31,1,-41,1,-59,1,-32,1
1035,-3,1,-11,1,-8,1,7,1,2,1,-10,1,-3,1,-27,1,-31,1,-40,1,-59,1,-33,1
1036,-3,1,-10,1,-7,1,6,1,2,1,-9,1,-3,1,-27,1,-31,1,-40,1,-60,1,-32,1
1037,-3,1,-10,1,-7,1,6,1,2,1,-9,1,-4,1,-27,1,-31,1,-40,1,-60,1,-33,1
1038,-3,1,-9,1,-6,1,6,1,1,1,-8,1,-4,1,-26,1,-30,1,-39,1,-59,1,-31,1
1039,-3,1,-9,1,-6,1,6,1,1,1,-8,1,-4,1,-26,1,-30,1,-38,1,-59,1,-31,1
1040,-3,1,-10,1,-7,1,6,1,2,1,-9,1,-4,1,-26,1,-30,1,-38,1,-58,1,-31,1
1041,-3,1,-8,1,-5,1,5,1,1,1,-7,1,-4,1,-25,1,-28,1,-37,1,-57,1,-31,1
1042,-3,1,-8,1,-5,1,5,1,1,1,-7,1,-4,1,-25,1,-28,1,-36,1,-57,1,-30,1
1043,-3,1,-8,1,-5,1,5,1,1,1,-7,1,-5,1,-25,1,-28,1,-35,1,-57,1,-30,1
1044,-3,1,-8,1,-5,1,5,1,1,1,-7,1,-5,1,-26,1,-28,1,-35,1,-57,1,-30,1
1045,-3,1,-6,1,-3,1,4,1,0,1,-5,1,-5,1,-25,1,-27,1,-34,1,-55,1,-29,1
1046,-3,1,-6,1,-3,1,4,1,0,1,-5,1,-5,1,-25,1,-27,1,-34,1,-54,1,-29,1
1047,-2,1,-6,1,-4,1,4,1,1,1,-5,1,-5,1,-25,1,-26,1,-33,1,-54,1,-28,1
1048,-2,1,-5,1,-3,1,3,1,0,1,-4,1,-6,1,-24,1,-26,1,-31,1,-54,1,-28,1
1049,-2,1,-4,1,-2,1,3,1,0,1,-3,1,-6,1,-24,1,-25,1,-31,1,-53,1,-26,1
1050,-1,1,-4,1,-3,1,2,1,1,1,-4,1,-6,1,-23,1,-24,1,-30,1,-51,1,-26,1
1051,0,1,-2,1,-2,1,1,1,1,1,-2,1,-6,1,-23,1,-23,1,-29,1,-51,1,-25,1
1052,0,1,-2,1,-2,1,1,1,1,1,-2,1,-6,1,-23,1,-22,1,-28,1,-50,1,-25,1
1053,1,1,-1,1,-2,1,0,1,1,1,-1,1,-6,1,-23,1,-21,1,-28,1,-50,1,-24,1
1054,1,1,0,1,-1,1,0,1,1,1,0,1,-7,1,-23,1,-21,1,-26,1,-49,1,-24,1
1055,2,1,0,1,-2,1,-1,1,2,1,-1,1,-7,1,-23,1,-20,1,-26,1,-49,1,-24,1
1056,2,1,1,1,-1,1,-1,1,2,1,0,1,-7,1,-22,1,-20,1,-25,1,-48,1,-23,1
1057,2,1,2,1,0,1,-2,1,1,1,1,1,-7,1,-21,1,-19,1,-24,1,-48,1,-23,1
1058,2,1,2,1,0,1,-2,1,1,1,1,1,-7,1,-21,1,-18,1,-23,1,-47,1,-21,1
1059,3,1,2,1,-1,1,-2,1,2,1,1,1,-8,1,-20,1,-16,1,-21,1,-46,1,-20,1
1060,4,1,2,1,-2,1,-3,1,3,1,0,1,-8,1,-19,1,-15,1,-20,1,-45,1,-19,1
1061,5,1,3,1,-2,1,-4,1,4,1,1,1,-9,1,-16,1,-13,1,-17,1,-43,1,-18,1
1062,6,1,4,1,-2,1,-5,1,4,1,1,1,-9,1,-15,1,-12,1,-16,1,-42,1,-16,1
1063,7,1,5,1,-2,1,-6,1,5,1,2,1,-9,1,-14,1,-10,1,-14,1,-41,1,-16,1
1064,7,1,6,1,-1,1,-6,1,4,1,3,1,-10,1,-13,1,-8,1,-13,1,-40,1,-16,1
1065,7,1,7,1,0,1,-7,1,4,1,4,1,-10,1,-12,1,-7,1,-11,1,-39,1,-15,1
1066,8,1,7,1,-1,1,-7,1,5,1,3,1,-11,1,-12,1,-6,1,-10,1,-38,1,-14,1
1067,8,1,8,1,0,1,-8,1,4,1,4,1,-11,1,-11,1,-5,1,-8,1,-37,1,-13,1
1068,9,1,9,1,0,1,-9,1,5,1,5,1,-11,1,-10,1,-3,1,-6,1,-35,1,-12,1
1069,9,1,11,1,2,1,-10,1,4,1,7,1,-12,1,-9,1,-2,1,-4,1,-33,1,-11,1
1070,10,1,12,1,2,1,-11,1,4,1,7,1,-13,1,-8,1,0,1,-2,1,-31,1,-9,1
1071,12,1,13,1,1,1,-12,1,6,1,7,1,-13,1,-6,1,2,1,0,1,-29,1,-8,1
1072,13,1,14,1,1,1,-13,1,6,1,8,1,-13,1,-4,1,4,1,2,1,-26,1,-5,1
1073,13,1,15,1,2,1,-14,1,6,1,9,1,-13,1,-2,1,6,1,5,1,-24,1,-4,1
1074,15,1,16,1,1,1,-15,1,7,1,9,1,-14,1,-1,1,8,1,7,1,-21,1,-2,1
1075,15,1,16,1,1,1,-15,1,7,1,9,1,-14,1,1,1,10,1,9,1,-20,1,-2,1
1076,16,1,17,1,1,1,-16,1,8,1,9,1,-16,1,2,1,13,1,11,1,-18,1,0,1
1077,17,1,19,1,2,1,-18,1,8,1,11,1,-16,1,3,1,15,1,14,1,-15,1,0,1
1078,17,1,20,1,3,1,-18,1,7,1,12,1,-16,1,5,1,18,1,17,1,-13,1,2,1
1079,18,1,22,1,4,1,-20,1,7,1,13,1,-17,1,7,1,20,1,21,1,-10,1,4,1
1080,19,1,23,1,4,1,-21,1,8,1,14,1,-18,1,9,1,23,1,25,1,-8,1,7,1
1081,21,1,24,1,3,1,-22,1,9,1,14,1,-19,1,12,1,25,1,28,1,-4,1,8,1
1082,22,1,26,1,4,1,-24,1,9,1,15,1,-19,1,14,1,29,1,31,1,-2,1,10,1
1083,23,1,27,1,4,1,-25,1,10,1,16,1,-20,1,16,1,32,1,34,1,0,1,12,1
1084,24,1,28,1,4,1,-26,1,10,1,16,1,-20,1,18,1,35,1,37,1,2,1,14,1
1085,26,1,28,1,2,1,-27,1,12,1,15,1,-21,1,20,1,37,1,40,1,3,1,15,1
1086,27,1,30,1,3,1,-28,1,12,1,17,1,-22,1,22,1,40,1,43,1,5,1,16,1
1087,28,1,30,1,2,1,-29,1,13,1,16,1,-23,1,23,1,44,1,45,1,7,1,18,1
1088,29,1,32,1,3,1,-30,1,13,1,18,1,-23,1,26,1,47,1,48,1,9,1,19,1
1089,30,1,33,1,3,1,-31,1,14,1,18,1,-23,1,29,1,49,1,51,1,11,1,21,1
1090,31,1,33,1,2,1,-32,1,15,1,18,1,-24,1,31,1,52,1,54,1,14,1,23,1
1091,32,1,34,1,2,1,-33,1,15,1,18,1,-24,1,33,1,55,1,57,1,16,1,23,1
1092,33,1,35,1,2,1,-34,1,16,1,19,1,-25,1,35,1,58,1,60,1,19,1,26,1
1093,35,1,36,1,1,1,-35,1,17,1,19,1,-25,1,37,1,60,1,62,1,21,1,27,1
1094,36,1,37,1,1,1,-36,1,18,1,19,1,-25,1,38,1,62,1,64,1,23,1,28,1
1095,37,1,39,1,2,1,-38,1,18,1,21,1,-26,1,39,1,64,1,66,1,25,1,29,1
1096,38,1,39,1,1,1,-38,1,19,1,20,1,-27,1,39,1,65,1,68,1,27,1,29,1
1097,38,1,40,1,2,1,-39,1,18,1,21,1,-28,1,40,1,67,1,70,1,28,1,30,1
1098,38,1,40,1,2,1,-39,1,18,1,21,1,-29,1,41,1,69,1,72,1,30,1,31,1
1099,39,1,40,1,1,1,-39,1,19,1,21,1,-30,1,42,1,71,1,74,1,32,1,33,1
1100,39,1,41,1,2,1,-40,1,19,1,22,1,-29,1,44,1,73,1,76,1,33,1,33,1
1101,40,1,41,1,1,1,-40,1,20,1,21,1,-29,1,45,1,75,1,78,1,36,1,36,1
1102,40,1,42,1,2,1,-41,1,19,1,22,1,-29,1,46,1,77,1,80,1,37,1,36,1
1103,41,1,42,1,1,1,-41,1,20,1,22,1,-30,1,46,1,78,1,81,1,38,1,37,1
1104,41,1,42,1,1,1,-41,1,20,1,22,1,-30,1,46,1,78,1,82,1,39,1,37,1
1105,42,1,42,1,0,1,-42,1,21,1,21,1,-31,1,46,1,78,1,82,1,39,1,36,1
1106,42,1,42,1,0,1,-42,1,21,1,21,1,-32,1,45,1,78,1,82,1,40,1,37,1
1107,43,1,43,1,0,1,-43,1,22,1,22,1,-32,1,45,1,77,1,82,1,40,1,37,1
1108,43,1,42,1,-1,1,-42,1,22,1,21,1,-32,1,45,1,77,1,81,1,41,1,38,1
1109,42,1,41,1,-1,1,-41,1,22,1,20,1,-33,1,45,1,78,1,81,1,40,1,38,1
1110,42,1,40,1,-2,1,-41,1,22,1,19,1,-33,1,45,1,78,1,81,1,40,1,38,1
1111,42,1,39,1,-3,1,-40,1,23,1,18,1,-33,1,44,1,77,1,80,1,40,1,36,1
1112,41,1,38,1,-3,1,-39,1,22,1,18,1,-32,1,43,1,75,1,79,1,40,1,36,1
1113,40,1,38,1,-2,1,-39,1,21,1,18,1,-32,1,42,1,74,1,77,1,39,1,34,1
1114,39,1,37,1,-2,1,-38,1,21,1,18,1,-33,1,41,1,72,1,74,1,35,1,33,1
1115,38,1,36,1,-2,1,-37,1,20,1,17,1,-33,1,40,1,68,1,71,1,34,1,31,1
1116,38,1,34,1,-4,1,-36,1,21,1,15,1,-32,1,38,1,65,1,68,1,30,1,29,1
1117,37,1,32,1,-5,1,-34,1,21,1,14,1,-32,1,37,1,62,1,64,1,28,1,27,1
1118,35,1,30,1,-5,1,-32,1,20,1,13,1,-31,1,35,1,58,1,58,1,23,1,24,1
1119,33,1,29,1,-4,1,-31,1,19,1,13,1,-29,1,32,1,56,1,54,1,18,1,21,1
1120,33,1,27,1,-6,1,-30,1,20,1,11,1,-28,1,30,1,53,1,49,1,14,1,18,1
1121,31,1,25,1,-6,1,-28,1,19,1,10,1,-27,1,28,1,50,1,45,1,10,1,15,1
1122,30,1,23,1,-7,1,-26,1,19,1,8,1,-24,1,27,1,47,1,41,1,5,1,12,1
1123,29,1,21,1,-8,1,-25,1,19,1,7,1,-23,1,25,1,43,1,38,1,1,1,8,1
1124,27,1,19,1,-8,1,-23,1,18,1,6,1,-21,1,24,1,40,1,34,1,-2,1,5,1
1125,25,1,17,1,-8,1,-21,1,17,1,5,1,-21,1,22,1,36,1,29,1,-7,1,3,1
1126,23,1,15,1,-8,1,-19,1,16,1,4,1,-21,1,20,1,32,1,25,1,-10,1,0,1
1127,22,1,13,1,-9,1,-17,1,16,1,2,1,-19,1,18,1,28,1,21,1,-14,1,-2,1
1128,20,1,11,1,-9,1,-15,1,15,1,1,1,-18,1,16,1,24,1,15,1,-17,1,-4,1
1129,19,1,9,1,-10,1,-14,1,15,1,0,1,-17,1,15,1,21,1,13,1,-20,1,-7,1
1130,18,1,6,1,-12,1,-12,1,15,1,-3,1,-15,1,13,1,19,1,9,1,-24,1,-8,1
1131,16,1,3,1,-13,1,-9,1,15,1,-5,1,-14,1,11,1,17,1,5,1,-27,1,-10,1
1132,14,1,0,1,-14,1,-7,1,14,1,-7,1,-12,1,10,1,15,1,2,1,-30,1,-12,1
1133,13,1,-1,1,-14,1,-6,1,13,1,-7,1,-12,1,9,1,12,1,-1,1,-32,1,-14,1
1134,12,1,-2,1,-14,1,-5,1,13,1,-8,1,-11,1,7,1,10,1,-4,1,-36,1,-16,1
1135,11,1,-3,1,-14,1,-4,1,12,1,-8,1,-11,1,6,1,7,1,-6,1,-39,1,-18,1
1136,11,1,-4,1,-15,1,-3,1,13,1,-9,1,-10,1,5,1,4,1,-8,1,-40,1,-20,1
1137,9,1,-6,1,-15,1,-1,1,12,1,-10,1,-10,1,4,1,2,1,-10,1,-42,1,-21,1
1138,7,1,-6,1,-13,1,0,1,10,1,-9,1,-10,1,3,1,1,1,-11,1,-43,1,-22,1
1139,6,1,-7,1,-13,1,0,1,9,1,-10,1,-9,1,2,1,-1,1,-14,1,-45,1,-24,1
1140,5,1,-8,1,-13,1,1,1,9,1,-10,1,-8,1,1,1,-2,1,-16,1,-45,1,-25,1
1141,5,1,-8,1,-13,1,1,1,9,1,-10,1,-7,1,1,1,-3,1,-16,1,-46,1,-26,1
1142,5,1,-9,1,-14,1,2,1,9,1,-11,1,-7,1,1,1,-4,1,-18,1,-46,1,-27,1
1143,5,1,-10,1,-15,1,2,1,10,1,-12,1,-6,1,0,1,-5,1,-19,1,-47,1,-28,1
1144,4,1,-11,1,-15,1,3,1,9,1,-13,1,-6,1,-1,1,-6,1,-20,1,-49,1,-28,1
1145,4,1,-12,1,-16,1,4,1,10,1,-14,1,-6,1,-3,1,-8,1,-21,1,-49,1,-29,1
1146,4,1,-12,1,-16,1,4,1,10,1,-14,1,-7,1,-4,1,-9,1,-21,1,-50,1,-28,1
1147,3,1,-12,1,-15,1,4,1,9,1,-13,1,-7,1,-5,1,-10,1,-23,1,-50,1,-29,1
1148,3,1,-12,1,-15,1,4,1,9,1,-13,1,-7,1,-5,1,-11,1,-24,1,-52,1,-29,1
1149,3,1,-13,1,-16,1,5,1,9,1,-14,1,-6,1,-6,1,-12,1,-24,1,-52,1,-30,1
1150,2,1,-13,1,-15,1,5,1,8,1,-14,1,-6,1,-7,1,-13,1,-24,1,-52,1,-30,1
1151,2,1,-13,1,-15,1,5,1,8,1,-14,1,-6,1,-7,1,-13,1,-24,1,-52,1,-30,1
1152,1,1,-14,1,-15,1,6,1,8,1,-14,1,-5,1,-7,1,-14,1,-24,1,-52,1,-29,1
1153,1,1,-14,1,-15,1,6,1,8,1,-14,1,-6,1,-7,1,-15,1,-24,1,-52,1,-30,1
1154,1,1,-14,1,-15,1,6,1,8,1,-14,1,-7,1,-8,1,-15,1,-25,1,-52,1,-30,1
1155,0,1,-14,1,-14,1,7,1,7,1,-14,1,-6,1,-9,1,-16,1,-25,1,-52,1,-30,1
1156,0,1,-15,1,-15,1,7,1,7,1,-15,1,-6,1,-10,1,-16,1,-26,1,-52,1,-31,1
1157,0,1,-15,1,-15,1,7,1,7,1,-15,1,-6,1,-10,1,-16,1,-27,1,-53,1,-31,1
1158,0,1,-15,1,-15,1,7,1,7,1,-15,1,-6,1,-11,1,-16,1,-27,1,-52,1,-31,1
1159,0,1,-15,1,-15,1,7,1,7,1,-15,1,-6,1,-11,1,-17,1,-27,1,-52,1,-30,1
1160,-1,1,-16,1,-15,1,8,1,7,1,-16,1,-6,1,-11,1,-17,1,-26,1,-51,1,-30,1
1161,-1,1,-16,1,-15,1,8,1,7,1,-16,1,-6,1,-11,1,-18,1,-26,1,-50,1,-30,1
1162,0,1,-16,1,-16,1,8,1,8,1,-16,1,-7,1,-11,1,-17,1,-26,1,-51,1,-30,1
1163,0,1,-16,1,-16,1,8,1,8,1,-16,1,-7,1,-11,1,-17,1,-26,1,-50,1,-30,1
1164,0,1,-15,1,-15,1,7,1,7,1,-15,1,-7,1,-12,1,-17,1,-26,1,-50,1,-30,1
1165,0,1,-15,1,-15,1,7,1,7,1,-15,1,-7,1,-13,1,-17,1,-27,1,-50,1,-30,1
1166,-1,1,-15,1,-14,1,8,1,6,1,-15,1,-7,1,-13,1,-18,1,-27,1,-49,1,-31,1
1167,-1,1,-15,1,-14,1,8,1,6,1,-15,1,-7,1,-14,1,-18,1,-27,1,-49,1,-31,1
1168,-1,1,-14,1,-13,1,7,1,6,1,-14,1,-7,1,-14,1,-18,1,-27,1,-48,1,-31,1
1169,0,1,-14,1,-14,1,7,1,7,1,-14,1,-7,1,-15,1,-19,1,-27,1,-48,1,-31,1
1170,0,1,-15,1,-15,1,7,1,7,1,-15,1,-7,1,-16,1,-19,1,-27,1,-48,1,-31,1
1171,0,1,-15,1,-15,1,7,1,7,1,-15,1,-7,1,-16,1,-20,1,-27,1,-47,1,-30,1
1172,-1,1,-15,1,-14,1,8,1,6,1,-15,1,-7,1,-16,1,-20,1,-26,1,-47,1,-30,1
1173,-1,1,-16,1,-15,1,8,1,7,1,-16,1,-7,1,-16,1,-19,1,-26,1,-46,1,-29,1
1174,-1,1,-16,1,-15,1,8,1,7,1,-16,1,-7,1,-16,1,-19,1,-26,1,-47,1,-29,1
1175,-1,1,-14,1,-13,1,7,1,6,1,-14,1,-8,1,-16,1,-19,1,-27,1,-47,1,-30,1
1176,-2,1,-14,1,-12,1,8,1,5,1,-13,1,-8,1,-17,1,-20,1,-27,1,-47,1,-29,1
1177,-2,1,-14,1,-12,1,8,1,5,1,-13,1,-7,1,-17,1,-20,1,-28,1,-47,1,-30,1
1178,-2,1,-14,1,-12,1,8,1,5,1,-13,1,-7,1,-17,1,-20,1,-28,1,-48,1,-30,1
1179,-2,1,-14,1,-12,1,8,1,5,1,-13,1,-7,1,-18,1,-21,1,-27,1,-48,1,-30,1
1180,-3,1,-14,1,-11,1,8,1,4,1,-13,1,-7,1,-18,1,-21,1,-27,1,-47,1,-29,1
1181,-3,1,-15,1,-12,1,9,1,4,1,-14,1,-7,1,-19,1,-22,1,-27,1,-48,1,-29,1
1182,-3,1,-15,1,-12,1,9,1,4,1,-14,1,-7,1,-19,1,-22,1,-27,1,-47,1,-28,1
1183,-3,1,-15,1,-12,1,9,1,4,1,-14,1,-7,1,-19,1,-21,1,-27,1,-47,1,-28,1
1184,-4,1,-15,1,-11,1,9,1,3,1,-13,1,-8,1,-19,1,-21,1,-27,1,-48,1,-28,1
1185,-4,1,-15,1,-11,1,9,1,3,1,-13,1,-8,1,-19,1,-21,1,-27,1,-47,1,-28,1
1186,-4,1,-14,1,-10,1,9,1,3,1,-12,1,-8,1,-20,1,-22,1,-27,1,-48,1,-29,1
1187,-4,1,-13,1,-9,1,8,1,2,1,-11,1,-8,1,-20,1,-22,1,-28,1,-48,1,-29,1
1188,-4,1,-13,1,-9,1,8,1,2,1,-11,1,-8,1,-20,1,-22,1,-28,1,-48,1,-29,1
1189,-4,1,-12,1,-8,1,8,1,2,1,-10,1,-7,1,-21,1,-23,1,-28,1,-48,1,-28,1
1190,-5,1,-12,1,-7,1,8,1,1,1,-10,1,-7,1,-21,1,-23,1,-28,1,-48,1,-28,1
1191,-5,1,-12,1,-7,1,8,1,1,1,-10,1,-7,1,-20,1,-23,1,-28,1,-48,1,-28,1
1192,-5,1,-13,1,-8,1,9,1,1,1,-11,1,-7,1,-20,1,-23,1,-27,1,-47,1,-27,1
1193,-6,1,-13,1,-7,1,9,1,0,1,-10,1,-6,1,-20,1,-24,1,-27,1,-47,1,-27,1
1194,-6,1,-12,1,-6,1,9,1,0,1,-9,1,-8,1,-21,1,-23,1,-27,1,-46,1,-26,1
1195,-6,1,-11,1,-5,1,8,1,-1,1,-8,1,-8,1,-21,1,-23,1,-27,1,-46,1,-27,1
1196,-6,1,-11,1,-5,1,8,1,-1,1,-8,1,-7,1,-21,1,-23,1,-28,1,-47,1,-26,1
1197,-6,1,-11,1,-5,1,8,1,-1,1,-8,1,-7,1,-21,1,-23,1,-28,1,-46,1,-27,1
1198,-6,1,-10,1,-4,1,8,1,-1,1,-7,1,-7,1,-21,1,-23,1,-28,1,-46,1,-27,1
1199,-6,1,-10,1,-4,1,8,1,-1,1,-7,1,-7,1,-21,1,-23,1,-28,1,-45,1,-27,1
1200,-6,1,-11,1,-5,1,8,1,-1,1,-8,1,-7,1,-20,1,-22,1,-27,1,-46,1,-27,1
1201,-6,1,-11,1,-5,1,8,1,-1,1,-8,1,-7,1,-20,1,-22,1,-27,1,-44,1,-26,1
1202,-6,1,-11,1,-5,1,8,1,-1,1,-8,1,-7,1,-21,1,-23,1,-27,1,-44,1,-26,1
1203,-6,1,-11,1,-5,1,8,1,-1,1,-8,1,-6,1,-21,1,-23,1,-28,1,-44,1,-25,1
1204,-6,1,-11,1,-5,1,8,1,-1,1,-8,1,-7,1,-21,1,-23,1,-28,1,-44,1,-25,1
1205,-6,1,-11,1,-5,1,8,1,-1,1,-8,1,-7,1,-21,1,-22,1,-27,1,-44,1,-25,1
1206,-6,1,-10,1,-4,1,8,1,-1,1,-7,1,-7,1,-21,1,-22,1,-27,1,-43,1,-25,1
1207,-6,1,-9,1,-3,1,7,1,-2,1,-6,1,-7,1,-21,1,-22,1,-27,1,-43,1,-25,1
1208,-6,1,-8,1,-2,1,7,1,-2,1,-5,1,-7,1,-20,1,-22,1,-27,1,-43,1,-24,1
1209,-6,1,-8,1,-2,1,7,1,-2,1,-5,1,-7,1,-19,1,-22,1,-27,1,-42,1,-24,1
1210,-6,1,-8,1,-2,1,7,1,-2,1,-5,1,-7,1,-19,1,-21,1,-26,1,-42,1,-24,1
1211,-7,1,-8,1,-1,1,7,1,-3,1,-5,1,-7,1,-19,1,-21,1,-25,1,-41,1,-24,1
1212,-7,1,-9,1,-2,1,8,1,-3,1,-6,1,-7,1,-18,1,-21,1,-25,1,-41,1,-24,1
1213,-7,1,-9,1,-2,1,8,1,-3,1,-6,1,-6,1,-18,1,-21,1,-25,1,-41,1,-23,1
1214,-7,1,-9,1,-2,1,8,1,-3,1,-6,1,-6,1,-18,1,-21,1,-25,1,-41,1,-23,1
1215,-7,1,-8,1,-1,1,7,1,-3,1,-5,1,-7,1,-18,1,-20,1,-25,1,-41,1,-23,1
1216,-7,1,-8,1,-1,1,7,1,-3,1,-5,1,-7,1,-18,1,-20,1,-25,1,-41,1,-23,1
1217,-7,1,-8,1,-1,1,7,1,-3,1,-5,1,-6,1,-17,1,-20,1,-24,1,-42,1,-23,1
1218,-7,1,-8,1,-1,1,7,1,-3,1,-5,1,-5,1,-16,1,-19,1,-24,1,-42,1,-23,1
1219,-7,1,-8,1,-1,1,7,1,-3,1,-5,1,-5,1,-15,1,-19,1,-24,1,-41,1,-23,1
1220,-7,1,-7,1,0,1,7,1,-4,1,-4,1,-5,1,-14,1,-18,1,-23,1,-41,1,-23,1
1221,-7,1,-7,1,0,1,7,1,-4,1,-4,1,-4,1,-14,1,-17,1,-23,1,-40,1,-23,1
1222,-7,1,-7,1,0,1,7,1,-4,1,-4,1,-4,1,-13,1,-17,1,-23,1,-41,1,-22,1
1223,-7,1,-7,1,0,1,7,1,-4,1,-4,1,-4,1,-13,1,-17,1,-23,1,-40,1,-22,1
1224,-6,1,-7,1,-1,1,6,1,-3,1,-4,1,-5,1,-13,1,-17,1,-22,1,-40,1,-22,1
1225,-6,1,-7,1,-1,1,6,1,-3,1,-4,1,-6,1,-13,1,-17,1,-22,1,-41,1,-21,1
1226,-6,1,-6,1,0,1,6,1,-3,1,-3,1,-5,1,-13,1,-16,1,-22,1,-41,1,-21,1
1227,-7,1,-6,1,1,1,6,1,-4,1,-3,1,-5,1,-13,1,-16,1,-22,1,-42,1,-21,1
1228,-7,1,-6,1,1,1,6,1,-4,1,-3,1,-5,1,-13,1,-16,1,-22,1,-43,1,-21,1
1229,-6,1,-7,1,-1,1,6,1,-3,1,-4,1,-5,1,-12,1,-15,1,-22,1,-43,1,-20,1
1230,-6,1,-7,1,-1,1,6,1,-3,1,-4,1,-5,1,-11,1,-14,1,-21,1,-44,1,-20,1
1231,-6,1,-7,1,-1,1,6,1,-3,1,-4,1,-5,1,-10,1,-14,1,-20,1,-44,1,-21,1
1232,-6,1,-7,1,-1,1,6,1,-3,1,-4,1,-5,1,-10,1,-14,1,-20,1,-44,1,-20,1
1233,-6,1,-8,1,-2,1,7,1,-2,1,-5,1,-5,1,-10,1,-14,1,-20,1,-45,1,-20,1
1234,-6,1,-8,1,-2,1,7,1,-2,1,-5,1,-5,1,-10,1,-14,1,-20,1,-45,1,-20,1
1235,-6,1,-8,1,-2,1,7,1,-2,1,-5,1,-5,1,-10,1,-15,1,-21,1,-46,1,-20,1
1236,-6,1,-8,1,-2,1,7,1,-2,1,-5,1,-5,1,-10,1,-15,1,-21,1,-46,1,-20,1
1237,-6,1,-9,1,-3,1,7,1,-2,1,-6,1,-5,1,-10,1,-14,1,-20,1,-45,1,-21,1
1238,-7,1,-8,1,-1,1,7,1,-3,1,-5,1,-5,1,-10,1,-13,1,-19,1,-45,1,-22,1
1239,-7,1,-8,1,-1,1,7,1,-3,1,-5,1,-5,1,-10,1,-12,1,-19,1,-46,1,-22,1
1240,-6,1,-8,1,-2,1,7,1,-2,1,-5,1,-5,1,-9,1,-12,1,-19,1,-45,1,-22,1
1241,-5,1,-9,1,-4,1,7,1,-1,1,-7,1,-5,1,-9,1,-12,1,-19,1,-45,1,-21,1
1242,-5,1,-10,1,-5,1,7,1,0,1,-8,1,-5,1,-9,1,-12,1,-19,1,-45,1,-21,1
1243,-5,1,-10,1,-5,1,7,1,0,1,-8,1,-5,1,-9,1,-12,1,-19,1,-45,1,-21,1
1244,-5,1,-10,1,-5,1,7,1,0,1,-8,1,-5,1,-9,1,-13,1,-19,1,-45,1,-20,1
1245,-4,1,-10,1,-6,1,7,1,1,1,-8,1,-5,1,-8,1,-14,1,-19,1,-46,1,-21,1
1246,-4,1,-9,1,-5,1,6,1,0,1,-7,1,-5,1,-8,1,-14,1,-19,1,-46,1,-21,1
1247,-4,1,-9,1,-5,1,6,1,0,1,-7,1,-5,1,-8,1,-14,1,-20,1,-47,1,-22,1
1248,-4,1,-9,1,-5,1,6,1,0,1,-7,1,-5,1,-8,1,-13,1,-21,1,-47,1,-22,1
1249,-4,1,-9,1,-5,1,6,1,0,1,-7,1,-5,1,-8,1,-13,1,-22,1,-47,1,-22,1
1250,-4,1,-10,1,-6,1,7,1,1,1,-8,1,-5,1,-8,1,-13,1,-22,1,-47,1,-22,1
1251,-4,1,-10,1,-6,1,7,1,1,1,-8,1,-5,1,-8,1,-13,1,-21,1,-47,1,-21,1
1252,-4,1,-11,1,-7,1,7,1,1,1,-9,1,-5,1,-8,1,-13,1,-21,1,-47,1,-22,1
1253,-4,1,-11,1,-7,1,7,1,1,1,-9,1,-5,1,-8,1,-13,1,-21,1,-47,1,-22,1
1254,-4,1,-11,1,-7,1,7,1,1,1,-9,1,-5,1,-8,1,-13,1,-21,1,-47,1,-22,1
1255,-4,1,-11,1,-7,1,7,1,1,1,-9,1,-5,1,-8,1,-13,1,-22,1,-48,1,-23,1
1256,-4,1,-11,1,-7,1,7,1,1,1,-9,1,-5,1,-8,1,-14,1,-22,1,-48,1,-23,1
1257,-4,1,-11,1,-7,1,7,1,1,1,-9,1,-5,1,-8,1,-14,1,-22,1,-49,1,-23,1
1258,-4,1,-11,1,-7,1,7,1,1,1,-9,1,-5,1,-8,1,-13,1,-22,1,-50,1,-23,1
1259,-4,1,-12,1,-8,1,8,1,2,1,-10,1,-5,1,-8,1,-13,1,-22,1,-50,1,-23,1
1260,-3,1,-12,1,-9,1,7,1,3,1,-11,1,-4,1,-8,1,-14,1,-23,1,-50,1,-23,1
1261,-4,1,-13,1,-9,1,8,1,2,1,-11,1,-4,1,-8,1,-14,1,-23,1,-50,1,-23,1
1262,-4,1,-13,1,-9,1,8,1,2,1,-11,1,-3,1,-8,1,-14,1,-23,1,-50,1,-23,1
1263,-4,1,-13,1,-9,1,8,1,2,1,-11,1,-3,1,-8,1,-14,1,-23,1,-50,1,-22,1
1264,-4,1,-13,1,-9,1,8,1,2,1,-11,1,-3,1,-8,1,-15,1,-23,1,-51,1,-23,1
1265,-4,1,-13,1,-9,1,8,1,2,1,-11,1,-4,1,-8,1,-15,1,-23,1,-52,1,-23,1
1266,-4,1,-13,1,-9,1,8,1,2,1,-11,1,-4,1,-8,1,-16,1,-24,1,-52,1,-23,1
1267,-5,1,-13,1,-8,1,9,1,1,1,-11,1,-4,1,-8,1,-16,1,-25,1,-53,1,-25,1
1268,-4,1,-13,1,-9,1,8,1,2,1,-11,1,-3,1,-8,1,-17,1,-25,1,-53,1,-25,1
1269,-4,1,-13,1,-9,1,8,1,2,1,-11,1,-3,1,-8,1,-16,1,-25,1,-53,1,-25,1
1270,-5,1,-14,1,-9,1,9,1,2,1,-12,1,-3,1,-8,1,-16,1,-25,1,-54,1,-24,1
1271,-5,1,-14,1,-9,1,9,1,2,1,-12,1,-3,1,-7,1,-16,1,-24,1,-53,1,-24,1
1272,-5,1,-14,1,-9,1,9,1,2,1,-12,1,-2,1,-6,1,-16,1,-24,1,-53,1,-23,1
1273,-5,1,-15,1,-10,1,10,1,2,1,-13,1,-3,1,-6,1,-16,1,-24,1,-51,1,-24,1
1274,-5,1,-15,1,-10,1,10,1,2,1,-13,1,-3,1,-6,1,-16,1,-25,1,-52,1,-24,1
1275,-6,1,-14,1,-8,1,10,1,1,1,-11,1,-3,1,-6,1,-17,1,-25,1,-52,1,-24,1
1276,-6,1,-13,1,-7,1,9,1,0,1,-10,1,-3,1,-6,1,-17,1,-25,1,-52,1,-25,1
1277,-5,1,-13,1,-8,1,9,1,1,1,-11,1,-3,1,-6,1,-17,1,-25,1,-51,1,-25,1
1278,-5,1,-12,1,-7,1,8,1,1,1,-10,1,-3,1,-6,1,-17,1,-25,1,-50,1,-25,1
1279,-5,1,-11,1,-6,1,8,1,0,1,-9,1,-2,1,-5,1,-16,1,-23,1,-49,1,-24,1
1280,-4,1,-10,1,-6,1,7,1,1,1,-8,1,0,1,-4,1,-15,1,-23,1,-49,1,-23,1
1281,-4,1,-8,1,-4,1,6,1,0,1,-6,1,1,1,-3,1,-14,1,-22,1,-47,1,-23,1
1282,-4,1,-7,1,-3,1,5,1,-1,1,-5,1,2,1,-2,1,-14,1,-22,1,-47,1,-22,1
1283,-3,1,-6,1,-3,1,4,1,0,1,-5,1,3,1,-2,1,-13,1,-22,1,-46,1,-23,1
1284,-3,1,-5,1,-2,1,4,1,-1,1,-4,1,3,1,-1,1,-12,1,-21,1,-45,1,-23,1
1285,-2,1,-5,1,-3,1,3,1,0,1,-4,1,4,1,0,1,-11,1,-19,1,-44,1,-21,1
1286,-2,1,-5,1,-3,1,3,1,0,1,-4,1,4,1,0,1,-10,1,-19,1,-43,1,-21,1
1287,-2,1,-4,1,-2,1,3,1,0,1,-3,1,4,1,1,1,-10,1,-18,1,-42,1,-20,1
1288,-2,1,-4,1,-2,1,3,1,0,1,-3,1,4,1,2,1,-9,1,-18,1,-41,1,-20,1
1289,-2,1,-4,1,-2,1,3,1,0,1,-3,1,4,1,2,1,-9,1,-18,1,-40,1,-19,1
1290,-2,1,-4,1,-2,1,3,1,0,1,-3,1,3,1,2,1,-9,1,-17,1,-39,1,-19,1
1291,-2,1,-4,1,-2,1,3,1,0,1,-3,1,3,1,3,1,-8,1,-17,1,-38,1,-19,1
1292,-1,1,-4,1,-3,1,2,1,1,1,-4,1,3,1,3,1,-7,1,-15,1,-37,1,-18,1
1293,-1,1,-3,1,-2,1,2,1,0,1,-3,1,4,1,3,1,-6,1,-15,1,-37,1,-18,1
1294,0,1,-2,1,-2,1,1,1,1,1,-2,1,4,1,4,1,-5,1,-15,1,-36,1,-18,1
1295,1,1,-1,1,-2,1,0,1,1,1,-1,1,3,1,6,1,-4,1,-14,1,-36,1,-18,1
1296,2,1,1,1,-1,1,-1,1,2,1,0,1,2,1,7,1,-4,1,-14,1,-36,1,-18,1
1297,3,1,1,1,-2,1,-2,1,3,1,0,1,2,1,7,1,-3,1,-14,1,-35,1,-17,1
1298,4,1,2,1,-2,1,-3,1,3,1,0,1,2,1,7,1,-2,1,-14,1,-35,1,-17,1
1299,4,1,2,1,-2,1,-3,1,3,1,0,1,3,1,8,1,-2,1,-13,1,-34,1,-16,1
1300,4,1,3,1,-1,1,-3,1,3,1,1,1,4,1,8,1,-2,1,-12,1,-34,1,-16,1
1301,4,1,3,1,-1,1,-3,1,3,1,1,1,3,1,8,1,-2,1,-11,1,-34,1,-16,1
1302,4,1,3,1,-1,1,-3,1,3,1,1,1,1,1,8,1,-1,1,-11,1,-33,1,-15,1
1303,4,1,2,1,-2,1,-3,1,3,1,0,1,0,1,7,1,-1,1,-11,1,-33,1,-15,1
1304,4,1,2,1,-2,1,-3,1,3,1,0,1,-2,1,6,1,-2,1,-11,1,-32,1,-14,1
1305,4,1,3,1,-1,1,-3,1,3,1,1,1,-5,1,6,1,-3,1,-12,1,-32,1,-14,1
1306,5,1,3,1,-2,1,-4,1,4,1,1,1,-8,1,5,1,-3,1,-12,1,-33,1,-14,1
1307,6,1,5,1,-1,1,-5,1,4,1,2,1,-11,1,3,1,-4,1,-12,1,-32,1,-14,1
1308,7,1,5,1,-2,1,-6,1,5,1,2,1,-13,1,3,1,-5,1,-12,1,-32,1,-13,1
1309,8,1,5,1,-3,1,-6,1,6,1,1,1,-14,1,2,1,-6,1,-12,1,-32,1,-12,1
1310,10,1,5,1,-5,1,-7,1,8,1,0,1,-15,1,1,1,-7,1,-13,1,-31,1,-12,1
1311,10,1,3,1,-7,1,-6,1,9,1,-2,1,-16,1,0,1,-8,1,-14,1,-32,1,-12,1
1312,11,1,3,1,-8,1,-7,1,10,1,-2,1,-17,1,-2,1,-9,1,-15,1,-32,1,-11,1
1313,11,1,3,1,-8,1,-7,1,10,1,-2,1,-17,1,-3,1,-10,1,-15,1,-32,1,-12,1
1314,11,1,3,1,-8,1,-7,1,10,1,-2,1,-16,1,-3,1,-10,1,-16,1,-33,1,-11,1
1315,10,1,2,1,-8,1,-6,1,9,1,-3,1,-16,1,-4,1,-12,1,-17,1,-35,1,-12,1
1316,10,1,2,1,-8,1,-6,1,9,1,-3,1,-16,1,-4,1,-13,1,-18,1,-35,1,-14,1
1317,11,1,1,1,-10,1,-6,1,11,1,-4,1,-16,1,-5,1,-14,1,-19,1,-37,1,-15,1
1318,11,1,1,1,-10,1,-6,1,11,1,-4,1,-16,1,-6,1,-15,1,-20,1,-37,1,-16,1
1319,11,1,1,1,-10,1,-6,1,11,1,-4,1,-14,1,-6,1,-16,1,-21,1,-38,1,-15,1
1320,11,1,0,1,-11,1,-5,1,11,1,-5,1,-14,1,-5,1,-16,1,-20,1,-39,1,-15,1
1321,10,1,-1,1,-11,1,-4,1,10,1,-6,1,-13,1,-5,1,-16,1,-19,1,-39,1,-15,1
1322,9,1,-2,1,-11,1,-3,1,10,1,-6,1,-13,1,-5,1,-17,1,-20,1,-40,1,-15,1
1323,8,1,-3,1,-11,1,-2,1,9,1,-7,1,-13,1,-5,1,-16,1,-20,1,-41,1,-15,1
1324,7,1,-3,1,-10,1,-2,1,8,1,-6,1,-11,1,-5,1,-16,1,-21,1,-41,1,-14,1
1325,6,1,-3,1,-9,1,-1,1,7,1,-6,1,-10,1,-5,1,-15,1,-21,1,-41,1,-15,1
1326,4,1,-4,1,-8,1,0,1,6,1,-6,1,-8,1,-5,1,-15,1,-21,1,-42,1,-16,1
1327,2,1,-6,1,-8,1,2,1,5,1,-7,1,-7,1,-4,1,-15,1,-21,1,-42,1,-16,1
1328,0,1,-9,1,-9,1,4,1,4,1,-9,1,-7,1,-4,1,-16,1,-21,1,-42,1,-19,1
1329,-2,1,-10,1,-8,1,6,1,3,1,-9,1,-6,1,-4,1,-17,1,-22,1,-43,1,-19,1
1330,-4,1,-11,1,-7,1,7,1,1,1,-9,1,-5,1,-5,1,-18,1,-23,1,-45,1,-21,1
1331,-6,1,-12,1,-6,1,9,1,0,1,-9,1,-4,1,-5,1,-19,1,-25,1,-46,1,-22,1
1332,-7,1,-14,1,-7,1,10,1,0,1,-11,1,-4,1,-5,1,-20,1,-26,1,-48,1,-22,1
1333,-9,1,-14,1,-5,1,11,1,-2,1,-10,1,-3,1,-5,1,-21,1,-27,1,-51,1,-24,1
1334,-9,1,-16,1,-7,1,12,1,-1,1,-12,1,-3,1,-6,1,-22,1,-29,1,-52,1,-25,1
1335,-10,1,-17,1,-7,1,13,1,-2,1,-12,1,-4,1,-6,1,-23,1,-30,1,-53,1,-26,1
1336,-11,1,-18,1,-7,1,14,1,-2,1,-13,1,-4,1,-7,1,-22,1,-30,1,-54,1,-28,1
1337,-11,1,-19,1,-8,1,15,1,-2,1,-14,1,-4,1,-7,1,-23,1,-31,1,-55,1,-28,1
1338,-12,1,-20,1,-8,1,16,1,-2,1,-14,1,-3,1,-8,1,-23,1,-32,1,-55,1,-29,1
1339,-12,1,-20,1,-8,1,16,1,-2,1,-14,1,-3,1,-7,1,-23,1,-31,1,-55,1,-29,1
1340,-13,1,-21,1,-8,1,17,1,-3,1,-15,1,-2,1,-7,1,-23,1,-31,1,-55,1,-30,1
1341,-13,1,-21,1,-8,1,17,1,-3,1,-15,1,-2,1,-6,1,-23,1,-31,1,-55,1,-29,1
1342,-13,1,-22,1,-9,1,17,1,-2,1,-16,1,-2,1,-6,1,-23,1,-31,1,-55,1,-29,1
1343,-13,1,-23,1,-10,1,18,1,-2,1,-17,1,-1,1,-7,1,-24,1,-31,1,-55,1,-29,1
1344,-13,1,-23,1,-10,1,18,1,-2,1,-17,1,-1,1,-7,1,-24,1,-31,1,-55,1,-29,1
1345,-13,1,-23,1,-10,1,18,1,-2,1,-17,1,-1,1,-7,1,-24,1,-31,1,-55,1,-29,1
1346,-13,1,-23,1,-10,1,18,1,-2,1,-17,1,-1,1,-7,1,-25,1,-32,1,-55,1,-30,1
1347,-14,1,-23,1,-9,1,18,1,-3,1,-16,1,-1,1,-7,1,-24,1,-32,1,-55,1,-31,1
1348,-14,1,-23,1,-9,1,18,1,-3,1,-16,1,-1,1,-7,1,-24,1,-33,1,-56,1,-32,1
1349,-14,1,-24,1,-10,1,19,1,-2,1,-17,1,-1,1,-7,1,-24,1,-33,1,-56,1,-32,1
1350,-14,1,-24,1,-10,1,19,1,-2,1,-17,1,0,1,-7,1,-24,1,-33,1,-55,1,-32,1
1351,-15,1,-25,1,-10,1,20,1,-3,1,-18,1,0,1,-7,1,-25,1,-32,1,-55,1,-31,1
1352,-15,1,-25,1,-10,1,20,1,-3,1,-18,1,1,1,-7,1,-25,1,-32,1,-55,1,-31,1
1353,-15,1,-25,1,-10,1,20,1,-3,1,-18,1,1,1,-7,1,-25,1,-32,1,-54,1,-31,1
1354,-14,1,-25,1,-11,1,19,1,-2,1,-18,1,1,1,-7,1,-25,1,-33,1,-55,1,-31,1
1355,-14,1,-25,1,-11,1,19,1,-2,1,-18,1,1,1,-7,1,-25,1,-33,1,-55,1,-31,1
1356,-15,1,-25,1,-10,1,20,1,-3,1,-18,1,1,1,-6,1,-25,1,-33,1,-55,1,-32,1
1357,-15,1,-25,1,-10,1,20,1,-3,1,-18,1,1,1,-6,1,-26,1,-33,1,-56,1,-33,1
1358,-16,1,-25,1,-9,1,20,1,-4,1,-17,1,2,1,-6,1,-26,1,-32,1,-56,1,-33,1
1359,-16,1,-25,1,-9,1,20,1,-4,1,-17,1,2,1,-6,1,-25,1,-32,1,-57,1,-33,1
1360,-16,1,-25,1,-9,1,20,1,-4,1,-17,1,2,1,-6,1,-25,1,-32,1,-57,1,-33,1
1361,-16,1,-25,1,-9,1,20,1,-4,1,-17,1,2,1,-6,1,-26,1,-31,1,-58,1,-32,1
1362,-16,1,-25,1,-9,1,20,1,-4,1,-17,1,2,1,-6,1,-26,1,-31,1,-58,1,-32,1
1363,-16,1,-25,1,-9,1,20,1,-4,1,-17,1,2,1,-6,1,-26,1,-32,1,-59,1,-32,1
1364,-16,1,-25,1,-9,1,20,1,-4,1,-17,1,2,1,-6,1,-26,1,-32,1,-59,1,-32,1
1365,-16,1,-25,1,-9,1,20,1,-4,1,-17,1,2,1,-6,1,-26,1,-31,1,-59,1,-32,1
1366,-16,1,-26,1,-10,1,21,1,-3,1,-18,1,1,1,-6,1,-26,1,-31,1,-61,1,-32,1
1367,-16,1,-26,1,-10,1,21,1,-3,1,-18,1,1,1,-6,1,-26,1,-32,1,-61,1,-32,1
1368,-17,1,-26,1,-9,1,21,1,-4,1,-18,1,2,1,-6,1,-27,1,-32,1,-62,1,-32,1
1369,-16,1,-26,1,-10,1,21,1,-3,1,-18,1,2,1,-6,1,-27,1,-33,1,-62,1,-32,1
1370,-16,1,-26,1,-10,1,21,1,-3,1,-18,1,2,1,-6,1,-26,1,-34,1,-62,1,-32,1
1371,-16,1,-27,1,-11,1,21,1,-3,1,-19,1,2,1,-6,1,-26,1,-34,1,-62,1,-32,1
1372,-17,1,-27,1,-10,1,22,1,-4,1,-19,1,2,1,-6,1,-26,1,-33,1,-62,1,-32,1
1373,-17,1,-27,1,-10,1,22,1,-4,1,-19,1,2,1,-6,1,-26,1,-32,1,-62,1,-33,1
1374,-17,1,-27,1,-10,1,22,1,-4,1,-19,1,2,1,-6,1,-26,1,-32,1,-62,1,-33,1
1375,-17,1,-27,1,-10,1,22,1,-4,1,-19,1,2,1,-6,1,-27,1,-33,1,-61,1,-33,1
1376,-18,1,-26,1,-8,1,22,1,-5,1,-17,1,1,1,-7,1,-28,1,-33,1,-62,1,-34,1
1377,-18,1,-26,1,-8,1,22,1,-5,1,-17,1,1,1,-7,1,-29,1,-33,1,-62,1,-34,1
1378,-17,1,-27,1,-10,1,22,1,-4,1,-19,1,1,1,-6,1,-28,1,-34,1,-63,1,-34,1
1379,-17,1,-27,1,-10,1,22,1,-4,1,-19,1,2,1,-4,1,-28,1,-35,1,-65,1,-34,1
1380,-17,1,-28,1,-11,1,22,1,-3,1,-20,1,4,1,-2,1,-27,1,-36,1,-66,1,-36,1
1381,-18,1,-31,1,-13,1,24,1,-3,1,-22,1,7,1,5,1,-26,1,-39,1,-69,1,-39,1
1382,-19,1,-34,1,-15,1,26,1,-2,1,-25,1,12,1,19,1,-23,1,-43,1,-73,1,-42,1
1383,-19,1,-37,1,-18,1,28,1,-1,1,-28,1,20,1,41,1,-18,1,-46,1,-79,1,-47,1
1384,-22,1,-40,1,-18,1,31,1,-2,1,-29,1,32,1,68,1,-13,1,-50,1,-85,1,-53,1
1385,-25,1,-43,1,-18,1,34,1,-4,1,-31,1,46,1,98,1,-7,1,-55,1,-94,1,-59,1
1386,-27,1,-44,1,-17,1,35,1,-5,1,-31,1,63,1,132,1,3,1,-58,1,-102,1,-66,1
1387,-28,1,-46,1,-18,1,37,1,-5,1,-32,1,84,1,168,1,19,1,-58,1,-104,1,-71,1
1388,-29,1,-45,1,-16,1,37,1,-7,1,-31,1,107,1,205,1,42,1,-51,1,-103,1,-71,1
1389,-27,1,-41,1,-14,1,34,1,-7,1,-28,1,128,1,241,1,72,1,-37,1,-93,1,-66,1
1390,-22,1,-34,1,-12,1,28,1,-5,1,-23,1,144,1,272,1,107,1,-13,1,-72,1,-54,1
1391,-10,1,-20,1,-10,1,15,1,0,1,-15,1,150,1,293,1,146,1,24,1,-36,1,-33,1
1392,10,1,0,1,-10,1,-5,1,10,1,-5,1,146,1,302,1,184,1,74,1,12,1,-1,1
1393,34,1,26,1,-8,1,-30,1,21,1,9,1,132,1,294,1,219,1,134,1,71,1,38,1
1394,60,1,60,1,0,1,-60,1,30,1,30,1,112,1,274,1,253,1,201,1,139,1,85,1
1395,81,1,97,1,16,1,-89,1,33,1,57,1,93,1,245,1,286,1,271,1,209,1,136,1
1396,97,1,132,1,35,1,-114,1,31,1,84,1,74,1,208,1,314,1,337,1,275,1,183,1
1397,106,1,162,1,56,1,-134,1,25,1,109,1,50,1,159,1,333,1,391,1,333,1,225,1
1398,111,1,184,1,73,1,-147,1,19,1,129,1,19,1,95,1,336,1,430,1,380,1,262,1
1399,113,1,197,1,84,1,-155,1,15,1,141,1,-19,1,20,1,323,1,447,1,408,1,286,1
1400,113,1,198,1,85,1,-155,1,14,1,142,1,-58,1,-60,1,294,1,442,1,416,1,299,1
1401,111,1,191,1,80,1,-151,1,16,1,136,1,-92,1,-138,1,248,1,410,1,399,1,296,1
1402,104,1,180,1,76,1,-142,1,14,1,128,1,-119,1,-206,1,183,1,350,1,354,1,278,1
1403,94,1,166,1,72,1,-130,1,11,1,119,1,-136,1,-261,1,106,1,273,1,290,1,247,1
1404,84,1,153,1,69,1,-118,1,8,1,111,1,-145,1,-303,1,23,1,188,1,219,1,210,1
1405,70,1,142,1,72,1,-106,1,-1,1,107,1,-149,1,-330,1,-52,1,112,1,155,1,176,1
1406,54,1,131,1,77,1,-92,1,-11,1,104,1,-145,1,-343,1,-113,1,48,1,99,1,144,1
1407,36,1,118,1,82,1,-77,1,-23,1,100,1,-140,1,-342,1,-156,1,-2,1,53,1,114,1
1408,21,1,103,1,82,1,-62,1,-30,1,93,1,-135,1,-329,1,-177,1,-38,1,16,1,86,1
1409,8,1,84,1,76,1,-46,1,-34,1,80,1,-127,1,-308,1,-178,1,-61,1,-10,1,61,1
1410,-2,1,68,1,70,1,-33,1,-36,1,69,1,-118,1,-281,1,-165,1,-69,1,-28,1,42,1
1411,-8,1,53,1,61,1,-22,1,-34,1,57,1,-104,1,-250,1,-147,1,-68,1,-38,1,27,1
1412,-10,1,43,1,53,1,-16,1,-31,1,48,1,-89,1,-216,1,-128,1,-62,1,-41,1,18,1
1413,-10,1,37,1,47,1,-13,1,-28,1,42,1,-71,1,-183,1,-113,1,-55,1,-39,1,14,1
1414,-10,1,33,1,43,1,-11,1,-26,1,38,1,-54,1,-149,1,-100,1,-47,1,-37,1,13,1
1415,-10,1,30,1,40,1,-10,1,-25,1,35,1,-39,1,-117,1,-88,1,-42,1,-37,1,13,1
1416,-10,1,25,1,35,1,-7,1,-22,1,30,1,-28,1,-88,1,-76,1,-39,1,-37,1,10,1
1417,-10,1,20,1,30,1,-5,1,-20,1,25,1,-22,1,-67,1,-64,1,-36,1,-38,1,6,1
1418,-12,1,13,1,25,1,0,1,-18,1,19,1,-21,1,-53,1,-53,1,-34,1,-39,1,0,1
1419,-13,1,5,1,18,1,4,1,-15,1,11,1,-21,1,-48,1,-43,1,-32,1,-42,1,-8,1
1420,-16,1,-1,1,15,1,8,1,-16,1,7,1,-21,1,-48,1,-36,1,-31,1,-45,1,-13,1
1421,-17,1,-5,1,12,1,11,1,-15,1,3,1,-19,1,-48,1,-33,1,-30,1,-46,1,-18,1
1422,-18,1,-7,1,11,1,12,1,-15,1,2,1,-16,1,-48,1,-33,1,-29,1,-46,1,-20,1
1423,-20,1,-7,1,13,1,13,1,-17,1,3,1,-10,1,-45,1,-35,1,-29,1,-47,1,-20,1
1424,-20,1,-7,1,13,1,13,1,-17,1,3,1,-6,1,-39,1,-37,1,-29,1,-48,1,-20,1
1425,-20,1,-6,1,14,1,13,1,-17,1,4,1,-2,1,-33,1,-38,1,-29,1,-49,1,-19,1
1426,-20,1,-6,1,14,1,13,1,-17,1,4,1,-1,1,-27,1,-37,1,-30,1,-50,1,-19,1
1427,-20,1,-6,1,14,1,13,1,-17,1,4,1,0,1,-23,1,-36,1,-31,1,-51,1,-21,1
1428,-20,1,-8,1,12,1,14,1,-16,1,2,1,0,1,-22,1,-34,1,-32,1,-53,1,-21,1
1429,-21,1,-9,1,12,1,15,1,-17,1,1,1,-1,1,-22,1,-33,1,-32,1,-53,1,-23,1
1430,-21,1,-11,1,10,1,16,1,-16,1,-1,1,0,1,-23,1,-32,1,-32,1,-54,1,-25,1
1431,-21,1,-12,1,9,1,16,1,-15,1,-2,1,0,1,-23,1,-32,1,-31,1,-55,1,-25,1
1432,-22,1,-13,1,9,1,17,1,-16,1,-2,1,2,1,-23,1,-31,1,-31,1,-54,1,-26,1
1433,-22,1,-14,1,8,1,18,1,-15,1,-3,1,2,1,-21,1,-30,1,-31,1,-55,1,-26,1
1434,-22,1,-14,1,8,1,18,1,-15,1,-3,1,3,1,-20,1,-29,1,-31,1,-54,1,-26,1
1435,-22,1,-14,1,8,1,18,1,-15,1,-3,1,2,1,-19,1,-28,1,-31,1,-55,1,-26,1
1436,-22,1,-14,1,8,1,18,1,-15,1,-3,1,2,1,-18,1,-28,1,-31,1,-55,1,-26,1
1437,-21,1,-15,1,6,1,18,1,-14,1,-5,1,2,1,-17,1,-28,1,-31,1,-54,1,-26,1
1438,-21,1,-15,1,6,1,18,1,-14,1,-5,1,2,1,-16,1,-28,1,-31,1,-54,1,-25,1
1439,-21,1,-15,1,6,1,18,1,-14,1,-5,1,3,1,-16,1,-27,1,-30,1,-54,1,-26,1
1440,-21,1,-15,1,6,1,18,1,-14,1,-5,1,3,1,-15,1,-26,1,-29,1,-53,1,-25,1
1441,-21,1,-15,1,6,1,18,1,-14,1,-5,1,3,1,-15,1,-26,1,-29,1,-53,1,-25,1
1442,-21,1,-16,1,5,1,18,1,-13,1,-6,1,3,1,-15,1,-26,1,-29,1,-53,1,-25,1
1443,-22,1,-16,1,6,1,19,1,-14,1,-5,1,3,1,-15,1,-26,1,-29,1,-53,1,-25,1
1444,-22,1,-16,1,6,1,19,1,-14,1,-5,1,3,1,-15,1,-26,1,-30,1,-53,1,-25,1
1445,-22,1,-16,1,6,1,19,1,-14,1,-5,1,2,1,-15,1,-26,1,-30,1,-53,1,-24,1
1446,-22,1,-16,1,6,1,19,1,-14,1,-5,1,2,1,-15,1,-26,1,-30,1,-52,1,-24,1
1447,-22,1,-15,1,7,1,18,1,-15,1,-4,1,3,1,-15,1,-27,1,-30,1,-52,1,-25,1
1448,-22,1,-15,1,7,1,18,1,-15,1,-4,1,3,1,-15,1,-26,1,-29,1,-52,1,-24,1
1449,-22,1,-14,1,8,1,18,1,-15,1,-3,1,3,1,-14,1,-25,1,-29,1,-51,1,-23,1
1450,-22,1,-14,1,8,1,18,1,-15,1,-3,1,3,1,-13,1,-25,1,-29,1,-51,1,-23,1
1451,-22,1,-14,1,8,1,18,1,-15,1,-3,1,3,1,-13,1,-25,1,-29,1,-51,1,-22,1
1452,-22,1,-14,1,8,1,18,1,-15,1,-3,1,4,1,-13,1,-25,1,-29,1,-50,1,-23,1
1453,-22,1,-14,1,8,1,18,1,-15,1,-3,1,4,1,-13,1,-25,1,-29,1,-50,1,-22,1
1454,-22,1,-14,1,8,1,18,1,-15,1,-3,1,4,1,-13,1,-25,1,-29,1,-50,1,-22,1
1455,-21,1,-13,1,8,1,17,1,-15,1,-3,1,3,1,-13,1,-25,1,-28,1,-50,1,-23,1
1456,-21,1,-13,1,8,1,17,1,-15,1,-3,1,3,1,-13,1,-25,1,-28,1,-51,1,-22,1
1457,-21,1,-12,1,9,1,16,1,-15,1,-2,1,4,1,-13,1,-25,1,-29,1,-51,1,-23,1
1458,-21,1,-12,1,9,1,16,1,-15,1,-2,1,5,1,-13,1,-24,1,-28,1,-50,1,-24,1
1459,-21,1,-12,1,9,1,16,1,-15,1,-2,1,5,1,-12,1,-24,1,-27,1,-51,1,-24,1
1460,-21,1,-12,1,9,1,16,1,-15,1,-2,1,5,1,-12,1,-23,1,-27,1,-49,1,-23,1
1461,-21,1,-12,1,9,1,16,1,-15,1,-2,1,5,1,-12,1,-23,1,-27,1,-49,1,-21,1
1462,-21,1,-12,1,9,1,16,1,-15,1,-2,1,5,1,-12,1,-22,1,-26,1,-48,1,-21,1
1463,-20,1,-12,1,8,1,16,1,-14,1,-2,1,4,1,-12,1,-22,1,-24,1,-47,1,-22,1
1464,-20,1,-12,1,8,1,16,1,-14,1,-2,1,4,1,-12,1,-22,1,-24,1,-47,1,-21,1
1465,-20,1,-12,1,8,1,16,1,-14,1,-2,1,3,1,-13,1,-22,1,-24,1,-45,1,-21,1
1466,-20,1,-11,1,9,1,15,1,-15,1,-1,1,3,1,-13,1,-22,1,-25,1,-44,1,-21,1
1467,-19,1,-10,1,9,1,14,1,-14,1,-1,1,3,1,-13,1,-23,1,-25,1,-44,1,-21,1
1468,-19,1,-9,1,10,1,14,1,-15,1,0,1,2,1,-13,1,-22,1,-24,1,-44,1,-20,1
1469,-18,1,-8,1,10,1,13,1,-14,1,1,1,2,1,-12,1,-21,1,-23,1,-43,1,-19,1
1470,-18,1,-7,1,11,1,12,1,-15,1,2,1,2,1,-11,1,-21,1,-22,1,-43,1,-19,1
1471,-18,1,-7,1,11,1,12,1,-15,1,2,1,1,1,-11,1,-20,1,-21,1,-43,1,-18,1
1472,-18,1,-8,1,10,1,13,1,-14,1,1,1,1,1,-11,1,-20,1,-21,1,-42,1,-18,1
1473,-18,1,-8,1,10,1,13,1,-14,1,1,1,1,1,-10,1,-19,1,-21,1,-42,1,-18,1
1474,-18,1,-7,1,11,1,12,1,-15,1,2,1,1,1,-10,1,-18,1,-20,1,-43,1,-17,1
1475,-18,1,-6,1,12,1,12,1,-15,1,3,1,0,1,-10,1,-18,1,-20,1,-42,1,-17,1
1476,-18,1,-6,1,12,1,12,1,-15,1,3,1,0,1,-9,1,-17,1,-20,1,-41,1,-16,1
1477,-18,1,-5,1,13,1,11,1,-16,1,4,1,1,1,-9,1,-17,1,-20,1,-41,1,-16,1
1478,-18,1,-5,1,13,1,11,1,-16,1,4,1,1,1,-9,1,-16,1,-19,1,-40,1,-16,1
1479,-17,1,-5,1,12,1,11,1,-15,1,3,1,2,1,-8,1,-16,1,-18,1,-40,1,-15,1
1480,-17,1,-5,1,12,1,11,1,-15,1,3,1,2,1,-8,1,-15,1,-18,1,-39,1,-14,1
1481,-17,1,-5,1,12,1,11,1,-15,1,3,1,1,1,-8,1,-15,1,-17,1,-38,1,-15,1
1482,-16,1,-5,1,11,1,10,1,-14,1,3,1,1,1,-8,1,-15,1,-16,1,-37,1,-13,1
1483,-16,1,-4,1,12,1,10,1,-14,1,4,1,0,1,-8,1,-13,1,-14,1,-37,1,-13,1
1484,-15,1,-3,1,12,1,9,1,-14,1,4,1,-1,1,-8,1,-12,1,-14,1,-35,1,-12,1
1485,-15,1,-2,1,13,1,8,1,-14,1,5,1,-2,1,-8,1,-11,1,-13,1,-34,1,-13,1
1486,-14,1,-1,1,13,1,7,1,-14,1,6,1,-3,1,-7,1,-11,1,-11,1,-34,1,-13,1
1487,-13,1,1,1,14,1,6,1,-13,1,7,1,-3,1,-6,1,-10,1,-11,1,-33,1,-11,1
1488,-13,1,1,1,14,1,6,1,-13,1,7,1,-4,1,-5,1,-9,1,-9,1,-31,1,-10,1
1489,-13,1,2,1,15,1,5,1,-14,1,8,1,-4,1,-4,1,-8,1,-8,1,-29,1,-10,1
1490,-12,1,2,1,14,1,5,1,-13,1,8,1,-4,1,-3,1,-6,1,-7,1,-28,1,-7,1
1491,-12,1,2,1,14,1,5,1,-13,1,8,1,-4,1,-1,1,-5,1,-5,1,-25,1,-6,1
1492,-12,1,2,1,14,1,5,1,-13,1,8,1,-3,1,0,1,-3,1,-3,1,-24,1,-5,1
1493,-12,1,2,1,14,1,5,1,-13,1,8,1,-4,1,0,1,-2,1,-2,1,-23,1,-4,1
1494,-12,1,3,1,15,1,4,1,-13,1,9,1,-4,1,1,1,-1,1,0,1,-23,1,-3,1
1495,-11,1,5,1,16,1,3,1,-13,1,10,1,-5,1,2,1,0,1,1,1,-22,1,-2,1
1496,-11,1,6,1,17,1,2,1,-14,1,11,1,-5,1,2,1,1,1,2,1,-21,1,-2,1
1497,-10,1,8,1,18,1,1,1,-14,1,13,1,-6,1,3,1,2,1,3,1,-20,1,0,1
1498,-10,1,9,1,19,1,0,1,-14,1,14,1,-6,1,5,1,4,1,5,1,-19,1,0,1
1499,-10,1,10,1,20,1,0,1,-15,1,15,1,-5,1,6,1,6,1,6,1,-17,1,1,1
1500,-8,1,11,1,19,1,-1,1,-13,1,15,1,-5,1,7,1,8,1,8,1,-15,1,3,1
1501,-6,1,11,1,17,1,-2,1,-11,1,14,1,-6,1,8,1,10,1,12,1,-13,1,4,1
1502,-5,1,12,1,17,1,-3,1,-11,1,14,1,-6,1,11,1,12,1,14,1,-11,1,6,1
1503,-5,1,12,1,17,1,-3,1,-11,1,14,1,-6,1,11,1,13,1,15,1,-9,1,7,1
1504,-5,1,13,1,18,1,-4,1,-11,1,15,1,-7,1,12,1,15,1,17,1,-7,1,8,1
1505,-5,1,14,1,19,1,-4,1,-12,1,16,1,-8,1,13,1,16,1,19,1,-6,1,8,1
1506,-3,1,15,1,18,1,-6,1,-10,1,16,1,-8,1,14,1,18,1,21,1,-4,1,10,1
1507,-3,1,16,1,19,1,-6,1,-11,1,17,1,-10,1,16,1,20,1,23,1,-2,1,10,1
1508,-1,1,19,1,20,1,-9,1,-10,1,19,1,-10,1,17,1,24,1,26,1,0,1,13,1
1509,-1,1,20,1,21,1,-9,1,-11,1,20,1,-12,1,18,1,26,1,29,1,2,1,14,1
1510,0,1,21,1,21,1,-10,1,-10,1,21,1,-12,1,20,1,29,1,31,1,3,1,16,1
1511,2,1,21,1,19,1,-11,1,-8,1,20,1,-12,1,22,1,32,1,34,1,6,1,17,1
1512,4,1,22,1,18,1,-13,1,-7,1,20,1,-12,1,24,1,36,1,38,1,8,1,19,1
1513,5,1,22,1,17,1,-13,1,-6,1,20,1,-13,1,26,1,39,1,41,1,11,1,21,1
1514,7,1,23,1,16,1,-15,1,-4,1,20,1,-13,1,28,1,42,1,44,1,14,1,23,1
1515,8,1,24,1,16,1,-16,1,-4,1,20,1,-13,1,30,1,45,1,48,1,16,1,23,1
1516,9,1,26,1,17,1,-17,1,-4,1,22,1,-14,1,32,1,47,1,51,1,18,1,26,1
1517,10,1,28,1,18,1,-19,1,-4,1,23,1,-16,1,34,1,50,1,54,1,21,1,26,1
1518,11,1,29,1,18,1,-20,1,-3,1,24,1,-17,1,35,1,52,1,57,1,23,1,28,1
1519,12,1,30,1,18,1,-21,1,-3,1,24,1,-18,1,38,1,55,1,59,1,25,1,30,1
1520,12,1,31,1,19,1,-21,1,-3,1,25,1,-19,1,39,1,58,1,62,1,28,1,31,1
1521,14,1,32,1,18,1,-23,1,-2,1,25,1,-19,1,41,1,60,1,64,1,31,1,34,1
1522,16,1,33,1,17,1,-24,1,0,1,25,1,-19,1,43,1,62,1,66,1,33,1,35,1
1523,18,1,33,1,15,1,-25,1,2,1,24,1,-21,1,46,1,65,1,69,1,36,1,35,1
1524,20,1,34,1,14,1,-27,1,3,1,24,1,-22,1,47,1,67,1,72,1,38,1,36,1
1525,20,1,35,1,15,1,-27,1,3,1,25,1,-22,1,48,1,69,1,75,1,40,1,36,1
1526,20,1,36,1,16,1,-28,1,2,1,26,1,-23,1,49,1,71,1,77,1,43,1,37,1
1527,20,1,37,1,17,1,-28,1,2,1,27,1,-24,1,51,1,73,1,79,1,45,1,38,1
1528,21,1,38,1,17,1,-29,1,2,1,28,1,-25,1,52,1,75,1,82,1,47,1,40,1
1529,22,1,39,1,17,1,-30,1,3,1,28,1,-26,1,54,1,77,1,84,1,50,1,42,1
1530,23,1,39,1,16,1,-31,1,4,1,28,1,-26,1,55,1,80,1,85,1,52,1,44,1
1531,24,1,39,1,15,1,-31,1,5,1,27,1,-27,1,57,1,83,1,88,1,54,1,46,1
1532,25,1,38,1,13,1,-31,1,6,1,26,1,-27,1,58,1,85,1,90,1,57,1,48,1
1533,26,1,38,1,12,1,-32,1,7,1,25,1,-27,1,59,1,86,1,92,1,59,1,49,1
1534,27,1,38,1,11,1,-32,1,8,1,25,1,-27,1,59,1,88,1,93,1,60,1,49,1
1535,29,1,39,1,10,1,-34,1,10,1,25,1,-27,1,59,1,89,1,94,1,61,1,50,1
1536,29,1,40,1,11,1,-34,1,9,1,26,1,-28,1,59,1,89,1,94,1,62,1,50,1
1537,29,1,41,1,12,1,-35,1,9,1,27,1,-27,1,58,1,89,1,94,1,61,1,50,1
1538,30,1,41,1,11,1,-35,1,10,1,26,1,-27,1,59,1,89,1,94,1,61,1,50,1
1539,29,1,41,1,12,1,-35,1,9,1,27,1,-27,1,59,1,89,1,94,1,62,1,50,1
1540,30,1,40,1,10,1,-35,1,10,1,25,1,-27,1,58,1,88,1,94,1,61,1,50,1
1541,30,1,40,1,10,1,-35,1,10,1,25,1,-27,1,58,1,88,1,93,1,60,1,50,1
1542,30,1,40,1,10,1,-35,1,10,1,25,1,-27,1,58,1,89,1,93,1,60,1,49,1
1543,30,1,40,1,10,1,-35,1,10,1,25,1,-27,1,58,1,88,1,91,1,58,1,48,1
1544,30,1,38,1,8,1,-34,1,11,1,23,1,-27,1,56,1,87,1,89,1,58,1,46,1
1545,29,1,37,1,8,1,-33,1,11,1,23,1,-27,1,54,1,85,1,87,1,55,1,44,1
1546,28,1,35,1,7,1,-31,1,11,1,21,1,-27,1,53,1,83,1,85,1,52,1,42,1
1547,27,1,32,1,5,1,-29,1,11,1,19,1,-27,1,51,1,80,1,82,1,48,1,40,1
1548,26,1,31,1,5,1,-28,1,11,1,18,1,-26,1,49,1,77,1,79,1,46,1,38,1
1549,25,1,29,1,4,1,-27,1,11,1,17,1,-25,1,48,1,74,1,75,1,43,1,36,1
1550,24,1,26,1,2,1,-25,1,11,1,14,1,-24,1,45,1,71,1,71,1,40,1,34,1
1551,23,1,24,1,1,1,-23,1,11,1,13,1,-24,1,44,1,68,1,67,1,38,1,31,1
1552,21,1,22,1,1,1,-21,1,10,1,12,1,-23,1,43,1,66,1,61,1,34,1,27,1
1553,18,1,20,1,2,1,-19,1,8,1,11,1,-22,1,40,1,63,1,57,1,30,1,25,1
1554,17,1,18,1,1,1,-17,1,8,1,10,1,-20,1,39,1,59,1,54,1,26,1,21,1
1555,15,1,17,1,2,1,-16,1,7,1,10,1,-19,1,37,1,56,1,49,1,21,1,18,1
1556,14,1,15,1,1,1,-14,1,7,1,8,1,-18,1,35,1,52,1,45,1,15,1,15,1
1557,13,1,14,1,1,1,-13,1,6,1,8,1,-18,1,34,1,48,1,40,1,11,1,11,1
1558,11,1,12,1,1,1,-11,1,5,1,7,1,-16,1,32,1,44,1,36,1,7,1,9,1
1559,9,1,10,1,1,1,-9,1,4,1,6,1,-14,1,30,1,42,1,33,1,3,1,7,1
1560,8,1,8,1,0,1,-8,1,4,1,4,1,-11,1,29,1,39,1,30,1,0,1,6,1
1561,6,1,5,1,-1,1,-5,1,4,1,2,1,-9,1,28,1,37,1,27,1,-2,1,3,1
1562,4,1,2,1,-2,1,-3,1,3,1,0,1,-7,1,26,1,33,1,22,1,-6,1,1,1
1563,4,1,0,1,-4,1,-2,1,4,1,-2,1,-6,1,25,1,31,1,18,1,-8,1,0,1
1564,2,1,-2,1,-4,1,0,1,3,1,-3,1,-5,1,23,1,27,1,13,1,-12,1,-3,1
1565,1,1,-3,1,-4,1,1,1,2,1,-3,1,-4,1,21,1,24,1,9,1,-16,1,-6,1
1566,1,1,-4,1,-5,1,1,1,3,1,-4,1,-3,1,19,1,20,1,5,1,-19,1,-8,1
1567,-1,1,-5,1,-4,1,3,1,1,1,-5,1,-3,1,18,1,17,1,3,1,-22,1,-9,1
1568,-2,1,-6,1,-4,1,4,1,1,1,-5,1,-2,1,17,1,16,1,3,1,-24,1,-12,1
1569,-5,1,-6,1,-1,1,5,1,-2,1,-4,1,-2,1,16,1,14,1,2,1,-25,1,-13,1
1570,-5,1,-8,1,-3,1,6,1,-1,1,-6,1,-2,1,15,1,13,1,0,1,-27,1,-14,1
1571,-6,1,-9,1,-3,1,7,1,-2,1,-6,1,-1,1,15,1,10,1,-1,1,-29,1,-14,1
1572,-6,1,-10,1,-4,1,8,1,-1,1,-7,1,-2,1,14,1,8,1,-4,1,-31,1,-16,1
1573,-6,1,-11,1,-5,1,8,1,-1,1,-8,1,-2,1,13,1,7,1,-5,1,-31,1,-17,1
1574,-5,1,-13,1,-8,1,9,1,1,1,-11,1,-3,1,12,1,7,1,-6,1,-33,1,-18,1
1575,-7,1,-15,1,-8,1,11,1,0,1,-12,1,-3,1,10,1,5,1,-8,1,-33,1,-18,1
1576,-7,1,-15,1,-8,1,11,1,0,1,-12,1,-3,1,9,1,4,1,-9,1,-34,1,-19,1
1577,-8,1,-16,1,-8,1,12,1,0,1,-12,1,-3,1,7,1,2,1,-10,1,-35,1,-20,1
1578,-8,1,-15,1,-7,1,11,1,-1,1,-11,1,-4,1,6,1,1,1,-12,1,-36,1,-22,1
1579,-8,1,-15,1,-7,1,11,1,-1,1,-11,1,-3,1,5,1,0,1,-13,1,-37,1,-21,1
1580,-8,1,-16,1,-8,1,12,1,0,1,-12,1,-3,1,4,1,-1,1,-14,1,-37,1,-22,1
1581,-8,1,-17,1,-9,1,12,1,0,1,-13,1,-4,1,3,1,-2,1,-14,1,-37,1,-23,1
1582,-9,1,-18,1,-9,1,13,1,0,1,-14,1,-4,1,3,1,-3,1,-14,1,-37,1,-22,1
1583,-9,1,-18,1,-9,1,13,1,0,1,-14,1,-5,1,3,1,-4,1,-13,1,-37,1,-23,1
1584,-9,1,-18,1,-9,1,13,1,0,1,-14,1,-4,1,2,1,-4,1,-14,1,-38,1,-23,1
1585,-9,1,-18,1,-9,1,13,1,0,1,-14,1,-4,1,2,1,-4,1,-14,1,-38,1,-24,1
1586,-9,1,-17,1,-8,1,13,1,-1,1,-13,1,-3,1,0,1,-5,1,-15,1,-39,1,-25,1
1587,-10,1,-17,1,-7,1,13,1,-2,1,-12,1,-3,1,0,1,-6,1,-16,1,-40,1,-25,1
1588,-10,1,-17,1,-7,1,13,1,-2,1,-12,1,-2,1,0,1,-7,1,-17,1,-40,1,-25,1
1589,-10,1,-18,1,-8,1,14,1,-1,1,-13,1,-2,1,-1,1,-8,1,-18,1,-41,1,-25,1
1590,-11,1,-19,1,-8,1,15,1,-2,1,-14,1,-2,1,-1,1,-8,1,-17,1,-41,1,-25,1
1591,-11,1,-19,1,-8,1,15,1,-2,1,-14,1,-3,1,-1,1,-8,1,-18,1,-41,1,-25,1
1592,-11,1,-19,1,-8,1,15,1,-2,1,-14,1,-3,1,-1,1,-9,1,-18,1,-41,1,-24,1
1593,-11,1,-19,1,-8,1,15,1,-2,1,-14,1,-3,1,-1,1,-9,1,-19,1,-42,1,-24,1
1594,-11,1,-20,1,-9,1,15,1,-1,1,-15,1,-3,1,-2,1,-9,1,-19,1,-41,1,-25,1
1595,-11,1,-20,1,-9,1,15,1,-1,1,-15,1,-2,1,-2,1,-9,1,-19,1,-41,1,-24,1
1596,-11,1,-19,1,-8,1,15,1,-2,1,-14,1,-2,1,-3,1,-9,1,-19,1,-41,1,-25,1
1597,-11,1,-19,1,-8,1,15,1,-2,1,-14,1,-2,1,-4,1,-9,1,-19,1,-39,1,-25,1
1598,-11,1,-19,1,-8,1,15,1,-2,1,-14,1,-2,1,-4,1,-9,1,-18,1,-39,1,-25,1
1599,-11,1,-20,1,-9,1,15,1,-1,1,-15,1,-2,1,-5,1,-9,1,-18,1,-40,1,-25,1
1600,-12,1,-20,1,-8,1,16,1,-2,1,-14,1,-2,1,-5,1,-9,1,-18,1,-39,1,-24,1
1601,-12,1,-21,1,-9,1,16,1,-2,1,-15,1,-1,1,-5,1,-9,1,-18,1,-39,1,-24,1
1602,-12,1,-21,1,-9,1,16,1,-2,1,-15,1,-1,1,-6,1,-9,1,-18,1,-39,1,-24,1
1603,-12,1,-21,1,-9,1,16,1,-2,1,-15,1,-1,1,-6,1,-10,1,-19,1,-40,1,-24,1
1604,-12,1,-21,1,-9,1,16,1,-2,1,-15,1,-1,1,-6,1,-10,1,-20,1,-40,1,-24,1
1605,-12,1,-21,1,-9,1,16,1,-2,1,-15,1,-1,1,-6,1,-10,1,-20,1,-40,1,-25,1
1606,-12,1,-20,1,-8,1,16,1,-2,1,-14,1,-1,1,-6,1,-11,1,-20,1,-41,1,-25,1
1607,-12,1,-20,1,-8,1,16,1,-2,1,-14,1,-1,1,-7,1,-11,1,-21,1,-41,1,-26,1
1608,-12,1,-20,1,-8,1,16,1,-2,1,-14,1,-1,1,-7,1,-12,1,-21,1,-42,1,-25,1
1609,-12,1,-20,1,-8,1,16,1,-2,1,-14,1,-1,1,-8,1,-12,1,-22,1,-43,1,-26,1
1610,-12,1,-20,1,-8,1,16,1,-2,1,-14,1,-1,1,-8,1,-13,1,-22,1,-42,1,-26,1
1611,-11,1,-20,1,-9,1,15,1,-1,1,-15,1,-1,1,-8,1,-13,1,-22,1,-42,1,-25,1
1612,-11,1,-21,1,-10,1,16,1,-1,1,-16,1,-1,1,-8,1,-13,1,-22,1,-43,1,-25,1
1613,-11,1,-21,1,-10,1,16,1,-1,1,-16,1,-1,1,-8,1,-13,1,-21,1,-42,1,-26,1
1614,-11,1,-21,1,-10,1,16,1,-1,1,-16,1,-1,1,-9,1,-13,1,-22,1,-42,1,-26,1
1615,-11,1,-19,1,-8,1,15,1,-2,1,-14,1,-2,1,-9,1,-14,1,-22,1,-42,1,-26,1
1616,-12,1,-19,1,-7,1,15,1,-3,1,-13,1,-2,1,-9,1,-13,1,-22,1,-42,1,-26,1
1617,-12,1,-19,1,-7,1,15,1,-3,1,-13,1,-2,1,-8,1,-14,1,-23,1,-42,1,-27,1
1618,-12,1,-18,1,-6,1,15,1,-3,1,-12,1,-3,1,-8,1,-14,1,-23,1,-42,1,-27,1
1619,-12,1,-18,1,-6,1,15,1,-3,1,-12,1,-3,1,-9,1,-13,1,-23,1,-43,1,-25,1
1620,-12,1,-18,1,-6,1,15,1,-3,1,-12,1,-2,1,-9,1,-13,1,-21,1,-42,1,-25,1
1621,-12,1,-19,1,-7,1,15,1,-3,1,-13,1,-2,1,-9,1,-13,1,-21,1,-43,1,-25,1
1622,-13,1,-20,1,-7,1,16,1,-3,1,-14,1,-2,1,-9,1,-13,1,-22,1,-43,1,-25,1
1623,-13,1,-20,1,-7,1,16,1,-3,1,-14,1,-2,1,-10,1,-14,1,-22,1,-42,1,-25,1
1624,-14,1,-19,1,-5,1,16,1,-5,1,-12,1,-3,1,-10,1,-15,1,-23,1,-42,1,-25,1
1625,-14,1,-19,1,-5,1,16,1,-5,1,-12,1,-3,1,-10,1,-16,1,-23,1,-42,1,-24,1
1626,-14,1,-18,1,-4,1,16,1,-5,1,-11,1,-2,1,-10,1,-15,1,-25,1,-42,1,-25,1
1627,-14,1,-17,1,-3,1,15,1,-6,1,-10,1,-2,1,-10,1,-15,1,-25,1,-42,1,-25,1
1628,-14,1,-17,1,-3,1,15,1,-6,1,-10,1,-2,1,-11,1,-15,1,-24,1,-43,1,-25,1
1629,-14,1,-17,1,-3,1,15,1,-6,1,-10,1,-1,1,-11,1,-14,1,-24,1,-42,1,-25,1
1630,-15,1,-18,1,-3,1,16,1,-6,1,-11,1,-1,1,-11,1,-14,1,-24,1,-41,1,-25,1
1631,-15,1,-18,1,-3,1,16,1,-6,1,-11,1,-1,1,-10,1,-14,1,-24,1,-41,1,-25,1
1632,-15,1,-18,1,-3,1,16,1,-6,1,-11,1,0,1,-10,1,-14,1,-24,1,-40,1,-25,1
1633,-15,1,-18,1,-3,1,16,1,-6,1,-11,1,0,1,-10,1,-14,1,-24,1,-40,1,-24,1
1634,-15,1,-18,1,-3,1,16,1,-6,1,-11,1,0,1,-11,1,-14,1,-24,1,-40,1,-24,1
1635,-16,1,-18,1,-2,1,17,1,-7,1,-10,1,-1,1,-11,1,-14,1,-23,1,-42,1,-24,1
1636,-16,1,-17,1,-1,1,16,1,-8,1,-9,1,-1,1,-12,1,-13,1,-22,1,-41,1,-25,1
1637,-15,1,-17,1,-2,1,16,1,-7,1,-10,1,-1,1,-12,1,-13,1,-22,1,-40,1,-25,1
1638,-16,1,-16,1,0,1,16,1,-8,1,-8,1,-1,1,-11,1,-13,1,-22,1,-40,1,-25,1
1639,-16,1,-16,1,0,1,16,1,-8,1,-8,1,-1,1,-10,1,-13,1,-22,1,-39,1,-25,1
1640,-16,1,-16,1,0,1,16,1,-8,1,-8,1,-1,1,-10,1,-13,1,-22,1,-39,1,-26,1
1641,-16,1,-16,1,0,1,16,1,-8,1,-8,1,-1,1,-10,1,-14,1,-22,1,-40,1,-25,1
1642,-16,1,-16,1,0,1,16,1,-8,1,-8,1,0,1,-10,1,-15,1,-23,1,-40,1,-25,1
1643,-16,1,-16,1,0,1,16,1,-8,1,-8,1,0,1,-10,1,-15,1,-22,1,-40,1,-25,1
1644,-16,1,-16,1,0,1,16,1,-8,1,-8,1,1,1,-10,1,-15,1,-21,1,-40,1,-24,1
1645,-16,1,-16,1,0,1,16,1,-8,1,-8,1,0,1,-10,1,-15,1,-21,1,-39,1,-25,1
1646,-16,1,-15,1,1,1,15,1,-9,1,-7,1,0,1,-9,1,-15,1,-21,1,-39,1,-24,1
1647,-16,1,-15,1,1,1,15,1,-9,1,-7,1,0,1,-9,1,-14,1,-21,1,-39,1,-25,1
1648,-16,1,-14,1,2,1,15,1,-9,1,-6,1,0,1,-8,1,-14,1,-21,1,-38,1,-25,1
1649,-15,1,-14,1,1,1,14,1,-8,1,-7,1,1,1,-8,1,-13,1,-21,1,-37,1,-25,1
1650,-14,1,-14,1,0,1,14,1,-7,1,-7,1,1,1,-7,1,-13,1,-20,1,-37,1,-25,1
1651,-14,1,-14,1,0,1,14,1,-7,1,-7,1,1,1,-6,1,-12,1,-19,1,-37,1,-25,1
1652,-14,1,-15,1,-1,1,14,1,-7,1,-8,1,1,1,-6,1,-12,1,-19,1,-36,1,-24,1
1653,-13,1,-15,1,-2,1,14,1,-6,1,-9,1,1,1,-6,1,-12,1,-20,1,-36,1,-24,1
1654,-13,1,-15,1,-2,1,14,1,-6,1,-9,1,1,1,-6,1,-12,1,-20,1,-37,1,-24,1
1655,-13,1,-15,1,-2,1,14,1,-6,1,-9,1,1,1,-5,1,-12,1,-20,1,-35,1,-23,1
1656,-13,1,-15,1,-2,1,14,1,-6,1,-9,1,1,1,-5,1,-11,1,-20,1,-35,1,-23,1
1657,-13,1,-15,1,-2,1,14,1,-6,1,-9,1,0,1,-4,1,-10,1,-20,1,-35,1,-22,1
1658,-13,1,-15,1,-2,1,14,1,-6,1,-9,1,0,1,-4,1,-10,1,-19,1,-35,1,-22,1
1659,-13,1,-15,1,-2,1,14,1,-6,1,-9,1,0,1,-4,1,-10,1,-19,1,-35,1,-22,1
1660,-13,1,-16,1,-3,1,14,1,-5,1,-10,1,-1,1,-3,1,-10,1,-19,1,-35,1,-22,1
1661,-13,1,-15,1,-2,1,14,1,-6,1,-9,1,0,1,-3,1,-10,1,-19,1,-35,1,-22,1
1662,-13,1,-15,1,-2,1,14,1,-6,1,-9,1,0,1,-3,1,-10,1,-19,1,-34,1,-23,1
1663,-13,1,-15,1,-2,1,14,1,-6,1,-9,1,0,1,-3,1,-10,1,-19,1,-34,1,-23,1
1664,-13,1,-15,1,-2,1,14,1,-6,1,-9,1,0,1,-3,1,-10,1,-19,1,-35,1,-24,1
1665,-14,1,-15,1,-1,1,14,1,-7,1,-8,1,-1,1,-3,1,-10,1,-19,1,-35,1,-25,1
1666,-13,1,-15,1,-2,1,14,1,-6,1,-9,1,-1,1,-3,1,-10,1,-18,1,-35,1,-24,1
1667,-13,1,-15,1,-2,1,14,1,-6,1,-9,1,-1,1,-3,1,-9,1,-17,1,-34,1,-25,1
1668,-12,1,-15,1,-3,1,13,1,-5,1,-9,1,-1,1,-2,1,-8,1,-17,1,-34,1,-25,1
1669,-12,1,-15,1,-3,1,13,1,-5,1,-9,1,-1,1,-1,1,-8,1,-18,1,-34,1,-25,1
1670,-12,1,-15,1,-3,1,13,1,-5,1,-9,1,-1,1,0,1,-8,1,-18,1,-34,1,-25,1
1671,-13,1,-16,1,-3,1,14,1,-5,1,-10,1,0,1,0,1,-8,1,-18,1,-35,1,-24,1
1672,-13,1,-16,1,-3,1,14,1,-5,1,-10,1,0,1,0,1,-8,1,-18,1,-35,1,-24,1
1673,-13,1,-16,1,-3,1,14,1,-5,1,-10,1,0,1,0,1,-9,1,-20,1,-36,1,-24,1
1674,-13,1,-16,1,-3,1,14,1,-5,1,-10,1,-1,1,0,1,-9,1,-19,1,-36,1,-24,1
1675,-13,1,-17,1,-4,1,15,1,-5,1,-11,1,-2,1,0,1,-9,1,-19,1,-36,1,-24,1
1676,-12,1,-17,1,-5,1,14,1,-4,1,-11,1,-2,1,0,1,-9,1,-20,1,-36,1,-25,1
1677,-12,1,-16,1,-4,1,14,1,-4,1,-10,1,-2,1,1,1,-9,1,-21,1,-37,1,-25,1
1678,-12,1,-16,1,-4,1,14,1,-4,1,-10,1,-3,1,1,1,-9,1,-20,1,-37,1,-25,1
1679,-12,1,-17,1,-5,1,14,1,-4,1,-11,1,-3,1,1,1,-8,1,-20,1,-36,1,-25,1
1680,-12,1,-17,1,-5,1,14,1,-4,1,-11,1,-3,1,1,1,-8,1,-20,1,-36,1,-24,1
1681,-12,1,-17,1,-5,1,14,1,-4,1,-11,1,-3,1,2,1,-8,1,-20,1,-36,1,-24,1
1682,-13,1,-18,1,-5,1,15,1,-4,1,-12,1,-3,1,1,1,-8,1,-19,1,-35,1,-25,1
1683,-13,1,-19,1,-6,1,16,1,-4,1,-13,1,-3,1,1,1,-9,1,-19,1,-35,1,-26,1
1684,-13,1,-18,1,-5,1,15,1,-4,1,-12,1,-1,1,1,1,-9,1,-18,1,-36,1,-26,1
1685,-13,1,-18,1,-5,1,15,1,-4,1,-12,1,0,1,1,1,-9,1,-18,1,-36,1,-26,1
1686,-13,1,-18,1,-5,1,15,1,-4,1,-12,1,1,1,1,1,-9,1,-18,1,-36,1,-27,1
1687,-13,1,-18,1,-5,1,15,1,-4,1,-12,1,2,1,1,1,-9,1,-18,1,-37,1,-28,1
1688,-14,1,-18,1,-4,1,16,1,-5,1,-11,1,2,1,1,1,-9,1,-19,1,-37,1,-28,1
1689,-14,1,-19,1,-5,1,16,1,-5,1,-12,1,3,1,1,1,-9,1,-19,1,-37,1,-28,1
1690,-13,1,-20,1,-7,1,16,1,-3,1,-14,1,4,1,1,1,-8,1,-19,1,-37,1,-29,1
1691,-13,1,-20,1,-7,1,16,1,-3,1,-14,1,4,1,1,1,-8,1,-19,1,-38,1,-28,1
1692,-13,1,-21,1,-8,1,17,1,-3,1,-15,1,4,1,1,1,-8,1,-19,1,-38,1,-29,1
1693,-12,1,-21,1,-9,1,16,1,-2,1,-15,1,4,1,1,1,-8,1,-19,1,-37,1,-29,1
1694,-12,1,-21,1,-9,1,16,1,-2,1,-15,1,3,1,1,1,-8,1,-20,1,-37,1,-28,1
1695,-12,1,-21,1,-9,1,16,1,-2,1,-15,1,2,1,1,1,-9,1,-21,1,-38,1,-28,1
1696,-12,1,-21,1,-9,1,16,1,-2,1,-15,1,1,1,1,1,-10,1,-21,1,-38,1,-29,1
1697,-12,1,-21,1,-9,1,16,1,-2,1,-15,1,1,1,1,1,-11,1,-21,1,-37,1,-29,1
1698,-13,1,-21,1,-8,1,17,1,-3,1,-15,1,0,1,1,1,-12,1,-22,1,-37,1,-29,1
1699,-12,1,-21,1,-9,1,16,1,-2,1,-15,1,0,1,1,1,-12,1,-22,1,-37,1,-29,1
1700,-12,1,-21,1,-9,1,16,1,-2,1,-15,1,0,1,1,1,-12,1,-23,1,-37,1,-30,1
1701,-12,1,-22,1,-10,1,17,1,-1,1,-16,1,0,1,2,1,-12,1,-23,1,-38,1,-30,1
1702,-12,1,-22,1,-10,1,17,1,-1,1,-16,1,0,1,1,1,-12,1,-23,1,-39,1,-29,1
1703,-12,1,-22,1,-10,1,17,1,-1,1,-16,1,0,1,1,1,-11,1,-23,1,-38,1,-30,1
1704,-12,1,-21,1,-9,1,16,1,-2,1,-15,1,1,1,2,1,-10,1,-23,1,-38,1,-30,1
1705,-12,1,-20,1,-8,1,16,1,-2,1,-14,1,2,1,3,1,-10,1,-22,1,-38,1,-29,1
1706,-12,1,-18,1,-6,1,15,1,-3,1,-12,1,2,1,3,1,-10,1,-20,1,-37,1,-28,1
1707,-11,1,-16,1,-5,1,13,1,-3,1,-11,1,2,1,4,1,-9,1,-20,1,-36,1,-28,1
1708,-11,1,-15,1,-4,1,13,1,-4,1,-10,1,3,1,4,1,-8,1,-19,1,-35,1,-27,1
1709,-10,1,-13,1,-3,1,11,1,-4,1,-8,1,5,1,7,1,-6,1,-18,1,-35,1,-27,1
1710,-10,1,-12,1,-2,1,11,1,-4,1,-7,1,6,1,7,1,-5,1,-16,1,-33,1,-25,1
1711,-10,1,-12,1,-2,1,11,1,-4,1,-7,1,7,1,9,1,-3,1,-15,1,-32,1,-23,1
1712,-9,1,-12,1,-3,1,10,1,-3,1,-8,1,8,1,9,1,-3,1,-15,1,-31,1,-23,1
1713,-9,1,-11,1,-2,1,10,1,-4,1,-7,1,8,1,9,1,-3,1,-16,1,-30,1,-23,1
1714,-9,1,-11,1,-2,1,10,1,-4,1,-7,1,9,1,9,1,-3,1,-16,1,-31,1,-23,1
1715,-9,1,-11,1,-2,1,10,1,-4,1,-7,1,7,1,8,1,-4,1,-16,1,-32,1,-23,1
1716,-7,1,-12,1,-5,1,9,1,-1,1,-9,1,7,1,8,1,-4,1,-16,1,-32,1,-23,1
1717,-7,1,-11,1,-4,1,9,1,-2,1,-8,1,7,1,8,1,-4,1,-16,1,-31,1,-23,1
1718,-7,1,-11,1,-4,1,9,1,-2,1,-8,1,7,1,9,1,-3,1,-16,1,-32,1,-23,1
1719,-6,1,-11,1,-5,1,8,1,-1,1,-8,1,8,1,10,1,-3,1,-15,1,-32,1,-23,1
1720,-6,1,-11,1,-5,1,8,1,-1,1,-8,1,7,1,12,1,-2,1,-15,1,-31,1,-22,1
1721,-5,1,-10,1,-5,1,7,1,0,1,-8,1,6,1,12,1,-2,1,-15,1,-30,1,-23,1
1722,-5,1,-10,1,-5,1,7,1,0,1,-8,1,5,1,13,1,-1,1,-13,1,-30,1,-22,1
1723,-4,1,-9,1,-5,1,6,1,0,1,-7,1,5,1,12,1,0,1,-13,1,-30,1,-22,1
1724,-4,1,-9,1,-5,1,6,1,0,1,-7,1,4,1,13,1,1,1,-12,1,-29,1,-23,1
1725,-3,1,-8,1,-5,1,5,1,1,1,-7,1,3,1,13,1,2,1,-11,1,-28,1,-22,1
1726,-3,1,-7,1,-4,1,5,1,0,1,-6,1,1,1,14,1,2,1,-11,1,-28,1,-21,1
1727,-3,1,-5,1,-2,1,4,1,-1,1,-4,1,0,1,14,1,4,1,-11,1,-28,1,-21,1
1728,-3,1,-4,1,-1,1,3,1,-1,1,-3,1,-1,1,13,1,4,1,-11,1,-27,1,-20,1
1729,-3,1,-3,1,0,1,3,1,-2,1,-2,1,-1,1,13,1,4,1,-11,1,-27,1,-20,1
1730,-2,1,-2,1,0,1,2,1,-1,1,-1,1,-3,1,11,1,3,1,-10,1,-27,1,-19,1
1731,-2,1,-1,1,1,1,1,1,-2,1,0,1,-3,1,10,1,2,1,-10,1,-26,1,-18,1
1732,-2,1,-1,1,1,1,1,1,-2,1,0,1,-4,1,9,1,1,1,-11,1,-26,1,-19,1
1733,0,1,-1,1,-1,1,0,1,0,1,-1,1,-6,1,7,1,0,1,-11,1,-26,1,-19,1
1734,1,1,-1,1,-2,1,0,1,1,1,-1,1,-8,1,6,1,-2,1,-11,1,-26,1,-18,1
1735,2,1,-1,1,-3,1,0,1,2,1,-2,1,-10,1,5,1,-3,1,-11,1,-25,1,-18,1
1736,3,1,-1,1,-4,1,-1,1,3,1,-2,1,-11,1,3,1,-5,1,-12,1,-26,1,-18,1
1737,4,1,-1,1,-5,1,-1,1,4,1,-3,1,-13,1,2,1,-7,1,-14,1,-27,1,-17,1
1738,5,1,-1,1,-6,1,-2,1,5,1,-3,1,-14,1,1,1,-7,1,-15,1,-26,1,-18,1
1739,6,1,-1,1,-7,1,-2,1,6,1,-4,1,-14,1,1,1,-8,1,-16,1,-27,1,-17,1
1740,6,1,-2,1,-8,1,-2,1,7,1,-5,1,-14,1,0,1,-9,1,-17,1,-27,1,-18,1
1741,7,1,-3,1,-10,1,-2,1,8,1,-6,1,-14,1,0,1,-9,1,-17,1,-28,1,-18,1
1742,7,1,-3,1,-10,1,-2,1,8,1,-6,1,-14,1,0,1,-9,1,-17,1,-27,1,-18,1
