TS,I,If,II,IIf,III,IIIf,aVR,aVRf,aVL,aVLf,aVF,aVFf,V1,V1f,V2,V2f,V3,V3f,V4,V4f,V5,V5f,V6,V6f
1,-23,1,-11,1,12,1,17,1,-18,1,0,1,-6,1,-45,1,-35,1,-25,1,-13,1,-7,1
2,-23,1,-12,1,11,1,17,1,-17,1,-1,1,-5,1,-44,1,-35,1,-26,1,-12,1,-6,1
3,-23,1,-14,1,9,1,18,1,-16,1,-3,1,-5,1,-45,1,-34,1,-24,1,-11,1,-4,1
4,-22,1,-15,1,7,1,18,1,-15,1,-4,1,-6,1,-44,1,-34,1,-23,1,-10,1,-4,1
5,-22,1,-12,1,10,1,17,1,-16,1,-1,1,-5,1,-43,1,-34,1,-24,1,-11,1,-5,1
6,-23,1,-11,1,12,1,17,1,-18,1,0,1,-5,1,-44,1,-35,1,-24,1,-13,1,-5,1
7,-25,1,-9,1,16,1,17,1,-21,1,3,1,-7,1,-45,1,-36,1,-24,1,-12,1,-5,1
8,-23,1,-11,1,12,1,17,1,-18,1,0,1,-6,1,-45,1,-34,1,-22,1,-12,1,-4,1
9,-20,1,-12,1,8,1,16,1,-14,1,-2,1,-5,1,-44,1,-34,1,-22,1,-12,1,-4,1
10,-20,1,-12,1,8,1,16,1,-14,1,-2,1,-6,1,-44,1,-34,1,-22,1,-12,1,-4,1
11,-21,1,-13,1,8,1,17,1,-15,1,-3,1,-5,1,-44,1,-35,1,-22,1,-12,1,-5,1
12,-21,1,-12,1,9,1,16,1,-15,1,-2,1,-5,1,-46,1,-36,1,-23,1,-12,1,-5,1
13,-22,1,-14,1,8,1,18,1,-15,1,-3,1,-5,1,-46,1,-37,1,-23,1,-13,1,-5,1
14,-22,1,-15,1,7,1,18,1,-15,1,-4,1,-4,1,-45,1,-36,1,-22,1,-13,1,-5,1
15,-21,1,-13,1,8,1,17,1,-15,1,-3,1,-4,1,-44,1,-35,1,-22,1,-12,1,-3,1
16,-20,1,-12,1,8,1,16,1,-14,1,-2,1,-4,1,-44,1,-36,1,-22,1,-13,1,-4,1
17,-20,1,-12,1,8,1,16,1,-14,1,-2,1,-4,1,-44,1,-36,1,-22,1,-13,1,-4,1
18,-21,1,-11,1,10,1,16,1,-16,1,-1,1,-5,1,-44,1,-36,1,-22,1,-12,1,-4,1
19,-21,1,-11,1,10,1,16,1,-16,1,-1,1,-4,1,-44,1,-35,1,-22,1,-11,1,-4,1
20,-21,1,-13,1,8,1,17,1,-15,1,-3,1,-4,1,-43,1,-36,1,-22,1,-13,1,-4,1
21,-20,1,-11,1,9,1,15,1,-15,1,-1,1,-5,1,-45,1,-36,1,-22,1,-13,1,-5,1
22,-21,1,-10,1,11,1,15,1,-16,1,0,1,-4,1,-44,1,-35,1,-22,1,-13,1,-4,1
23,-20,1,-9,1,11,1,14,1,-16,1,1,1,-4,1,-43,1,-35,1,-22,1,-12,1,-4,1
24,-18,1,-5,1,13,1,11,1,-16,1,4,1,-6,1,-45,1,-36,1,-23,1,-14,1,-5,1
25,-17,1,-5,1,12,1,11,1,-15,1,3,1,-6,1,-45,1,-37,1,-23,1,-14,1,-6,1
26,-17,1,-7,1,10,1,12,1,-14,1,1,1,-6,1,-44,1,-37,1,-23,1,-13,1,-6,1
27,-19,1,-6,1,13,1,12,1,-16,1,3,1,-5,1,-43,1,-35,1,-21,1,-12,1,-4,1
28,-20,1,-4,1,16,1,12,1,-18,1,6,1,-3,1,-43,1,-34,1,-20,1,-12,1,-4,1
29,-19,1,-4,1,15,1,11,1,-17,1,5,1,-3,1,-42,1,-33,1,-19,1,-11,1,-3,1
30,-18,1,-4,1,14,1,11,1,-16,1,5,1,-1,1,-41,1,-33,1,-19,1,-10,1,-1,1
31,-18,1,-2,1,16,1,10,1,-17,1,7,1,0,1,-40,1,-31,1,-17,1,-9,1,0,1
32,-18,1,-2,1,16,1,10,1,-17,1,7,1,0,1,-39,1,-31,1,-16,1,-8,1,1,1
33,-16,1,-1,1,15,1,8,1,-16,1,7,1,0,1,-38,1,-31,1,-16,1,-8,1,1,1
34,-16,1,0,1,16,1,8,1,-16,1,8,1,-1,1,-38,1,-32,1,-17,1,-7,1,1,1
35,-15,1,0,1,15,1,7,1,-15,1,7,1,-2,1,-40,1,-34,1,-17,1,-7,1,1,1
36,-12,1,0,1,12,1,6,1,-12,1,6,1,-3,1,-41,1,-35,1,-18,1,-8,1,-1,1
37,-14,1,-1,1,13,1,7,1,-14,1,6,1,-1,1,-39,1,-33,1,-17,1,-6,1,0,1
38,-17,1,-3,1,14,1,10,1,-16,1,5,1,-1,1,-39,1,-33,1,-16,1,-6,1,1,1
39,-17,1,-5,1,12,1,11,1,-15,1,3,1,-1,1,-39,1,-33,1,-16,1,-6,1,2,1
40,-15,1,-5,1,10,1,10,1,-13,1,2,1,-2,1,-38,1,-33,1,-16,1,-5,1,2,1
41,-13,1,-5,1,8,1,9,1,-11,1,1,1,-5,1,-38,1,-33,1,-17,1,-5,1,2,1
42,-12,1,-4,1,8,1,8,1,-10,1,2,1,-7,1,-38,1,-32,1,-16,1,-4,1,4,1
43,-11,1,-2,1,9,1,6,1,-10,1,3,1,-7,1,-37,1,-31,1,-14,1,-3,1,5,1
44,-8,1,-1,1,7,1,4,1,-8,1,3,1,-6,1,-36,1,-30,1,-13,1,-1,1,6,1
45,-8,1,1,1,9,1,3,1,-8,1,5,1,-6,1,-35,1,-30,1,-12,1,0,1,8,1
46,-8,1,0,1,8,1,4,1,-8,1,4,1,-6,1,-35,1,-29,1,-12,1,0,1,8,1
47,-9,1,0,1,9,1,4,1,-9,1,4,1,-6,1,-35,1,-29,1,-12,1,0,1,8,1
48,-7,1,1,1,8,1,3,1,-7,1,4,1,-8,1,-38,1,-31,1,-13,1,-1,1,8,1
49,-8,1,-1,1,7,1,4,1,-8,1,3,1,-8,1,-37,1,-32,1,-14,1,-1,1,7,1
50,-8,1,-3,1,5,1,5,1,-7,1,1,1,-9,1,-39,1,-33,1,-14,1,-1,1,7,1
51,-9,1,-3,1,6,1,6,1,-8,1,1,1,-12,1,-41,1,-34,1,-16,1,-3,1,6,1
52,-9,1,-3,1,6,1,6,1,-8,1,1,1,-12,1,-42,1,-35,1,-17,1,-5,1,4,1
53,-9,1,-2,1,7,1,5,1,-8,1,2,1,-11,1,-40,1,-34,1,-16,1,-4,1,5,1
54,-9,1,-2,1,7,1,5,1,-8,1,2,1,-9,1,-38,1,-33,1,-15,1,-3,1,6,1
55,-7,1,-2,1,5,1,4,1,-6,1,1,1,-9,1,-37,1,-33,1,-16,1,-5,1,6,1
56,-6,1,-2,1,4,1,4,1,-5,1,1,1,-9,1,-36,1,-32,1,-16,1,-5,1,6,1
57,-6,1,-2,1,4,1,4,1,-5,1,1,1,-9,1,-36,1,-32,1,-15,1,-5,1,6,1
58,-6,1,-2,1,4,1,4,1,-5,1,1,1,-10,1,-38,1,-33,1,-16,1,-5,1,5,1
59,-8,1,-4,1,4,1,6,1,-6,1,0,1,-11,1,-38,1,-34,1,-16,1,-6,1,4,1
60,-8,1,-5,1,3,1,6,1,-6,1,-1,1,-11,1,-38,1,-35,1,-16,1,-6,1,5,1
61,-7,1,-4,1,3,1,5,1,-5,1,-1,1,-12,1,-40,1,-35,1,-17,1,-7,1,5,1
62,-6,1,-3,1,3,1,4,1,-5,1,0,1,-14,1,-42,1,-37,1,-18,1,-8,1,3,1
63,-5,1,-4,1,1,1,4,1,-3,1,-2,1,-14,1,-42,1,-38,1,-19,1,-8,1,3,1
64,-5,1,-4,1,1,1,4,1,-3,1,-2,1,-15,1,-42,1,-39,1,-20,1,-8,1,3,1
65,-6,1,-5,1,1,1,5,1,-4,1,-2,1,-14,1,-41,1,-38,1,-19,1,-8,1,2,1
66,-6,1,-5,1,1,1,5,1,-4,1,-2,1,-13,1,-39,1,-37,1,-19,1,-8,1,2,1
67,-8,1,-4,1,4,1,6,1,-6,1,0,1,-12,1,-39,1,-36,1,-19,1,-8,1,1,1
68,-10,1,-4,1,6,1,7,1,-8,1,1,1,-12,1,-40,1,-37,1,-19,1,-9,1,1,1
69,-13,1,-6,1,7,1,9,1,-10,1,0,1,-11,1,-39,1,-37,1,-20,1,-10,1,0,1
70,-14,1,-6,1,8,1,10,1,-11,1,1,1,-11,1,-38,1,-36,1,-20,1,-10,1,-1,1
71,-16,1,-7,1,9,1,11,1,-13,1,1,1,-12,1,-39,1,-37,1,-20,1,-10,1,-2,1
72,-17,1,-7,1,10,1,12,1,-14,1,1,1,-11,1,-37,1,-36,1,-21,1,-11,1,-2,1
73,-19,1,-10,1,9,1,14,1,-14,1,-1,1,-9,1,-38,1,-38,1,-22,1,-13,1,-3,1
74,-22,1,-14,1,8,1,18,1,-15,1,-3,1,-8,1,-38,1,-38,1,-23,1,-13,1,-4,1
75,-22,1,-14,1,8,1,18,1,-15,1,-3,1,-8,1,-38,1,-38,1,-23,1,-13,1,-3,1
76,-20,1,-14,1,6,1,17,1,-13,1,-4,1,-8,1,-40,1,-40,1,-23,1,-14,1,-4,1
77,-20,1,-14,1,6,1,17,1,-13,1,-4,1,-7,1,-40,1,-39,1,-24,1,-13,1,-3,1
78,-21,1,-16,1,5,1,18,1,-13,1,-6,1,-7,1,-40,1,-39,1,-22,1,-12,1,-2,1
79,-21,1,-18,1,3,1,19,1,-12,1,-8,1,-7,1,-41,1,-41,1,-23,1,-12,1,-2,1
80,-20,1,-19,1,1,1,19,1,-11,1,-9,1,-8,1,-42,1,-41,1,-24,1,-13,1,-2,1
81,-20,1,-19,1,1,1,19,1,-11,1,-9,1,-9,1,-42,1,-42,1,-25,1,-14,1,-3,1
82,-19,1,-18,1,1,1,18,1,-10,1,-9,1,-9,1,-42,1,-43,1,-26,1,-15,1,-4,1
83,-21,1,-17,1,4,1,19,1,-13,1,-7,1,-9,1,-43,1,-42,1,-25,1,-15,1,-4,1
84,-22,1,-17,1,5,1,19,1,-14,1,-6,1,-9,1,-42,1,-41,1,-25,1,-14,1,-3,1
85,-23,1,-18,1,5,1,20,1,-14,1,-7,1,-8,1,-41,1,-41,1,-26,1,-15,1,-3,1
86,-23,1,-19,1,4,1,21,1,-14,1,-8,1,-8,1,-41,1,-41,1,-26,1,-16,1,-4,1
87,-23,1,-19,1,4,1,21,1,-14,1,-8,1,-6,1,-40,1,-41,1,-23,1,-16,1,-4,1
88,-23,1,-22,1,1,1,22,1,-12,1,-11,1,-7,1,-40,1,-42,1,-25,1,-16,1,-5,1
89,-22,1,-20,1,2,1,21,1,-12,1,-9,1,-9,1,-41,1,-42,1,-25,1,-16,1,-5,1
90,-23,1,-18,1,5,1,20,1,-14,1,-7,1,-8,1,-40,1,-41,1,-25,1,-15,1,-6,1
91,-24,1,-18,1,6,1,21,1,-15,1,-6,1,-9,1,-41,1,-42,1,-27,1,-15,1,-6,1
92,-25,1,-17,1,8,1,21,1,-17,1,-5,1,-9,1,-41,1,-43,1,-27,1,-16,1,-7,1
93,-25,1,-17,1,8,1,21,1,-17,1,-5,1,-9,1,-42,1,-43,1,-27,1,-16,1,-8,1
94,-26,1,-18,1,8,1,22,1,-17,1,-5,1,-10,1,-42,1,-43,1,-27,1,-15,1,-8,1
95,-25,1,-18,1,7,1,21,1,-16,1,-6,1,-9,1,-41,1,-43,1,-27,1,-16,1,-8,1
96,-26,1,-18,1,8,1,22,1,-17,1,-5,1,-7,1,-40,1,-42,1,-27,1,-15,1,-8,1
97,-25,1,-18,1,7,1,21,1,-16,1,-6,1,-7,1,-40,1,-42,1,-27,1,-15,1,-8,1
98,-25,1,-18,1,7,1,21,1,-16,1,-6,1,-8,1,-41,1,-43,1,-28,1,-16,1,-9,1
99,-22,1,-16,1,6,1,19,1,-14,1,-5,1,-8,1,-41,1,-43,1,-28,1,-16,1,-11,1
100,-22,1,-16,1,6,1,19,1,-14,1,-5,1,-8,1,-40,1,-43,1,-28,1,-16,1,-10,1
101,-24,1,-17,1,7,1,20,1,-16,1,-5,1,-8,1,-40,1,-41,1,-27,1,-16,1,-10,1
102,-25,1,-17,1,8,1,21,1,-17,1,-5,1,-7,1,-39,1,-42,1,-27,1,-16,1,-10,1
103,-27,1,-18,1,9,1,22,1,-18,1,-5,1,-8,1,-39,1,-42,1,-27,1,-16,1,-10,1
104,-28,1,-18,1,10,1,23,1,-19,1,-4,1,-8,1,-40,1,-42,1,-27,1,-16,1,-10,1
105,-25,1,-19,1,6,1,22,1,-16,1,-7,1,-5,1,-37,1,-41,1,-27,1,-17,1,-11,1
106,-28,1,-19,1,9,1,23,1,-19,1,-5,1,0,1,-31,1,-38,1,-26,1,-18,1,-11,1
107,-31,1,-18,1,13,1,24,1,-22,1,-3,1,7,1,-25,1,-36,1,-24,1,-18,1,-13,1
108,-31,1,-15,1,16,1,23,1,-24,1,0,1,14,1,-19,1,-34,1,-23,1,-18,1,-13,1
109,-29,1,-13,1,16,1,21,1,-23,1,1,1,18,1,-13,1,-30,1,-20,1,-16,1,-12,1
110,-25,1,-10,1,15,1,17,1,-20,1,2,1,21,1,-4,1,-22,1,-14,1,-13,1,-9,1
111,-20,1,-10,1,10,1,15,1,-15,1,0,1,26,1,14,1,-12,1,-6,1,-7,1,-7,1
112,-11,1,-6,1,5,1,8,1,-8,1,-1,1,33,1,40,1,3,1,6,1,-1,1,-4,1
113,-3,1,-1,1,2,1,2,1,-3,1,0,1,44,1,63,1,22,1,20,1,8,1,2,1
114,5,1,8,1,3,1,-6,1,1,1,6,1,53,1,93,1,50,1,42,1,23,1,12,1
115,17,1,20,1,3,1,-18,1,7,1,12,1,56,1,126,1,83,1,68,1,41,1,24,1
116,32,1,34,1,2,1,-33,1,15,1,18,1,48,1,152,1,116,1,96,1,62,1,40,1
117,48,1,48,1,0,1,-48,1,24,1,24,1,30,1,175,1,152,1,126,1,84,1,57,1
118,61,1,61,1,0,1,-61,1,31,1,31,1,8,1,192,1,188,1,157,1,108,1,76,1
119,76,1,82,1,6,1,-79,1,35,1,44,1,-28,1,188,1,214,1,183,1,132,1,96,1
120,88,1,106,1,18,1,-97,1,35,1,62,1,-72,1,161,1,228,1,204,1,154,1,116,1
121,97,1,120,1,23,1,-108,1,37,1,72,1,-111,1,136,1,238,1,216,1,169,1,129,1
122,99,1,125,1,26,1,-112,1,37,1,76,1,-135,1,119,1,242,1,220,1,174,1,134,1
123,84,1,109,1,25,1,-96,1,30,1,67,1,-139,1,104,1,233,1,207,1,162,1,124,1
124,68,1,81,1,13,1,-74,1,28,1,47,1,-134,1,89,1,206,1,176,1,139,1,107,1
125,56,1,63,1,7,1,-59,1,25,1,35,1,-137,1,56,1,159,1,136,1,115,1,92,1
126,40,1,50,1,10,1,-45,1,15,1,30,1,-141,1,9,1,105,1,93,1,88,1,75,1
127,22,1,38,1,16,1,-30,1,3,1,27,1,-145,1,-50,1,44,1,47,1,61,1,57,1
128,2,1,24,1,22,1,-13,1,-10,1,23,1,-147,1,-126,1,-24,1,0,1,31,1,36,1
129,-17,1,11,1,28,1,3,1,-22,1,19,1,-149,1,-205,1,-90,1,-43,1,2,1,16,1
130,-29,1,0,1,29,1,14,1,-29,1,14,1,-155,1,-249,1,-132,1,-74,1,-20,1,0,1
131,-37,1,-13,1,24,1,25,1,-31,1,5,1,-162,1,-263,1,-152,1,-90,1,-33,1,-10,1
132,-45,1,-23,1,22,1,34,1,-34,1,-1,1,-158,1,-256,1,-154,1,-94,1,-40,1,-16,1
133,-50,1,-27,1,23,1,38,1,-37,1,-2,1,-153,1,-242,1,-149,1,-93,1,-44,1,-21,1
134,-52,1,-28,1,24,1,40,1,-38,1,-2,1,-147,1,-230,1,-146,1,-92,1,-46,1,-25,1
135,-55,1,-31,1,24,1,43,1,-40,1,-4,1,-142,1,-218,1,-143,1,-92,1,-51,1,-29,1
136,-58,1,-37,1,21,1,47,1,-40,1,-8,1,-134,1,-203,1,-138,1,-92,1,-52,1,-32,1
137,-59,1,-41,1,18,1,50,1,-39,1,-12,1,-126,1,-188,1,-133,1,-91,1,-54,1,-35,1
138,-53,1,-36,1,17,1,44,1,-35,1,-10,1,-115,1,-168,1,-123,1,-85,1,-52,1,-35,1
139,-51,1,-30,1,21,1,40,1,-36,1,-5,1,-104,1,-147,1,-109,1,-75,1,-45,1,-31,1
140,-48,1,-27,1,21,1,37,1,-35,1,-3,1,-91,1,-129,1,-97,1,-64,1,-37,1,-26,1
141,-43,1,-20,1,23,1,31,1,-33,1,1,1,-76,1,-111,1,-84,1,-54,1,-31,1,-22,1
142,-39,1,-12,1,27,1,25,1,-33,1,7,1,-62,1,-94,1,-72,1,-45,1,-26,1,-19,1
143,-34,1,-9,1,25,1,21,1,-30,1,8,1,-46,1,-76,1,-58,1,-35,1,-19,1,-15,1
144,-29,1,-6,1,23,1,17,1,-26,1,8,1,-32,1,-60,1,-48,1,-25,1,-14,1,-11,1
145,-25,1,-3,1,22,1,14,1,-24,1,9,1,-25,1,-51,1,-43,1,-22,1,-11,1,-9,1
146,-23,1,-2,1,21,1,12,1,-22,1,9,1,-18,1,-44,1,-40,1,-19,1,-10,1,-9,1
147,-20,1,-3,1,17,1,11,1,-19,1,7,1,-13,1,-36,1,-36,1,-17,1,-8,1,-8,1
148,-18,1,-5,1,13,1,11,1,-16,1,4,1,-8,1,-29,1,-33,1,-14,1,-8,1,-8,1
149,-17,1,-8,1,9,1,12,1,-13,1,0,1,-6,1,-24,1,-30,1,-13,1,-8,1,-8,1
150,-18,1,-10,1,8,1,14,1,-13,1,-1,1,-4,1,-21,1,-30,1,-12,1,-8,1,-7,1
151,-17,1,-10,1,7,1,13,1,-12,1,-2,1,-3,1,-19,1,-28,1,-12,1,-7,1,-8,1
152,-16,1,-10,1,6,1,13,1,-11,1,-2,1,-2,1,-18,1,-27,1,-12,1,-7,1,-9,1
153,-16,1,-10,1,6,1,13,1,-11,1,-2,1,-1,1,-17,1,-25,1,-11,1,-6,1,-8,1
154,-16,1,-9,1,7,1,12,1,-12,1,-1,1,0,1,-15,1,-25,1,-10,1,-7,1,-8,1
155,-15,1,-7,1,8,1,11,1,-12,1,0,1,0,1,-14,1,-25,1,-9,1,-7,1,-7,1
156,-15,1,-7,1,8,1,11,1,-12,1,0,1,0,1,-14,1,-24,1,-9,1,-7,1,-8,1
157,-13,1,-7,1,6,1,10,1,-10,1,-1,1,-1,1,-11,1,-24,1,-8,1,-7,1,-7,1
158,-11,1,-9,1,2,1,10,1,-7,1,-4,1,0,1,-10,1,-22,1,-7,1,-6,1,-6,1
159,-9,1,-8,1,1,1,8,1,-5,1,-4,1,0,1,-9,1,-22,1,-6,1,-6,1,-6,1
160,-8,1,-6,1,2,1,7,1,-5,1,-2,1,1,1,-8,1,-20,1,-5,1,-5,1,-6,1
161,-12,1,-6,1,6,1,9,1,-9,1,0,1,2,1,-7,1,-19,1,-5,1,-4,1,-6,1
162,-15,1,-6,1,9,1,10,1,-12,1,1,1,3,1,-6,1,-17,1,-4,1,-4,1,-6,1
163,-12,1,-6,1,6,1,9,1,-9,1,0,1,3,1,-6,1,-17,1,-3,1,-4,1,-6,1
164,-12,1,-6,1,6,1,9,1,-9,1,0,1,2,1,-4,1,-17,1,-3,1,-4,1,-6,1
165,-11,1,-5,1,6,1,8,1,-9,1,0,1,2,1,-2,1,-16,1,-1,1,-3,1,-5,1
166,-10,1,-3,1,7,1,6,1,-9,1,2,1,3,1,-2,1,-14,1,0,1,-2,1,-5,1
167,-9,1,-3,1,6,1,6,1,-8,1,1,1,3,1,-2,1,-14,1,0,1,-3,1,-6,1
168,-9,1,-3,1,6,1,6,1,-8,1,1,1,3,1,-2,1,-14,1,0,1,-3,1,-6,1
169,-8,1,-1,1,7,1,4,1,-8,1,3,1,3,1,0,1,-13,1,0,1,-2,1,-6,1
170,-6,1,-2,1,4,1,4,1,-5,1,1,1,2,1,0,1,-13,1,1,1,-3,1,-7,1
171,-6,1,-2,1,4,1,4,1,-5,1,1,1,2,1,0,1,-13,1,0,1,-4,1,-8,1
172,-7,1,-2,1,5,1,4,1,-6,1,1,1,4,1,2,1,-12,1,1,1,-3,1,-7,1
173,-7,1,-2,1,5,1,4,1,-6,1,1,1,5,1,3,1,-12,1,3,1,-2,1,-7,1
174,-4,1,-2,1,2,1,3,1,-3,1,0,1,7,1,3,1,-10,1,3,1,-2,1,-6,1
175,-5,1,-4,1,1,1,4,1,-3,1,-2,1,6,1,4,1,-9,1,5,1,-3,1,-6,1
176,-5,1,-4,1,1,1,4,1,-3,1,-2,1,7,1,6,1,-9,1,5,1,-3,1,-6,1
177,-5,1,-2,1,3,1,3,1,-4,1,0,1,7,1,7,1,-9,1,5,1,-3,1,-6,1
178,-5,1,1,1,6,1,2,1,-5,1,3,1,7,1,7,1,-9,1,4,1,-3,1,-8,1
179,-5,1,2,1,7,1,1,1,-6,1,4,1,5,1,7,1,-9,1,3,1,-4,1,-8,1
180,-5,1,-2,1,3,1,3,1,-4,1,0,1,7,1,8,1,-7,1,4,1,-3,1,-7,1
181,-4,1,-3,1,1,1,3,1,-3,1,-1,1,7,1,10,1,-5,1,6,1,-3,1,-7,1
182,-4,1,-1,1,3,1,2,1,-4,1,1,1,7,1,11,1,-5,1,6,1,-2,1,-7,1
183,-4,1,-1,1,3,1,2,1,-4,1,1,1,7,1,11,1,-4,1,8,1,-1,1,-5,1
184,-3,1,-1,1,2,1,2,1,-3,1,0,1,8,1,13,1,-2,1,9,1,-1,1,-4,1
185,-1,1,-1,1,0,1,1,1,-1,1,-1,1,8,1,15,1,-2,1,11,1,-2,1,-5,1
186,-1,1,2,1,3,1,0,1,-2,1,2,1,9,1,16,1,-1,1,11,1,-1,1,-4,1
187,-1,1,3,1,4,1,-1,1,-2,1,3,1,8,1,16,1,-1,1,11,1,-1,1,-4,1
188,0,1,3,1,3,1,-1,1,-1,1,3,1,7,1,16,1,0,1,13,1,-1,1,-5,1
189,0,1,3,1,3,1,-1,1,-1,1,3,1,8,1,18,1,1,1,13,1,0,1,-4,1
190,1,1,5,1,4,1,-3,1,-1,1,5,1,8,1,19,1,2,1,13,1,0,1,-4,1
191,1,1,3,1,2,1,-2,1,0,1,3,1,9,1,20,1,3,1,15,1,0,1,-3,1
192,1,1,4,1,3,1,-2,1,-1,1,4,1,9,1,22,1,4,1,17,1,1,1,-2,1
193,1,1,2,1,1,1,-1,1,0,1,2,1,9,1,23,1,6,1,17,1,2,1,-1,1
194,1,1,3,1,2,1,-2,1,0,1,3,1,9,1,24,1,6,1,18,1,2,1,-2,1
195,2,1,4,1,2,1,-3,1,0,1,3,1,9,1,25,1,7,1,20,1,2,1,-1,1
196,3,1,4,1,1,1,-3,1,1,1,3,1,10,1,26,1,8,1,20,1,2,1,-1,1
197,3,1,6,1,3,1,-4,1,0,1,5,1,9,1,26,1,8,1,19,1,2,1,-1,1
198,4,1,5,1,1,1,-4,1,2,1,3,1,11,1,27,1,10,1,21,1,3,1,0,1
199,5,1,5,1,0,1,-5,1,3,1,3,1,10,1,29,1,11,1,22,1,2,1,0,1
200,5,1,7,1,2,1,-6,1,2,1,5,1,10,1,29,1,11,1,21,1,0,1,-3,1
201,4,1,7,1,3,1,-5,1,1,1,5,1,10,1,30,1,13,1,22,1,1,1,-2,1
202,5,1,8,1,3,1,-6,1,1,1,6,1,9,1,32,1,14,1,22,1,1,1,-2,1
203,5,1,9,1,4,1,-7,1,1,1,7,1,10,1,34,1,15,1,24,1,3,1,-1,1
204,5,1,9,1,4,1,-7,1,1,1,7,1,11,1,35,1,17,1,26,1,3,1,-1,1
205,5,1,7,1,2,1,-6,1,2,1,5,1,12,1,37,1,19,1,28,1,4,1,0,1
206,8,1,10,1,2,1,-9,1,3,1,6,1,12,1,40,1,20,1,29,1,5,1,1,1
207,8,1,10,1,2,1,-9,1,3,1,6,1,11,1,41,1,19,1,28,1,4,1,0,1
208,9,1,10,1,1,1,-9,1,4,1,6,1,12,1,42,1,21,1,29,1,4,1,1,1
209,9,1,10,1,1,1,-9,1,4,1,6,1,13,1,44,1,23,1,31,1,5,1,3,1
210,10,1,10,1,0,1,-10,1,5,1,5,1,13,1,46,1,25,1,32,1,5,1,2,1
211,11,1,12,1,1,1,-11,1,5,1,7,1,13,1,48,1,26,1,34,1,6,1,2,1
212,13,1,13,1,0,1,-13,1,7,1,7,1,13,1,49,1,27,1,34,1,5,1,3,1
213,12,1,13,1,1,1,-12,1,6,1,7,1,15,1,52,1,29,1,37,1,7,1,3,1
214,13,1,15,1,2,1,-14,1,6,1,9,1,13,1,54,1,31,1,39,1,7,1,3,1
215,15,1,17,1,2,1,-16,1,7,1,10,1,12,1,56,1,32,1,40,1,7,1,4,1
216,17,1,19,1,2,1,-18,1,8,1,11,1,12,1,57,1,34,1,41,1,8,1,5,1
217,16,1,19,1,3,1,-17,1,7,1,11,1,14,1,60,1,36,1,43,1,9,1,6,1
218,15,1,20,1,5,1,-17,1,5,1,13,1,16,1,64,1,41,1,46,1,11,1,8,1
219,17,1,22,1,5,1,-19,1,6,1,14,1,17,1,66,1,42,1,48,1,13,1,8,1
220,20,1,25,1,5,1,-22,1,8,1,15,1,17,1,69,1,44,1,49,1,13,1,9,1
221,22,1,27,1,5,1,-24,1,9,1,16,1,16,1,70,1,45,1,50,1,15,1,10,1
222,21,1,27,1,6,1,-24,1,8,1,17,1,16,1,72,1,47,1,53,1,15,1,10,1
223,21,1,28,1,7,1,-24,1,7,1,18,1,15,1,73,1,48,1,53,1,16,1,12,1
224,21,1,28,1,7,1,-24,1,7,1,18,1,17,1,78,1,52,1,56,1,18,1,14,1
225,22,1,28,1,6,1,-25,1,8,1,17,1,17,1,81,1,54,1,58,1,20,1,16,1
226,23,1,27,1,4,1,-25,1,10,1,16,1,18,1,83,1,56,1,60,1,21,1,17,1
227,23,1,27,1,4,1,-25,1,10,1,16,1,17,1,85,1,59,1,63,1,23,1,18,1
228,24,1,29,1,5,1,-26,1,10,1,17,1,16,1,88,1,60,1,64,1,23,1,18,1
229,27,1,31,1,4,1,-29,1,12,1,18,1,17,1,90,1,63,1,66,1,24,1,20,1
230,29,1,33,1,4,1,-31,1,13,1,19,1,16,1,92,1,64,1,68,1,24,1,20,1
231,29,1,34,1,5,1,-31,1,12,1,20,1,16,1,94,1,67,1,70,1,25,1,21,1
232,29,1,37,1,8,1,-33,1,11,1,23,1,16,1,95,1,69,1,72,1,27,1,22,1
233,31,1,38,1,7,1,-34,1,12,1,23,1,16,1,98,1,71,1,73,1,28,1,23,1
234,31,1,38,1,7,1,-34,1,12,1,23,1,18,1,101,1,74,1,77,1,30,1,25,1
235,32,1,41,1,9,1,-36,1,12,1,25,1,18,1,104,1,77,1,79,1,32,1,27,1
236,34,1,41,1,7,1,-37,1,14,1,24,1,18,1,105,1,79,1,80,1,34,1,27,1
237,36,1,42,1,6,1,-39,1,15,1,24,1,18,1,105,1,79,1,81,1,35,1,29,1
238,35,1,43,1,8,1,-39,1,14,1,26,1,17,1,106,1,81,1,82,1,37,1,29,1
239,35,1,42,1,7,1,-38,1,14,1,25,1,17,1,107,1,82,1,83,1,37,1,29,1
240,38,1,44,1,6,1,-41,1,16,1,25,1,17,1,109,1,84,1,85,1,40,1,31,1
241,37,1,45,1,8,1,-41,1,15,1,27,1,17,1,109,1,85,1,86,1,40,1,31,1
242,37,1,48,1,11,1,-42,1,13,1,30,1,16,1,109,1,85,1,86,1,40,1,31,1
243,38,1,50,1,12,1,-44,1,13,1,31,1,15,1,110,1,86,1,87,1,41,1,32,1
244,40,1,51,1,11,1,-45,1,15,1,31,1,16,1,111,1,87,1,88,1,43,1,32,1
245,40,1,50,1,10,1,-45,1,15,1,30,1,16,1,111,1,89,1,90,1,44,1,33,1
246,39,1,51,1,12,1,-45,1,14,1,32,1,17,1,111,1,90,1,90,1,44,1,34,1
247,39,1,51,1,12,1,-45,1,14,1,32,1,15,1,112,1,91,1,91,1,44,1,35,1
248,39,1,53,1,14,1,-46,1,13,1,34,1,14,1,112,1,90,1,90,1,44,1,35,1
249,41,1,55,1,14,1,-48,1,14,1,35,1,14,1,112,1,90,1,90,1,44,1,35,1
250,41,1,57,1,16,1,-49,1,13,1,37,1,15,1,110,1,91,1,91,1,46,1,36,1
251,42,1,56,1,14,1,-49,1,14,1,35,1,15,1,109,1,90,1,90,1,45,1,36,1
252,41,1,56,1,15,1,-48,1,13,1,36,1,14,1,109,1,91,1,92,1,46,1,37,1
253,40,1,57,1,17,1,-48,1,12,1,37,1,14,1,108,1,92,1,92,1,47,1,38,1
254,39,1,56,1,17,1,-47,1,11,1,37,1,14,1,108,1,91,1,92,1,47,1,38,1
255,39,1,56,1,17,1,-47,1,11,1,37,1,14,1,105,1,91,1,93,1,48,1,39,1
256,40,1,56,1,16,1,-48,1,12,1,36,1,13,1,104,1,91,1,92,1,49,1,40,1
257,38,1,54,1,16,1,-46,1,11,1,35,1,11,1,102,1,90,1,91,1,48,1,39,1
258,37,1,52,1,15,1,-44,1,11,1,34,1,10,1,99,1,86,1,89,1,46,1,38,1
259,35,1,53,1,18,1,-44,1,9,1,36,1,11,1,97,1,84,1,88,1,45,1,38,1
260,38,1,53,1,15,1,-45,1,12,1,34,1,11,1,94,1,82,1,87,1,44,1,37,1
261,36,1,53,1,17,1,-44,1,10,1,35,1,11,1,90,1,79,1,85,1,41,1,36,1
262,33,1,54,1,21,1,-43,1,6,1,38,1,11,1,85,1,76,1,81,1,39,1,33,1
263,32,1,55,1,23,1,-43,1,5,1,39,1,11,1,82,1,74,1,79,1,38,1,31,1
264,33,1,52,1,19,1,-42,1,7,1,36,1,11,1,79,1,71,1,77,1,35,1,31,1
265,30,1,46,1,16,1,-38,1,7,1,31,1,12,1,76,1,69,1,76,1,34,1,30,1
266,29,1,44,1,15,1,-36,1,7,1,30,1,10,1,70,1,63,1,71,1,31,1,28,1
267,27,1,41,1,14,1,-34,1,7,1,28,1,10,1,65,1,59,1,68,1,28,1,27,1
268,26,1,40,1,14,1,-33,1,6,1,27,1,8,1,59,1,54,1,64,1,26,1,25,1
269,23,1,41,1,18,1,-32,1,3,1,30,1,8,1,52,1,48,1,59,1,20,1,22,1
270,20,1,39,1,19,1,-29,1,1,1,29,1,8,1,47,1,45,1,56,1,18,1,19,1
271,18,1,37,1,19,1,-27,1,0,1,28,1,8,1,43,1,41,1,54,1,15,1,18,1
272,13,1,34,1,21,1,-23,1,-4,1,28,1,8,1,37,1,36,1,50,1,13,1,16,1
273,11,1,30,1,19,1,-20,1,-4,1,25,1,8,1,31,1,31,1,46,1,10,1,14,1
274,11,1,28,1,17,1,-19,1,-3,1,23,1,5,1,25,1,25,1,41,1,5,1,11,1
275,11,1,28,1,17,1,-19,1,-3,1,23,1,5,1,20,1,21,1,37,1,4,1,10,1
276,11,1,27,1,16,1,-19,1,-2,1,22,1,4,1,16,1,17,1,33,1,2,1,7,1
277,6,1,24,1,18,1,-15,1,-6,1,21,1,4,1,10,1,13,1,32,1,0,1,6,1
278,5,1,22,1,17,1,-13,1,-6,1,20,1,2,1,6,1,9,1,28,1,-2,1,4,1
279,5,1,20,1,15,1,-12,1,-5,1,18,1,1,1,1,1,6,1,24,1,-5,1,2,1
280,2,1,17,1,15,1,-9,1,-6,1,16,1,3,1,-2,1,2,1,21,1,-7,1,1,1
281,1,1,14,1,13,1,-7,1,-6,1,14,1,2,1,-6,1,-1,1,18,1,-11,1,-1,1
282,-1,1,14,1,15,1,-6,1,-8,1,14,1,2,1,-9,1,-4,1,15,1,-13,1,-2,1
283,-3,1,12,1,15,1,-4,1,-9,1,13,1,3,1,-13,1,-7,1,12,1,-16,1,-5,1
284,-4,1,11,1,15,1,-3,1,-9,1,13,1,2,1,-17,1,-10,1,10,1,-17,1,-6,1
285,-6,1,9,1,15,1,-1,1,-10,1,12,1,2,1,-21,1,-13,1,8,1,-18,1,-7,1
286,-3,1,6,1,9,1,-1,1,-6,1,7,1,1,1,-25,1,-17,1,5,1,-20,1,-9,1
287,-6,1,3,1,9,1,1,1,-7,1,6,1,2,1,-27,1,-18,1,3,1,-21,1,-9,1
288,-8,1,2,1,10,1,3,1,-9,1,6,1,0,1,-29,1,-20,1,3,1,-23,1,-11,1
289,-9,1,2,1,11,1,3,1,-10,1,6,1,1,1,-31,1,-22,1,2,1,-22,1,-10,1
290,-9,1,1,1,10,1,4,1,-9,1,5,1,1,1,-32,1,-24,1,0,1,-22,1,-10,1
291,-10,1,-1,1,9,1,5,1,-10,1,4,1,0,1,-34,1,-25,1,-1,1,-24,1,-11,1
292,-11,1,-1,1,10,1,6,1,-11,1,4,1,0,1,-36,1,-26,1,-2,1,-24,1,-11,1
293,-12,1,-2,1,10,1,7,1,-11,1,4,1,-1,1,-40,1,-28,1,-5,1,-26,1,-13,1
294,-11,1,-2,1,9,1,6,1,-10,1,3,1,-1,1,-41,1,-31,1,-6,1,-27,1,-14,1
295,-12,1,-2,1,10,1,7,1,-11,1,4,1,0,1,-42,1,-32,1,-7,1,-28,1,-15,1
296,-13,1,-3,1,10,1,8,1,-12,1,3,1,-1,1,-44,1,-33,1,-8,1,-28,1,-16,1
297,-13,1,-5,1,8,1,9,1,-11,1,1,1,-2,1,-44,1,-34,1,-9,1,-28,1,-15,1
298,-13,1,-6,1,7,1,9,1,-10,1,0,1,-2,1,-46,1,-34,1,-10,1,-29,1,-16,1
299,-13,1,-6,1,7,1,9,1,-10,1,0,1,-1,1,-46,1,-35,1,-9,1,-27,1,-16,1
300,-12,1,-5,1,7,1,8,1,-10,1,1,1,-2,1,-45,1,-35,1,-8,1,-27,1,-15,1
301,-12,1,-4,1,8,1,8,1,-10,1,2,1,-3,1,-46,1,-35,1,-11,1,-27,1,-16,1
302,-13,1,-6,1,7,1,9,1,-10,1,0,1,-4,1,-48,1,-37,1,-13,1,-28,1,-17,1
303,-13,1,-7,1,6,1,10,1,-10,1,-1,1,-4,1,-49,1,-37,1,-12,1,-27,1,-17,1
304,-13,1,-6,1,7,1,9,1,-10,1,0,1,-4,1,-50,1,-38,1,-13,1,-28,1,-18,1
305,-13,1,-8,1,5,1,10,1,-9,1,-2,1,-4,1,-50,1,-36,1,-12,1,-26,1,-16,1
306,-12,1,-9,1,3,1,10,1,-8,1,-3,1,-4,1,-49,1,-36,1,-12,1,-26,1,-16,1
307,-11,1,-8,1,3,1,9,1,-7,1,-3,1,-4,1,-50,1,-36,1,-12,1,-27,1,-16,1
308,-10,1,-7,1,3,1,8,1,-7,1,-2,1,-4,1,-50,1,-36,1,-13,1,-27,1,-17,1
309,-14,1,-8,1,6,1,11,1,-10,1,-1,1,-3,1,-48,1,-36,1,-13,1,-26,1,-16,1
310,-14,1,-9,1,5,1,11,1,-10,1,-2,1,-4,1,-49,1,-36,1,-13,1,-26,1,-16,1
311,-14,1,-9,1,5,1,11,1,-10,1,-2,1,-5,1,-51,1,-37,1,-14,1,-28,1,-17,1
312,-12,1,-7,1,5,1,9,1,-9,1,-1,1,-4,1,-50,1,-35,1,-13,1,-26,1,-16,1
313,-12,1,-6,1,6,1,9,1,-9,1,0,1,-4,1,-49,1,-35,1,-13,1,-26,1,-16,1
314,-12,1,-5,1,7,1,8,1,-10,1,1,1,-5,1,-51,1,-36,1,-13,1,-29,1,-16,1
315,-13,1,-6,1,7,1,9,1,-10,1,0,1,-7,1,-51,1,-36,1,-14,1,-29,1,-17,1
316,-13,1,-7,1,6,1,10,1,-10,1,-1,1,-5,1,-51,1,-35,1,-13,1,-29,1,-16,1
317,-14,1,-8,1,6,1,11,1,-10,1,-1,1,-5,1,-51,1,-36,1,-13,1,-29,1,-16,1
318,-15,1,-9,1,6,1,12,1,-11,1,-2,1,-6,1,-51,1,-37,1,-14,1,-30,1,-17,1
319,-12,1,-7,1,5,1,9,1,-9,1,-1,1,-6,1,-51,1,-36,1,-15,1,-30,1,-17,1
320,-10,1,-3,1,7,1,6,1,-9,1,2,1,-6,1,-50,1,-36,1,-14,1,-30,1,-15,1
321,-9,1,-3,1,6,1,6,1,-8,1,1,1,-6,1,-50,1,-36,1,-16,1,-30,1,-15,1
322,-11,1,-4,1,7,1,7,1,-9,1,1,1,-5,1,-51,1,-37,1,-16,1,-32,1,-16,1
323,-12,1,-5,1,7,1,8,1,-10,1,1,1,-4,1,-51,1,-39,1,-18,1,-33,1,-17,1
324,-12,1,-7,1,5,1,9,1,-9,1,-1,1,-3,1,-50,1,-37,1,-18,1,-33,1,-16,1
325,-13,1,-6,1,7,1,9,1,-10,1,0,1,-3,1,-50,1,-36,1,-17,1,-32,1,-15,1
326,-15,1,-4,1,11,1,9,1,-13,1,3,1,-3,1,-49,1,-35,1,-16,1,-31,1,-15,1
327,-14,1,-4,1,10,1,9,1,-12,1,3,1,-5,1,-49,1,-36,1,-16,1,-32,1,-15,1
328,-13,1,-4,1,9,1,8,1,-11,1,2,1,-5,1,-48,1,-36,1,-16,1,-32,1,-14,1
329,-14,1,-5,1,9,1,9,1,-12,1,2,1,-3,1,-46,1,-35,1,-17,1,-32,1,-13,1
330,-14,1,-5,1,9,1,9,1,-12,1,2,1,-4,1,-47,1,-35,1,-17,1,-32,1,-14,1
331,-13,1,-4,1,9,1,8,1,-11,1,2,1,-5,1,-48,1,-35,1,-16,1,-33,1,-14,1
332,-12,1,-6,1,6,1,9,1,-9,1,0,1,-4,1,-48,1,-34,1,-16,1,-31,1,-12,1
333,-13,1,-7,1,6,1,10,1,-10,1,-1,1,-4,1,-47,1,-33,1,-14,1,-30,1,-11,1
334,-15,1,-7,1,8,1,11,1,-12,1,0,1,-3,1,-47,1,-32,1,-13,1,-30,1,-11,1
335,-15,1,-10,1,5,1,12,1,-10,1,-3,1,-1,1,-45,1,-31,1,-14,1,-29,1,-9,1
336,-13,1,-10,1,3,1,11,1,-8,1,-4,1,-2,1,-45,1,-32,1,-15,1,-29,1,-10,1
337,-13,1,-8,1,5,1,10,1,-9,1,-2,1,-3,1,-45,1,-32,1,-15,1,-29,1,-10,1
338,-14,1,-8,1,6,1,11,1,-10,1,-1,1,-4,1,-46,1,-32,1,-14,1,-28,1,-9,1
339,-13,1,-8,1,5,1,10,1,-9,1,-2,1,-4,1,-45,1,-30,1,-12,1,-26,1,-9,1
340,-13,1,-8,1,5,1,10,1,-9,1,-2,1,-5,1,-47,1,-30,1,-13,1,-27,1,-10,1
341,-13,1,-9,1,4,1,11,1,-9,1,-3,1,-6,1,-48,1,-31,1,-14,1,-26,1,-10,1
342,-13,1,-10,1,3,1,11,1,-8,1,-4,1,-5,1,-46,1,-30,1,-14,1,-26,1,-10,1
343,-13,1,-7,1,6,1,10,1,-10,1,-1,1,-4,1,-46,1,-30,1,-14,1,-26,1,-9,1
344,-15,1,-8,1,7,1,11,1,-11,1,-1,1,-4,1,-47,1,-31,1,-14,1,-26,1,-10,1
345,-14,1,-6,1,8,1,10,1,-11,1,1,1,-4,1,-47,1,-31,1,-14,1,-26,1,-10,1
346,-14,1,-6,1,8,1,10,1,-11,1,1,1,-4,1,-45,1,-30,1,-14,1,-26,1,-9,1
347,-14,1,-5,1,9,1,9,1,-12,1,2,1,-4,1,-45,1,-30,1,-14,1,-25,1,-9,1
348,-13,1,-5,1,8,1,9,1,-11,1,1,1,-3,1,-46,1,-29,1,-14,1,-24,1,-9,1
349,-14,1,-4,1,10,1,9,1,-12,1,3,1,-2,1,-46,1,-28,1,-14,1,-24,1,-9,1
350,-11,1,-6,1,5,1,8,1,-8,1,-1,1,-3,1,-48,1,-30,1,-16,1,-24,1,-9,1
351,-12,1,-7,1,5,1,9,1,-9,1,-1,1,-3,1,-46,1,-31,1,-16,1,-24,1,-8,1
352,-13,1,-7,1,6,1,10,1,-10,1,-1,1,-2,1,-46,1,-30,1,-16,1,-24,1,-8,1
353,-14,1,-7,1,7,1,10,1,-11,1,0,1,-3,1,-48,1,-31,1,-17,1,-24,1,-9,1
354,-14,1,-7,1,7,1,10,1,-11,1,0,1,-3,1,-49,1,-31,1,-19,1,-24,1,-9,1
355,-15,1,-8,1,7,1,11,1,-11,1,-1,1,-3,1,-48,1,-30,1,-17,1,-22,1,-7,1
356,-16,1,-12,1,4,1,14,1,-10,1,-4,1,-3,1,-47,1,-30,1,-17,1,-22,1,-6,1
357,-14,1,-10,1,4,1,12,1,-9,1,-3,1,-2,1,-47,1,-30,1,-17,1,-22,1,-7,1
358,-13,1,-10,1,3,1,11,1,-8,1,-4,1,-4,1,-49,1,-31,1,-20,1,-23,1,-9,1
359,-14,1,-10,1,4,1,12,1,-9,1,-3,1,-4,1,-50,1,-30,1,-20,1,-22,1,-8,1
360,-16,1,-9,1,7,1,12,1,-12,1,-1,1,-3,1,-49,1,-30,1,-18,1,-21,1,-7,1
361,-14,1,-8,1,6,1,11,1,-10,1,-1,1,-3,1,-50,1,-30,1,-18,1,-22,1,-7,1
362,-11,1,-6,1,5,1,8,1,-8,1,-1,1,-4,1,-52,1,-31,1,-21,1,-23,1,-8,1
363,-11,1,-7,1,4,1,9,1,-8,1,-2,1,-4,1,-51,1,-29,1,-20,1,-22,1,-5,1
364,-12,1,-8,1,4,1,10,1,-8,1,-2,1,-4,1,-52,1,-30,1,-21,1,-22,1,-6,1
365,-12,1,-8,1,4,1,10,1,-8,1,-2,1,-5,1,-53,1,-32,1,-23,1,-24,1,-7,1
366,-13,1,-8,1,5,1,10,1,-9,1,-2,1,-5,1,-54,1,-32,1,-24,1,-24,1,-7,1
367,-14,1,-9,1,5,1,11,1,-10,1,-2,1,-6,1,-53,1,-32,1,-24,1,-23,1,-8,1
368,-14,1,-10,1,4,1,12,1,-9,1,-3,1,-5,1,-55,1,-34,1,-26,1,-23,1,-8,1
369,-14,1,-7,1,7,1,10,1,-11,1,0,1,-6,1,-56,1,-35,1,-25,1,-24,1,-8,1
370,-15,1,-6,1,9,1,10,1,-12,1,1,1,-8,1,-57,1,-35,1,-25,1,-24,1,-9,1
371,-14,1,-6,1,8,1,10,1,-11,1,1,1,-9,1,-57,1,-33,1,-26,1,-24,1,-9,1
372,-14,1,-6,1,8,1,10,1,-11,1,1,1,-8,1,-57,1,-33,1,-24,1,-23,1,-9,1
373,-14,1,-5,1,9,1,9,1,-12,1,2,1,-7,1,-57,1,-33,1,-24,1,-22,1,-9,1
374,-16,1,-4,1,12,1,10,1,-14,1,4,1,-7,1,-58,1,-33,1,-24,1,-22,1,-9,1
375,-13,1,-3,1,10,1,8,1,-12,1,3,1,-7,1,-59,1,-35,1,-26,1,-24,1,-11,1
376,-11,1,-4,1,7,1,7,1,-9,1,1,1,-7,1,-58,1,-34,1,-27,1,-23,1,-10,1
377,-11,1,-7,1,4,1,9,1,-8,1,-2,1,-7,1,-58,1,-32,1,-26,1,-21,1,-7,1
378,-13,1,-9,1,4,1,11,1,-9,1,-3,1,-7,1,-60,1,-33,1,-25,1,-21,1,-8,1
379,-15,1,-11,1,4,1,13,1,-10,1,-4,1,-6,1,-60,1,-32,1,-26,1,-20,1,-7,1
380,-15,1,-11,1,4,1,13,1,-10,1,-4,1,-5,1,-59,1,-32,1,-26,1,-20,1,-7,1
381,-15,1,-11,1,4,1,13,1,-10,1,-4,1,-5,1,-61,1,-33,1,-27,1,-22,1,-7,1
382,-15,1,-12,1,3,1,13,1,-9,1,-5,1,-5,1,-61,1,-34,1,-28,1,-22,1,-8,1
383,-14,1,-11,1,3,1,12,1,-9,1,-4,1,-7,1,-61,1,-34,1,-28,1,-22,1,-9,1
384,-15,1,-10,1,5,1,12,1,-10,1,-3,1,-7,1,-62,1,-34,1,-28,1,-23,1,-9,1
385,-15,1,-12,1,3,1,13,1,-9,1,-5,1,-5,1,-62,1,-33,1,-28,1,-22,1,-8,1
386,-14,1,-12,1,2,1,13,1,-8,1,-5,1,-6,1,-62,1,-34,1,-29,1,-23,1,-9,1
387,-14,1,-13,1,1,1,13,1,-8,1,-6,1,-7,1,-62,1,-34,1,-28,1,-22,1,-8,1
388,-13,1,-12,1,1,1,12,1,-7,1,-6,1,-7,1,-64,1,-34,1,-29,1,-23,1,-9,1
389,-14,1,-12,1,2,1,13,1,-8,1,-5,1,-7,1,-64,1,-34,1,-28,1,-22,1,-9,1
390,-16,1,-14,1,2,1,15,1,-9,1,-6,1,-5,1,-64,1,-34,1,-30,1,-21,1,-8,1
391,-16,1,-11,1,5,1,13,1,-11,1,-3,1,-6,1,-66,1,-35,1,-32,1,-21,1,-8,1
392,-16,1,-8,1,8,1,12,1,-12,1,0,1,-7,1,-66,1,-36,1,-32,1,-22,1,-10,1
393,-15,1,-11,1,4,1,13,1,-10,1,-4,1,-6,1,-66,1,-35,1,-32,1,-21,1,-8,1
394,-14,1,-9,1,5,1,11,1,-10,1,-2,1,-9,1,-66,1,-35,1,-33,1,-22,1,-9,1
395,-15,1,-7,1,8,1,11,1,-12,1,0,1,-10,1,-67,1,-36,1,-34,1,-22,1,-10,1
396,-12,1,-9,1,3,1,10,1,-8,1,-3,1,-8,1,-65,1,-34,1,-32,1,-21,1,-8,1
397,-13,1,-11,1,2,1,12,1,-8,1,-5,1,-7,1,-65,1,-35,1,-32,1,-21,1,-8,1
398,-16,1,-11,1,5,1,13,1,-11,1,-3,1,-7,1,-66,1,-36,1,-33,1,-22,1,-9,1
399,-14,1,-11,1,3,1,12,1,-9,1,-4,1,-7,1,-66,1,-36,1,-36,1,-23,1,-9,1
400,-15,1,-12,1,3,1,13,1,-9,1,-5,1,-6,1,-67,1,-35,1,-34,1,-22,1,-8,1
401,-16,1,-13,1,3,1,14,1,-10,1,-5,1,-6,1,-66,1,-36,1,-35,1,-21,1,-8,1
402,-13,1,-12,1,1,1,12,1,-7,1,-6,1,-6,1,-66,1,-35,1,-35,1,-21,1,-7,1
403,-12,1,-11,1,1,1,11,1,-7,1,-5,1,-6,1,-66,1,-35,1,-36,1,-21,1,-7,1
404,-13,1,-12,1,1,1,12,1,-7,1,-6,1,-7,1,-66,1,-35,1,-36,1,-22,1,-7,1
405,-14,1,-11,1,3,1,12,1,-9,1,-4,1,-8,1,-66,1,-35,1,-36,1,-22,1,-7,1
406,-13,1,-9,1,4,1,11,1,-9,1,-3,1,-9,1,-67,1,-36,1,-36,1,-22,1,-7,1
407,-13,1,-10,1,3,1,11,1,-8,1,-4,1,-8,1,-66,1,-35,1,-36,1,-21,1,-5,1
408,-14,1,-13,1,1,1,13,1,-8,1,-6,1,-8,1,-66,1,-34,1,-36,1,-21,1,-5,1
409,-14,1,-11,1,3,1,12,1,-9,1,-4,1,-9,1,-67,1,-34,1,-36,1,-21,1,-6,1
410,-14,1,-10,1,4,1,12,1,-9,1,-3,1,-10,1,-70,1,-35,1,-37,1,-22,1,-8,1
411,-14,1,-11,1,3,1,12,1,-9,1,-4,1,-9,1,-68,1,-35,1,-37,1,-21,1,-6,1
412,-15,1,-9,1,6,1,12,1,-11,1,-2,1,-9,1,-68,1,-35,1,-36,1,-21,1,-6,1
413,-12,1,-8,1,4,1,10,1,-8,1,-2,1,-10,1,-69,1,-36,1,-38,1,-23,1,-8,1
414,-13,1,-8,1,5,1,10,1,-9,1,-2,1,-9,1,-69,1,-36,1,-37,1,-23,1,-7,1
415,-16,1,-8,1,8,1,12,1,-12,1,0,1,-7,1,-66,1,-34,1,-37,1,-22,1,-6,1
416,-18,1,-10,1,8,1,14,1,-13,1,-1,1,-6,1,-66,1,-34,1,-37,1,-22,1,-5,1
417,-13,1,-9,1,4,1,11,1,-9,1,-3,1,-8,1,-69,1,-36,1,-38,1,-24,1,-7,1
418,-14,1,-9,1,5,1,11,1,-10,1,-2,1,-9,1,-69,1,-35,1,-37,1,-23,1,-7,1
419,-14,1,-10,1,4,1,12,1,-9,1,-3,1,-8,1,-68,1,-34,1,-37,1,-22,1,-7,1
420,-15,1,-11,1,4,1,13,1,-10,1,-4,1,-8,1,-68,1,-34,1,-37,1,-21,1,-5,1
421,-15,1,-10,1,5,1,12,1,-10,1,-3,1,-9,1,-68,1,-35,1,-37,1,-21,1,-6,1
422,-16,1,-9,1,7,1,12,1,-12,1,-1,1,-10,1,-71,1,-36,1,-38,1,-22,1,-7,1
423,-14,1,-11,1,3,1,12,1,-9,1,-4,1,-10,1,-71,1,-36,1,-38,1,-21,1,-7,1
424,-14,1,-11,1,3,1,12,1,-9,1,-4,1,-10,1,-70,1,-36,1,-39,1,-21,1,-6,1
425,-17,1,-12,1,5,1,14,1,-11,1,-4,1,-9,1,-69,1,-35,1,-38,1,-19,1,-6,1
426,-15,1,-10,1,5,1,12,1,-10,1,-3,1,-10,1,-71,1,-36,1,-40,1,-21,1,-6,1
427,-14,1,-10,1,4,1,12,1,-9,1,-3,1,-11,1,-72,1,-38,1,-41,1,-22,1,-8,1
428,-15,1,-10,1,5,1,12,1,-10,1,-3,1,-11,1,-72,1,-38,1,-41,1,-23,1,-9,1
429,-12,1,-8,1,4,1,10,1,-8,1,-2,1,-10,1,-71,1,-37,1,-41,1,-23,1,-8,1
430,-13,1,-8,1,5,1,10,1,-9,1,-2,1,-9,1,-71,1,-36,1,-41,1,-22,1,-8,1
431,-14,1,-9,1,5,1,11,1,-10,1,-2,1,-9,1,-70,1,-36,1,-41,1,-22,1,-7,1
432,-15,1,-10,1,5,1,12,1,-10,1,-3,1,-8,1,-69,1,-35,1,-42,1,-22,1,-7,1
433,-13,1,-9,1,4,1,11,1,-9,1,-3,1,-6,1,-69,1,-34,1,-41,1,-20,1,-5,1
434,-15,1,-8,1,7,1,11,1,-11,1,-1,1,-6,1,-69,1,-34,1,-40,1,-19,1,-5,1
435,-15,1,-8,1,7,1,11,1,-11,1,-1,1,-7,1,-69,1,-34,1,-40,1,-19,1,-5,1
436,-15,1,-10,1,5,1,12,1,-10,1,-3,1,-7,1,-69,1,-34,1,-40,1,-20,1,-5,1
437,-13,1,-12,1,1,1,12,1,-7,1,-6,1,-7,1,-69,1,-33,1,-42,1,-20,1,-5,1
438,-12,1,-12,1,0,1,12,1,-6,1,-6,1,-7,1,-69,1,-34,1,-42,1,-18,1,-4,1
439,-12,1,-11,1,1,1,11,1,-7,1,-5,1,-6,1,-68,1,-34,1,-42,1,-17,1,-4,1
440,-12,1,-9,1,3,1,10,1,-8,1,-3,1,-4,1,-65,1,-32,1,-41,1,-16,1,-3,1
441,-14,1,-9,1,5,1,11,1,-10,1,-2,1,-4,1,-66,1,-33,1,-42,1,-17,1,-3,1
442,-13,1,-7,1,6,1,10,1,-10,1,-1,1,-5,1,-67,1,-32,1,-41,1,-17,1,-3,1
443,-11,1,-8,1,3,1,9,1,-7,1,-3,1,-8,1,-68,1,-34,1,-42,1,-18,1,-5,1
444,-9,1,-6,1,3,1,7,1,-6,1,-2,1,-7,1,-68,1,-34,1,-42,1,-18,1,-5,1
445,-9,1,-2,1,7,1,5,1,-8,1,2,1,-6,1,-67,1,-33,1,-42,1,-17,1,-5,1
446,-9,1,1,1,10,1,4,1,-9,1,5,1,-7,1,-67,1,-32,1,-41,1,-18,1,-6,1
447,-9,1,1,1,10,1,4,1,-9,1,5,1,-5,1,-67,1,-31,1,-40,1,-17,1,-6,1
448,-9,1,0,1,9,1,4,1,-9,1,4,1,-4,1,-66,1,-31,1,-39,1,-16,1,-4,1
449,-8,1,0,1,8,1,4,1,-8,1,4,1,-3,1,-66,1,-30,1,-38,1,-16,1,-5,1
450,-5,1,1,1,6,1,2,1,-5,1,3,1,-5,1,-66,1,-30,1,-39,1,-16,1,-5,1
451,-7,1,2,1,9,1,2,1,-8,1,5,1,-5,1,-65,1,-30,1,-39,1,-15,1,-4,1
452,-6,1,2,1,8,1,2,1,-7,1,5,1,-4,1,-63,1,-29,1,-37,1,-13,1,-3,1
453,-6,1,3,1,9,1,1,1,-7,1,6,1,-4,1,-64,1,-29,1,-38,1,-13,1,-3,1
454,-5,1,5,1,10,1,0,1,-7,1,7,1,-7,1,-65,1,-31,1,-41,1,-15,1,-4,1
455,-8,1,1,1,9,1,3,1,-8,1,5,1,-8,1,-67,1,-32,1,-42,1,-16,1,-5,1
456,-7,1,-2,1,5,1,4,1,-6,1,1,1,-8,1,-66,1,-30,1,-41,1,-16,1,-3,1
457,-5,1,-3,1,2,1,4,1,-4,1,-1,1,-8,1,-65,1,-29,1,-39,1,-14,1,-1,1
458,-3,1,-2,1,1,1,2,1,-2,1,-1,1,-8,1,-65,1,-29,1,-38,1,-14,1,0,1
459,-2,1,-1,1,1,1,1,1,-2,1,0,1,-11,1,-63,1,-28,1,-38,1,-13,1,1,1
460,1,1,-1,1,-2,1,0,1,1,1,-1,1,-10,1,-63,1,-27,1,-37,1,-11,1,2,1
461,2,1,2,1,0,1,-2,1,1,1,1,1,-10,1,-62,1,-26,1,-37,1,-10,1,2,1
462,2,1,5,1,3,1,-3,1,0,1,4,1,-9,1,-61,1,-24,1,-35,1,-9,1,4,1
463,3,1,3,1,0,1,-3,1,2,1,2,1,-10,1,-61,1,-25,1,-35,1,-9,1,3,1
464,2,1,3,1,1,1,-2,1,1,1,2,1,-11,1,-61,1,-24,1,-34,1,-8,1,4,1
465,0,1,4,1,4,1,-2,1,-2,1,4,1,-10,1,-60,1,-22,1,-33,1,-8,1,6,1
466,2,1,3,1,1,1,-2,1,1,1,2,1,-11,1,-62,1,-25,1,-34,1,-9,1,6,1
467,2,1,3,1,1,1,-2,1,1,1,2,1,-12,1,-64,1,-26,1,-36,1,-11,1,5,1
468,1,1,1,1,0,1,-1,1,1,1,1,1,-12,1,-65,1,-27,1,-39,1,-12,1,4,1
469,0,1,0,1,0,1,0,1,0,1,0,1,-14,1,-67,1,-29,1,-39,1,-14,1,3,1
470,1,1,-1,1,-2,1,0,1,1,1,-1,1,-12,1,-66,1,-28,1,-37,1,-12,1,3,1
471,2,1,-1,1,-3,1,0,1,2,1,-2,1,-10,1,-63,1,-25,1,-36,1,-12,1,4,1
472,3,1,0,1,-3,1,-1,1,3,1,-1,1,-10,1,-62,1,-24,1,-35,1,-12,1,4,1
473,3,1,2,1,-1,1,-2,1,2,1,1,1,-11,1,-63,1,-25,1,-37,1,-13,1,2,1
474,4,1,3,1,-1,1,-3,1,3,1,1,1,-10,1,-62,1,-24,1,-37,1,-13,1,4,1
475,3,1,3,1,0,1,-3,1,2,1,2,1,-11,1,-63,1,-25,1,-37,1,-13,1,4,1
476,3,1,3,1,0,1,-3,1,2,1,2,1,-14,1,-65,1,-27,1,-38,1,-14,1,3,1
477,3,1,3,1,0,1,-3,1,2,1,2,1,-16,1,-67,1,-28,1,-39,1,-15,1,2,1
478,3,1,1,1,-2,1,-2,1,3,1,0,1,-16,1,-67,1,-28,1,-39,1,-15,1,2,1
479,3,1,0,1,-3,1,-1,1,3,1,-1,1,-16,1,-69,1,-29,1,-41,1,-16,1,0,1
480,3,1,0,1,-3,1,-1,1,3,1,-1,1,-17,1,-69,1,-29,1,-41,1,-17,1,0,1
481,2,1,-1,1,-3,1,0,1,2,1,-2,1,-17,1,-68,1,-28,1,-41,1,-18,1,0,1
482,1,1,-1,1,-2,1,0,1,1,1,-1,1,-16,1,-67,1,-28,1,-40,1,-17,1,1,1
483,1,1,0,1,-1,1,0,1,1,1,0,1,-15,1,-66,1,-27,1,-40,1,-16,1,0,1
484,0,1,0,1,0,1,0,1,0,1,0,1,-15,1,-66,1,-27,1,-41,1,-17,1,1,1
485,0,1,0,1,0,1,0,1,0,1,0,1,-15,1,-67,1,-28,1,-42,1,-17,1,1,1
486,-2,1,1,1,3,1,0,1,-2,1,2,1,-12,1,-66,1,-27,1,-41,1,-16,1,1,1
487,-4,1,0,1,4,1,2,1,-4,1,2,1,-10,1,-65,1,-26,1,-39,1,-15,1,2,1
488,-5,1,-3,1,2,1,4,1,-4,1,-1,1,-10,1,-66,1,-27,1,-41,1,-16,1,1,1
489,-7,1,-3,1,4,1,5,1,-6,1,0,1,-9,1,-65,1,-28,1,-41,1,-16,1,2,1
490,-9,1,-6,1,3,1,7,1,-6,1,-2,1,-9,1,-65,1,-28,1,-42,1,-17,1,1,1
491,-8,1,-8,1,0,1,8,1,-4,1,-4,1,-10,1,-66,1,-29,1,-44,1,-19,1,-1,1
492,-11,1,-10,1,1,1,10,1,-6,1,-5,1,-9,1,-67,1,-30,1,-45,1,-20,1,-2,1
493,-11,1,-11,1,0,1,11,1,-6,1,-6,1,-7,1,-68,1,-30,1,-45,1,-21,1,-2,1
494,-11,1,-11,1,0,1,11,1,-6,1,-6,1,-8,1,-68,1,-31,1,-46,1,-21,1,-2,1
495,-10,1,-12,1,-2,1,11,1,-4,1,-7,1,-8,1,-69,1,-33,1,-47,1,-20,1,-2,1
496,-10,1,-13,1,-3,1,11,1,-4,1,-8,1,-8,1,-68,1,-33,1,-46,1,-20,1,-3,1
497,-12,1,-13,1,-1,1,12,1,-6,1,-7,1,-9,1,-67,1,-33,1,-45,1,-20,1,-3,1
498,-10,1,-13,1,-3,1,11,1,-4,1,-8,1,-9,1,-69,1,-34,1,-47,1,-21,1,-3,1
499,-10,1,-13,1,-3,1,11,1,-4,1,-8,1,-9,1,-69,1,-34,1,-47,1,-20,1,-4,1
500,-12,1,-13,1,-1,1,12,1,-6,1,-7,1,-10,1,-69,1,-34,1,-46,1,-20,1,-3,1
501,-12,1,-13,1,-1,1,12,1,-6,1,-7,1,-10,1,-68,1,-33,1,-46,1,-21,1,-4,1
502,-12,1,-13,1,-1,1,12,1,-6,1,-7,1,-10,1,-68,1,-33,1,-46,1,-22,1,-3,1
503,-13,1,-14,1,-1,1,13,1,-6,1,-8,1,-10,1,-68,1,-33,1,-48,1,-20,1,-2,1
504,-13,1,-13,1,0,1,13,1,-7,1,-7,1,-10,1,-68,1,-34,1,-48,1,-21,1,-2,1
505,-13,1,-13,1,0,1,13,1,-7,1,-7,1,-10,1,-69,1,-35,1,-48,1,-22,1,-5,1
506,-13,1,-13,1,0,1,13,1,-7,1,-7,1,-9,1,-67,1,-34,1,-47,1,-21,1,-3,1
507,-13,1,-14,1,-1,1,13,1,-6,1,-8,1,-11,1,-67,1,-33,1,-48,1,-21,1,-4,1
508,-13,1,-13,1,0,1,13,1,-7,1,-7,1,-11,1,-67,1,-34,1,-47,1,-21,1,-5,1
509,-14,1,-13,1,1,1,13,1,-8,1,-6,1,-11,1,-68,1,-35,1,-48,1,-22,1,-5,1
510,-12,1,-12,1,0,1,12,1,-6,1,-6,1,-12,1,-68,1,-34,1,-47,1,-21,1,-6,1
511,-12,1,-12,1,0,1,12,1,-6,1,-6,1,-11,1,-68,1,-34,1,-47,1,-21,1,-5,1
512,-13,1,-12,1,1,1,12,1,-7,1,-6,1,-10,1,-67,1,-34,1,-47,1,-20,1,-4,1
513,-15,1,-11,1,4,1,13,1,-10,1,-4,1,-10,1,-68,1,-35,1,-48,1,-23,1,-5,1
514,-15,1,-11,1,4,1,13,1,-10,1,-4,1,-11,1,-68,1,-36,1,-50,1,-23,1,-6,1
515,-15,1,-11,1,4,1,13,1,-10,1,-4,1,-9,1,-67,1,-35,1,-49,1,-23,1,-6,1
516,-15,1,-10,1,5,1,12,1,-10,1,-3,1,-10,1,-67,1,-36,1,-50,1,-23,1,-7,1
517,-15,1,-9,1,6,1,12,1,-11,1,-2,1,-9,1,-67,1,-36,1,-49,1,-23,1,-5,1
518,-13,1,-9,1,4,1,11,1,-9,1,-3,1,-9,1,-67,1,-36,1,-49,1,-23,1,-5,1
519,-13,1,-11,1,2,1,12,1,-8,1,-5,1,-9,1,-68,1,-37,1,-50,1,-23,1,-5,1
520,-15,1,-12,1,3,1,13,1,-9,1,-5,1,-8,1,-67,1,-37,1,-51,1,-23,1,-5,1
521,-16,1,-10,1,6,1,13,1,-11,1,-2,1,-6,1,-66,1,-37,1,-52,1,-23,1,-5,1
522,-18,1,-10,1,8,1,14,1,-13,1,-1,1,-4,1,-63,1,-36,1,-51,1,-23,1,-5,1
523,-17,1,-9,1,8,1,13,1,-13,1,-1,1,2,1,-59,1,-34,1,-49,1,-23,1,-7,1
524,-21,1,-11,1,10,1,16,1,-16,1,-1,1,8,1,-53,1,-31,1,-47,1,-23,1,-8,1
525,-21,1,-10,1,11,1,15,1,-16,1,0,1,13,1,-45,1,-28,1,-45,1,-22,1,-6,1
526,-16,1,-7,1,9,1,11,1,-13,1,1,1,15,1,-37,1,-21,1,-39,1,-17,1,-2,1
527,-13,1,-8,1,5,1,10,1,-9,1,-2,1,18,1,-26,1,-14,1,-34,1,-15,1,-1,1
528,-8,1,-7,1,1,1,7,1,-5,1,-3,1,27,1,-6,1,-3,1,-26,1,-11,1,0,1
529,0,1,-5,1,-5,1,2,1,2,1,-5,1,36,1,18,1,13,1,-14,1,-4,1,4,1
530,7,1,0,1,-7,1,-3,1,7,1,-3,1,48,1,44,1,34,1,1,1,6,1,12,1
531,19,1,13,1,-6,1,-16,1,13,1,4,1,55,1,77,1,64,1,25,1,22,1,22,1
532,29,1,26,1,-3,1,-27,1,16,1,12,1,58,1,109,1,97,1,51,1,41,1,34,1
533,45,1,43,1,-2,1,-44,1,24,1,21,1,47,1,133,1,130,1,79,1,61,1,50,1
534,62,1,59,1,-3,1,-60,1,33,1,28,1,26,1,154,1,168,1,109,1,82,1,65,1
535,73,1,75,1,2,1,-74,1,36,1,39,1,4,1,170,1,203,1,141,1,107,1,84,1
536,90,1,97,1,7,1,-93,1,42,1,52,1,-36,1,159,1,227,1,168,1,133,1,108,1
537,101,1,118,1,17,1,-109,1,42,1,68,1,-80,1,130,1,243,1,188,1,156,1,129,1
538,106,1,129,1,23,1,-117,1,42,1,76,1,-114,1,108,1,250,1,200,1,169,1,140,1
539,106,1,129,1,23,1,-117,1,42,1,76,1,-133,1,94,1,253,1,202,1,171,1,142,1
540,92,1,106,1,14,1,-99,1,39,1,60,1,-136,1,81,1,239,1,182,1,154,1,128,1
541,76,1,80,1,4,1,-78,1,36,1,42,1,-135,1,58,1,204,1,146,1,129,1,110,1
542,62,1,65,1,3,1,-63,1,30,1,34,1,-135,1,19,1,152,1,102,1,103,1,93,1
543,43,1,51,1,8,1,-47,1,18,1,30,1,-140,1,-36,1,91,1,53,1,73,1,74,1
544,23,1,35,1,12,1,-29,1,6,1,24,1,-143,1,-103,1,25,1,4,1,43,1,55,1
545,6,1,21,1,15,1,-13,1,-4,1,18,1,-146,1,-181,1,-43,1,-43,1,13,1,35,1
546,-12,1,8,1,20,1,2,1,-16,1,14,1,-145,1,-249,1,-101,1,-82,1,-13,1,16,1
547,-25,1,-6,1,19,1,15,1,-22,1,6,1,-148,1,-281,1,-135,1,-107,1,-31,1,2,1
548,-32,1,-18,1,14,1,25,1,-23,1,-2,1,-156,1,-286,1,-149,1,-119,1,-43,1,-7,1
549,-39,1,-23,1,16,1,31,1,-28,1,-4,1,-154,1,-277,1,-149,1,-121,1,-48,1,-12,1
550,-42,1,-23,1,19,1,32,1,-31,1,-2,1,-149,1,-261,1,-143,1,-119,1,-50,1,-14,1
551,-46,1,-23,1,23,1,34,1,-35,1,0,1,-142,1,-249,1,-138,1,-117,1,-51,1,-16,1
552,-50,1,-26,1,24,1,38,1,-37,1,-1,1,-135,1,-237,1,-135,1,-117,1,-54,1,-20,1
553,-48,1,-29,1,19,1,38,1,-34,1,-5,1,-129,1,-223,1,-131,1,-117,1,-57,1,-24,1
554,-49,1,-33,1,16,1,41,1,-33,1,-9,1,-123,1,-209,1,-126,1,-116,1,-59,1,-27,1
555,-48,1,-32,1,16,1,40,1,-32,1,-8,1,-112,1,-188,1,-113,1,-107,1,-56,1,-25,1
556,-42,1,-26,1,16,1,34,1,-29,1,-5,1,-101,1,-170,1,-100,1,-98,1,-49,1,-21,1
557,-36,1,-23,1,13,1,29,1,-25,1,-5,1,-89,1,-152,1,-89,1,-90,1,-43,1,-17,1
558,-33,1,-18,1,15,1,25,1,-24,1,-2,1,-76,1,-134,1,-75,1,-79,1,-36,1,-12,1
559,-30,1,-12,1,18,1,21,1,-24,1,3,1,-61,1,-117,1,-62,1,-69,1,-30,1,-7,1
560,-27,1,-6,1,21,1,16,1,-24,1,7,1,-47,1,-100,1,-50,1,-60,1,-25,1,-4,1
561,-24,1,-1,1,23,1,12,1,-24,1,11,1,-35,1,-86,1,-41,1,-52,1,-20,1,-2,1
562,-21,1,2,1,23,1,9,1,-22,1,12,1,-27,1,-76,1,-35,1,-48,1,-17,1,0,1
563,-13,1,3,1,16,1,5,1,-14,1,9,1,-21,1,-67,1,-30,1,-44,1,-17,1,2,1
564,-12,1,1,1,13,1,5,1,-12,1,7,1,-15,1,-61,1,-27,1,-42,1,-17,1,2,1
565,-11,1,-1,1,10,1,6,1,-11,1,4,1,-10,1,-54,1,-23,1,-40,1,-15,1,3,1
566,-11,1,-3,1,8,1,7,1,-10,1,2,1,-6,1,-48,1,-20,1,-37,1,-15,1,4,1
567,-9,1,-2,1,7,1,5,1,-8,1,2,1,-4,1,-44,1,-19,1,-35,1,-14,1,4,1
568,-7,1,-3,1,4,1,5,1,-6,1,0,1,-3,1,-42,1,-18,1,-33,1,-13,1,4,1
569,-9,1,-3,1,6,1,6,1,-8,1,1,1,-2,1,-40,1,-15,1,-31,1,-12,1,5,1
570,-8,1,-2,1,6,1,5,1,-7,1,2,1,-4,1,-39,1,-16,1,-33,1,-14,1,4,1
571,-7,1,0,1,7,1,3,1,-7,1,3,1,-3,1,-39,1,-16,1,-34,1,-15,1,4,1
572,-7,1,-2,1,5,1,4,1,-6,1,1,1,-2,1,-37,1,-14,1,-32,1,-14,1,4,1
573,-7,1,0,1,7,1,3,1,-7,1,3,1,0,1,-34,1,-12,1,-29,1,-12,1,6,1
574,-7,1,3,1,10,1,2,1,-8,1,6,1,0,1,-34,1,-12,1,-29,1,-12,1,6,1
575,-6,1,3,1,9,1,1,1,-7,1,6,1,-2,1,-33,1,-12,1,-30,1,-12,1,6,1
576,-7,1,2,1,9,1,2,1,-8,1,5,1,-1,1,-32,1,-10,1,-28,1,-11,1,7,1
577,-5,1,1,1,6,1,2,1,-5,1,3,1,0,1,-30,1,-8,1,-26,1,-10,1,7,1
578,-3,1,1,1,4,1,1,1,-3,1,2,1,2,1,-27,1,-7,1,-26,1,-10,1,8,1
579,-4,1,3,1,7,1,0,1,-5,1,5,1,1,1,-28,1,-7,1,-27,1,-11,1,6,1
580,-5,1,3,1,8,1,1,1,-6,1,5,1,2,1,-27,1,-8,1,-27,1,-11,1,6,1
581,-7,1,1,1,8,1,3,1,-7,1,4,1,3,1,-25,1,-6,1,-26,1,-11,1,6,1
582,-7,1,1,1,8,1,3,1,-7,1,4,1,4,1,-25,1,-6,1,-26,1,-11,1,7,1
583,-6,1,0,1,6,1,3,1,-6,1,3,1,4,1,-24,1,-6,1,-25,1,-10,1,7,1
584,-5,1,-1,1,4,1,3,1,-5,1,1,1,4,1,-23,1,-4,1,-25,1,-9,1,9,1
585,-3,1,-1,1,2,1,2,1,-3,1,0,1,4,1,-23,1,-4,1,-24,1,-8,1,8,1
586,-3,1,0,1,3,1,1,1,-3,1,1,1,5,1,-21,1,-2,1,-22,1,-6,1,9,1
587,-3,1,1,1,4,1,1,1,-3,1,2,1,5,1,-18,1,-1,1,-20,1,-5,1,10,1
588,-3,1,0,1,3,1,1,1,-3,1,1,1,5,1,-19,1,-1,1,-20,1,-5,1,9,1
589,-2,1,-1,1,1,1,1,1,-2,1,0,1,4,1,-17,1,0,1,-20,1,-4,1,10,1
590,-1,1,0,1,1,1,0,1,-1,1,0,1,4,1,-17,1,0,1,-20,1,-4,1,9,1
591,-2,1,-1,1,1,1,1,1,-2,1,0,1,4,1,-18,1,0,1,-21,1,-4,1,8,1
592,-3,1,0,1,3,1,1,1,-3,1,1,1,4,1,-15,1,2,1,-20,1,-3,1,8,1
593,-2,1,0,1,2,1,1,1,-2,1,1,1,6,1,-13,1,3,1,-20,1,-3,1,10,1
594,-2,1,1,1,3,1,0,1,-2,1,2,1,6,1,-11,1,4,1,-20,1,-1,1,10,1
595,-1,1,1,1,2,1,0,1,-1,1,1,1,7,1,-10,1,5,1,-18,1,-1,1,10,1
596,0,1,2,1,2,1,-1,1,-1,1,2,1,6,1,-10,1,6,1,-17,1,-1,1,10,1
597,-1,1,5,1,6,1,-2,1,-3,1,5,1,4,1,-10,1,5,1,-18,1,-2,1,9,1
598,-1,1,6,1,7,1,-2,1,-4,1,6,1,4,1,-11,1,5,1,-18,1,-2,1,9,1
599,0,1,4,1,4,1,-2,1,-2,1,4,1,4,1,-9,1,7,1,-18,1,-1,1,9,1
600,1,1,4,1,3,1,-2,1,-1,1,4,1,6,1,-7,1,7,1,-17,1,0,1,10,1
601,1,1,4,1,3,1,-2,1,-1,1,4,1,6,1,-6,1,9,1,-16,1,0,1,11,1
602,1,1,4,1,3,1,-2,1,-1,1,4,1,5,1,-5,1,9,1,-17,1,1,1,11,1
603,1,1,4,1,3,1,-2,1,-1,1,4,1,5,1,-3,1,10,1,-16,1,0,1,11,1
604,1,1,4,1,3,1,-2,1,-1,1,4,1,4,1,-2,1,10,1,-15,1,0,1,10,1
605,0,1,5,1,5,1,-2,1,-2,1,5,1,5,1,-2,1,10,1,-14,1,1,1,10,1
606,1,1,7,1,6,1,-4,1,-2,1,7,1,6,1,-1,1,11,1,-14,1,2,1,10,1
607,1,1,6,1,5,1,-3,1,-2,1,6,1,7,1,-1,1,12,1,-13,1,2,1,10,1
608,2,1,7,1,5,1,-4,1,-1,1,6,1,7,1,1,1,13,1,-11,1,4,1,10,1
609,4,1,9,1,5,1,-6,1,0,1,7,1,8,1,3,1,15,1,-8,1,5,1,12,1
610,4,1,9,1,5,1,-6,1,0,1,7,1,8,1,5,1,16,1,-9,1,4,1,12,1
611,5,1,10,1,5,1,-7,1,0,1,8,1,8,1,5,1,17,1,-8,1,5,1,11,1
612,3,1,9,1,6,1,-6,1,-1,1,8,1,9,1,7,1,19,1,-7,1,6,1,11,1
613,3,1,8,1,5,1,-5,1,-1,1,7,1,11,1,8,1,21,1,-5,1,8,1,13,1
614,4,1,8,1,4,1,-6,1,0,1,6,1,12,1,11,1,24,1,-3,1,10,1,15,1
615,5,1,9,1,4,1,-7,1,1,1,7,1,11,1,12,1,23,1,-4,1,9,1,14,1
616,8,1,9,1,1,1,-8,1,4,1,5,1,10,1,12,1,23,1,-4,1,9,1,14,1
617,9,1,9,1,0,1,-9,1,5,1,5,1,10,1,15,1,25,1,-2,1,10,1,15,1
618,9,1,8,1,-1,1,-8,1,5,1,4,1,10,1,17,1,26,1,-1,1,10,1,15,1
619,8,1,9,1,1,1,-8,1,4,1,5,1,9,1,18,1,28,1,0,1,11,1,15,1
620,6,1,8,1,2,1,-7,1,2,1,5,1,9,1,19,1,28,1,0,1,12,1,15,1
621,6,1,8,1,2,1,-7,1,2,1,5,1,9,1,23,1,30,1,1,1,12,1,15,1
622,6,1,10,1,4,1,-8,1,1,1,7,1,11,1,25,1,31,1,1,1,14,1,16,1
623,7,1,10,1,3,1,-8,1,2,1,7,1,11,1,25,1,32,1,1,1,14,1,16,1
624,8,1,12,1,4,1,-10,1,2,1,8,1,10,1,27,1,31,1,3,1,14,1,16,1
625,9,1,13,1,4,1,-11,1,3,1,9,1,11,1,29,1,33,1,5,1,16,1,17,1
626,11,1,12,1,1,1,-11,1,5,1,7,1,11,1,30,1,36,1,6,1,18,1,17,1
627,10,1,11,1,1,1,-10,1,5,1,6,1,12,1,31,1,36,1,6,1,18,1,17,1
628,11,1,12,1,1,1,-11,1,5,1,7,1,13,1,34,1,39,1,9,1,20,1,17,1
629,12,1,16,1,4,1,-14,1,4,1,10,1,12,1,36,1,41,1,10,1,20,1,18,1
630,13,1,19,1,6,1,-16,1,4,1,13,1,11,1,39,1,43,1,11,1,21,1,19,1
631,14,1,20,1,6,1,-17,1,4,1,13,1,12,1,42,1,44,1,12,1,22,1,20,1
632,14,1,21,1,7,1,-17,1,4,1,14,1,11,1,45,1,45,1,13,1,23,1,20,1
633,15,1,23,1,8,1,-19,1,4,1,16,1,11,1,45,1,48,1,14,1,25,1,21,1
634,18,1,23,1,5,1,-20,1,7,1,14,1,11,1,47,1,50,1,17,1,25,1,22,1
635,18,1,23,1,5,1,-20,1,7,1,14,1,11,1,51,1,53,1,19,1,27,1,22,1
636,19,1,23,1,4,1,-21,1,8,1,14,1,11,1,54,1,56,1,21,1,29,1,24,1
637,20,1,25,1,5,1,-22,1,8,1,15,1,12,1,57,1,57,1,21,1,29,1,23,1
638,20,1,26,1,6,1,-23,1,7,1,16,1,13,1,58,1,58,1,24,1,30,1,22,1
639,20,1,27,1,7,1,-23,1,7,1,17,1,14,1,63,1,61,1,26,1,31,1,24,1
640,21,1,28,1,7,1,-24,1,7,1,18,1,16,1,66,1,64,1,29,1,34,1,25,1
641,22,1,30,1,8,1,-26,1,7,1,19,1,16,1,69,1,67,1,31,1,35,1,25,1
642,23,1,31,1,8,1,-27,1,8,1,20,1,17,1,72,1,69,1,32,1,36,1,27,1
643,23,1,34,1,11,1,-28,1,6,1,23,1,16,1,73,1,71,1,34,1,36,1,28,1
644,23,1,35,1,12,1,-29,1,6,1,24,1,16,1,75,1,73,1,34,1,37,1,27,1
645,25,1,35,1,10,1,-30,1,8,1,23,1,18,1,79,1,76,1,38,1,40,1,30,1
646,27,1,34,1,7,1,-30,1,10,1,21,1,18,1,82,1,79,1,40,1,40,1,31,1
647,28,1,34,1,6,1,-31,1,11,1,20,1,17,1,84,1,81,1,40,1,41,1,32,1
648,29,1,36,1,7,1,-32,1,11,1,22,1,17,1,86,1,83,1,43,1,43,1,33,1
649,30,1,36,1,6,1,-33,1,12,1,21,1,17,1,90,1,86,1,46,1,46,1,36,1
650,32,1,38,1,6,1,-35,1,13,1,22,1,16,1,91,1,88,1,48,1,48,1,38,1
651,33,1,40,1,7,1,-36,1,13,1,24,1,14,1,93,1,90,1,50,1,48,1,38,1
652,33,1,44,1,11,1,-38,1,11,1,28,1,13,1,94,1,92,1,54,1,50,1,40,1
653,33,1,45,1,12,1,-39,1,11,1,29,1,13,1,96,1,93,1,55,1,51,1,40,1
654,34,1,46,1,12,1,-40,1,11,1,29,1,16,1,98,1,95,1,56,1,52,1,41,1
655,34,1,48,1,14,1,-41,1,10,1,31,1,15,1,98,1,96,1,57,1,53,1,42,1
656,35,1,49,1,14,1,-42,1,11,1,32,1,16,1,102,1,99,1,59,1,56,1,44,1
657,36,1,50,1,14,1,-43,1,11,1,32,1,16,1,104,1,101,1,61,1,57,1,46,1
658,38,1,52,1,14,1,-45,1,12,1,33,1,15,1,105,1,102,1,63,1,60,1,47,1
659,37,1,52,1,15,1,-44,1,11,1,34,1,14,1,106,1,103,1,64,1,61,1,47,1
660,39,1,52,1,13,1,-45,1,13,1,33,1,15,1,106,1,103,1,63,1,60,1,46,1
661,40,1,52,1,12,1,-46,1,14,1,32,1,14,1,106,1,104,1,64,1,60,1,46,1
662,38,1,52,1,14,1,-45,1,12,1,33,1,14,1,106,1,104,1,64,1,60,1,47,1
663,37,1,50,1,13,1,-43,1,12,1,32,1,15,1,108,1,105,1,66,1,62,1,48,1
664,37,1,50,1,13,1,-43,1,12,1,32,1,15,1,108,1,107,1,68,1,63,1,49,1
665,40,1,50,1,10,1,-45,1,15,1,30,1,14,1,106,1,106,1,67,1,63,1,49,1
666,39,1,52,1,13,1,-45,1,13,1,33,1,15,1,108,1,106,1,69,1,65,1,51,1
667,39,1,51,1,12,1,-45,1,14,1,32,1,14,1,109,1,109,1,71,1,67,1,52,1
668,39,1,52,1,13,1,-45,1,13,1,33,1,13,1,108,1,109,1,71,1,69,1,53,1
669,39,1,51,1,12,1,-45,1,14,1,32,1,12,1,107,1,108,1,71,1,68,1,53,1
670,40,1,51,1,11,1,-45,1,15,1,31,1,12,1,106,1,108,1,71,1,68,1,53,1
671,39,1,53,1,14,1,-46,1,13,1,34,1,10,1,106,1,109,1,71,1,69,1,54,1
672,39,1,55,1,16,1,-47,1,12,1,36,1,10,1,105,1,108,1,70,1,70,1,54,1
673,38,1,54,1,16,1,-46,1,11,1,35,1,10,1,103,1,106,1,69,1,68,1,53,1
674,37,1,54,1,17,1,-45,1,10,1,36,1,10,1,101,1,105,1,68,1,68,1,53,1
675,37,1,54,1,17,1,-45,1,10,1,36,1,12,1,97,1,103,1,67,1,67,1,53,1
676,36,1,54,1,18,1,-45,1,9,1,36,1,10,1,95,1,100,1,64,1,66,1,52,1
677,35,1,54,1,19,1,-44,1,8,1,37,1,9,1,91,1,97,1,62,1,64,1,51,1
678,32,1,54,1,22,1,-43,1,5,1,38,1,9,1,87,1,94,1,60,1,63,1,50,1
679,31,1,52,1,21,1,-41,1,5,1,37,1,10,1,84,1,91,1,58,1,61,1,49,1
680,29,1,50,1,21,1,-39,1,4,1,36,1,10,1,79,1,88,1,55,1,59,1,47,1
681,29,1,47,1,18,1,-38,1,6,1,33,1,10,1,76,1,83,1,51,1,56,1,45,1
682,27,1,47,1,20,1,-37,1,4,1,34,1,9,1,71,1,78,1,48,1,52,1,43,1
683,26,1,46,1,20,1,-36,1,3,1,33,1,7,1,66,1,73,1,43,1,48,1,39,1
684,24,1,43,1,19,1,-33,1,3,1,31,1,6,1,61,1,68,1,39,1,45,1,38,1
685,19,1,36,1,17,1,-27,1,1,1,27,1,7,1,57,1,65,1,37,1,44,1,37,1
686,20,1,33,1,13,1,-26,1,4,1,23,1,8,1,52,1,60,1,34,1,43,1,35,1
687,16,1,34,1,18,1,-25,1,-1,1,26,1,9,1,48,1,57,1,31,1,41,1,33,1
688,14,1,35,1,21,1,-24,1,-3,1,28,1,9,1,41,1,52,1,28,1,38,1,30,1
689,15,1,34,1,19,1,-24,1,-2,1,27,1,8,1,36,1,46,1,24,1,34,1,28,1
690,14,1,32,1,18,1,-23,1,-2,1,25,1,7,1,30,1,41,1,20,1,30,1,26,1
691,13,1,30,1,17,1,-21,1,-2,1,24,1,6,1,24,1,37,1,17,1,27,1,25,1
692,11,1,27,1,16,1,-19,1,-2,1,22,1,6,1,20,1,33,1,14,1,25,1,22,1
693,9,1,23,1,14,1,-16,1,-2,1,19,1,4,1,16,1,28,1,11,1,22,1,21,1
694,7,1,22,1,15,1,-14,1,-4,1,19,1,2,1,11,1,24,1,8,1,18,1,18,1
695,5,1,22,1,17,1,-13,1,-6,1,20,1,2,1,6,1,19,1,3,1,14,1,14,1
696,2,1,20,1,18,1,-11,1,-8,1,19,1,1,1,3,1,15,1,-1,1,13,1,12,1
697,0,1,16,1,16,1,-8,1,-8,1,16,1,3,1,1,1,13,1,-1,1,12,1,13,1
698,0,1,12,1,12,1,-6,1,-6,1,12,1,2,1,-4,1,10,1,-3,1,10,1,12,1
699,1,1,10,1,9,1,-5,1,-4,1,10,1,0,1,-7,1,5,1,-8,1,7,1,11,1
700,-1,1,10,1,11,1,-4,1,-6,1,10,1,0,1,-11,1,3,1,-11,1,6,1,10,1
701,-3,1,13,1,16,1,-5,1,-9,1,14,1,-1,1,-14,1,-2,1,-14,1,3,1,8,1
702,-5,1,10,1,15,1,-2,1,-10,1,12,1,-2,1,-19,1,-5,1,-17,1,1,1,7,1
703,-7,1,7,1,14,1,0,1,-10,1,10,1,-1,1,-19,1,-6,1,-18,1,2,1,8,1
704,-7,1,5,1,12,1,1,1,-9,1,8,1,-1,1,-21,1,-8,1,-19,1,1,1,8,1
705,-7,1,6,1,13,1,0,1,-10,1,9,1,-3,1,-23,1,-10,1,-21,1,0,1,6,1
706,-7,1,6,1,13,1,0,1,-10,1,9,1,-5,1,-26,1,-13,1,-23,1,-2,1,4,1
707,-9,1,4,1,13,1,2,1,-11,1,8,1,-2,1,-27,1,-15,1,-25,1,-3,1,3,1
708,-12,1,1,1,13,1,5,1,-12,1,7,1,-1,1,-27,1,-16,1,-26,1,-4,1,1,1
709,-8,1,-2,1,6,1,5,1,-7,1,2,1,-1,1,-28,1,-18,1,-28,1,-6,1,1,1
710,-9,1,-3,1,6,1,6,1,-8,1,1,1,-1,1,-29,1,-19,1,-30,1,-7,1,0,1
711,-12,1,-3,1,9,1,7,1,-11,1,3,1,-2,1,-31,1,-21,1,-31,1,-9,1,-1,1
712,-13,1,-5,1,8,1,9,1,-11,1,1,1,-1,1,-32,1,-22,1,-31,1,-9,1,-2,1
713,-14,1,-8,1,6,1,11,1,-10,1,-1,1,-1,1,-32,1,-23,1,-32,1,-8,1,-2,1
714,-14,1,-7,1,7,1,10,1,-11,1,0,1,0,1,-35,1,-24,1,-33,1,-8,1,-2,1
715,-16,1,-7,1,9,1,11,1,-13,1,1,1,-1,1,-37,1,-27,1,-35,1,-10,1,-3,1
716,-14,1,-6,1,8,1,10,1,-11,1,1,1,-2,1,-36,1,-27,1,-35,1,-10,1,-3,1
717,-13,1,-6,1,7,1,9,1,-10,1,0,1,-3,1,-36,1,-27,1,-33,1,-8,1,-2,1
718,-15,1,-7,1,8,1,11,1,-12,1,0,1,-4,1,-36,1,-27,1,-32,1,-8,1,-2,1
719,-14,1,-6,1,8,1,10,1,-11,1,1,1,-5,1,-36,1,-28,1,-34,1,-8,1,-3,1
720,-14,1,-6,1,8,1,10,1,-11,1,1,1,-6,1,-37,1,-28,1,-34,1,-8,1,-4,1
721,-15,1,-6,1,9,1,10,1,-12,1,1,1,-5,1,-37,1,-26,1,-33,1,-8,1,-5,1
722,-14,1,-5,1,9,1,9,1,-12,1,2,1,-3,1,-36,1,-26,1,-33,1,-9,1,-6,1
723,-13,1,-5,1,8,1,9,1,-11,1,1,1,-3,1,-36,1,-27,1,-33,1,-9,1,-5,1
724,-14,1,-7,1,7,1,10,1,-11,1,0,1,-3,1,-36,1,-29,1,-35,1,-9,1,-5,1
725,-14,1,-6,1,8,1,10,1,-11,1,1,1,-4,1,-36,1,-28,1,-36,1,-9,1,-3,1
726,-17,1,-7,1,10,1,12,1,-14,1,1,1,-2,1,-35,1,-26,1,-34,1,-7,1,-2,1
727,-17,1,-8,1,9,1,12,1,-13,1,0,1,-2,1,-36,1,-27,1,-34,1,-7,1,-2,1
728,-15,1,-8,1,7,1,11,1,-11,1,-1,1,-3,1,-37,1,-28,1,-35,1,-7,1,-2,1
729,-14,1,-7,1,7,1,10,1,-11,1,0,1,-2,1,-34,1,-26,1,-33,1,-5,1,0,1
730,-14,1,-7,1,7,1,10,1,-11,1,0,1,-2,1,-33,1,-24,1,-30,1,-4,1,0,1
731,-14,1,-7,1,7,1,10,1,-11,1,0,1,-3,1,-34,1,-25,1,-31,1,-4,1,-1,1
732,-15,1,-7,1,8,1,11,1,-12,1,0,1,-3,1,-34,1,-25,1,-31,1,-4,1,-1,1
733,-15,1,-7,1,8,1,11,1,-12,1,0,1,-3,1,-33,1,-25,1,-32,1,-5,1,0,1
734,-13,1,-8,1,5,1,10,1,-9,1,-2,1,-4,1,-33,1,-25,1,-33,1,-5,1,-1,1
735,-13,1,-7,1,6,1,10,1,-10,1,-1,1,-4,1,-33,1,-26,1,-33,1,-6,1,-1,1
736,-13,1,-8,1,5,1,10,1,-9,1,-2,1,-2,1,-32,1,-26,1,-33,1,-7,1,-1,1
737,-13,1,-7,1,6,1,10,1,-10,1,-1,1,-2,1,-32,1,-26,1,-33,1,-8,1,-2,1
738,-14,1,-7,1,7,1,10,1,-11,1,0,1,-4,1,-34,1,-28,1,-36,1,-9,1,-2,1
739,-15,1,-7,1,8,1,11,1,-12,1,0,1,-2,1,-34,1,-28,1,-35,1,-8,1,-2,1
740,-16,1,-8,1,8,1,12,1,-12,1,0,1,-1,1,-33,1,-27,1,-34,1,-8,1,-3,1
741,-15,1,-7,1,8,1,11,1,-12,1,0,1,-2,1,-32,1,-27,1,-34,1,-8,1,-4,1
742,-14,1,-5,1,9,1,9,1,-12,1,2,1,-3,1,-33,1,-27,1,-33,1,-8,1,-5,1
743,-12,1,-4,1,8,1,8,1,-10,1,2,1,-6,1,-33,1,-28,1,-34,1,-9,1,-5,1
744,-15,1,-2,1,13,1,8,1,-14,1,5,1,-2,1,-32,1,-26,1,-32,1,-8,1,-5,1
745,-18,1,-3,1,15,1,10,1,-17,1,6,1,0,1,-30,1,-26,1,-32,1,-7,1,-3,1
746,-13,1,-6,1,7,1,9,1,-10,1,0,1,-2,1,-30,1,-26,1,-32,1,-7,1,-2,1
747,-11,1,-7,1,4,1,9,1,-8,1,-2,1,-1,1,-30,1,-25,1,-33,1,-6,1,-2,1
748,-13,1,-7,1,6,1,10,1,-10,1,-1,1,-1,1,-29,1,-25,1,-32,1,-6,1,0,1
749,-15,1,-9,1,6,1,12,1,-11,1,-2,1,-1,1,-29,1,-25,1,-32,1,-5,1,0,1
750,-16,1,-9,1,7,1,12,1,-12,1,-1,1,-1,1,-29,1,-26,1,-31,1,-5,1,0,1
751,-15,1,-6,1,9,1,10,1,-12,1,1,1,-2,1,-29,1,-26,1,-30,1,-4,1,-1,1
752,-15,1,-5,1,10,1,10,1,-13,1,2,1,-2,1,-28,1,-24,1,-30,1,-4,1,-1,1
753,-13,1,-4,1,9,1,8,1,-11,1,2,1,-2,1,-27,1,-23,1,-29,1,-5,1,0,1
754,-13,1,-4,1,9,1,8,1,-11,1,2,1,-3,1,-27,1,-23,1,-29,1,-5,1,0,1
755,-14,1,-3,1,11,1,8,1,-13,1,4,1,-2,1,-28,1,-24,1,-29,1,-6,1,-1,1
756,-14,1,-2,1,12,1,8,1,-13,1,5,1,-1,1,-27,1,-24,1,-29,1,-6,1,1,1
757,-15,1,-3,1,12,1,9,1,-14,1,4,1,-1,1,-27,1,-24,1,-29,1,-6,1,0,1
758,-15,1,-4,1,11,1,9,1,-13,1,3,1,-1,1,-26,1,-24,1,-27,1,-5,1,0,1
759,-14,1,-3,1,11,1,8,1,-13,1,4,1,-1,1,-27,1,-24,1,-27,1,-5,1,0,1
760,-14,1,-3,1,11,1,8,1,-13,1,4,1,-1,1,-25,1,-24,1,-27,1,-5,1,0,1
761,-16,1,-3,1,13,1,9,1,-15,1,5,1,0,1,-25,1,-25,1,-29,1,-6,1,-1,1
762,-15,1,-2,1,13,1,8,1,-14,1,5,1,0,1,-26,1,-26,1,-30,1,-6,1,-1,1
763,-14,1,-2,1,12,1,8,1,-13,1,5,1,-1,1,-27,1,-28,1,-31,1,-7,1,-1,1
764,-14,1,-2,1,12,1,8,1,-13,1,5,1,-1,1,-26,1,-27,1,-30,1,-6,1,-1,1
765,-14,1,-1,1,13,1,7,1,-14,1,6,1,-1,1,-26,1,-27,1,-28,1,-6,1,-1,1
766,-15,1,-2,1,13,1,8,1,-14,1,5,1,-1,1,-26,1,-27,1,-28,1,-6,1,0,1
767,-16,1,-4,1,12,1,10,1,-14,1,4,1,-1,1,-24,1,-26,1,-28,1,-7,1,0,1
768,-15,1,-5,1,10,1,10,1,-13,1,2,1,-1,1,-24,1,-26,1,-27,1,-6,1,0,1
769,-15,1,-5,1,10,1,10,1,-13,1,2,1,-2,1,-25,1,-24,1,-25,1,-6,1,0,1
770,-16,1,-5,1,11,1,10,1,-14,1,3,1,-1,1,-24,1,-25,1,-26,1,-6,1,0,1
771,-14,1,-4,1,10,1,9,1,-12,1,3,1,-1,1,-25,1,-26,1,-29,1,-7,1,-1,1
772,-12,1,-6,1,6,1,9,1,-9,1,0,1,-2,1,-26,1,-27,1,-29,1,-8,1,-2,1
773,-14,1,-5,1,9,1,9,1,-12,1,2,1,0,1,-24,1,-26,1,-27,1,-7,1,-2,1
774,-14,1,-4,1,10,1,9,1,-12,1,3,1,0,1,-23,1,-26,1,-26,1,-6,1,-2,1
775,-14,1,-4,1,10,1,9,1,-12,1,3,1,-1,1,-24,1,-26,1,-27,1,-6,1,-2,1
776,-14,1,-4,1,10,1,9,1,-12,1,3,1,-1,1,-24,1,-26,1,-27,1,-6,1,-3,1
777,-14,1,-5,1,9,1,9,1,-12,1,2,1,-1,1,-25,1,-28,1,-28,1,-7,1,-3,1
778,-15,1,-6,1,9,1,10,1,-12,1,1,1,-1,1,-27,1,-28,1,-28,1,-7,1,-4,1
779,-16,1,-7,1,9,1,11,1,-13,1,1,1,-1,1,-25,1,-27,1,-27,1,-7,1,-3,1
780,-15,1,-5,1,10,1,10,1,-13,1,2,1,-3,1,-26,1,-28,1,-28,1,-8,1,-4,1
781,-14,1,-4,1,10,1,9,1,-12,1,3,1,-4,1,-26,1,-29,1,-29,1,-7,1,-4,1
782,-14,1,-6,1,8,1,10,1,-11,1,1,1,-4,1,-26,1,-30,1,-29,1,-6,1,-3,1
783,-14,1,-3,1,11,1,8,1,-13,1,4,1,-4,1,-26,1,-30,1,-29,1,-6,1,-3,1
784,-16,1,-1,1,15,1,8,1,-16,1,7,1,-3,1,-26,1,-30,1,-29,1,-6,1,-3,1
785,-14,1,-5,1,9,1,9,1,-12,1,2,1,-1,1,-25,1,-30,1,-29,1,-6,1,-2,1
786,-13,1,-5,1,8,1,9,1,-11,1,1,1,-1,1,-27,1,-31,1,-31,1,-6,1,-2,1
787,-14,1,-4,1,10,1,9,1,-12,1,3,1,-1,1,-28,1,-31,1,-31,1,-6,1,-2,1
788,-15,1,-6,1,9,1,10,1,-12,1,1,1,-1,1,-27,1,-31,1,-31,1,-6,1,-2,1
789,-17,1,-8,1,9,1,12,1,-13,1,0,1,-1,1,-27,1,-32,1,-31,1,-6,1,-3,1
790,-16,1,-7,1,9,1,11,1,-13,1,1,1,-2,1,-28,1,-33,1,-32,1,-8,1,-3,1
791,-16,1,-10,1,6,1,13,1,-11,1,-2,1,-1,1,-27,1,-33,1,-32,1,-8,1,-3,1
792,-17,1,-11,1,6,1,14,1,-12,1,-3,1,-1,1,-27,1,-32,1,-32,1,-7,1,-3,1
793,-18,1,-10,1,8,1,14,1,-13,1,-1,1,-1,1,-27,1,-31,1,-31,1,-7,1,-2,1
794,-17,1,-10,1,7,1,13,1,-12,1,-2,1,-2,1,-27,1,-32,1,-30,1,-7,1,-2,1
795,-15,1,-10,1,5,1,12,1,-10,1,-3,1,-4,1,-30,1,-35,1,-33,1,-8,1,-4,1
796,-16,1,-9,1,7,1,12,1,-12,1,-1,1,-4,1,-29,1,-35,1,-33,1,-8,1,-3,1
797,-16,1,-7,1,9,1,11,1,-13,1,1,1,-4,1,-30,1,-35,1,-33,1,-8,1,-3,1
798,-16,1,-7,1,9,1,11,1,-13,1,1,1,-4,1,-30,1,-35,1,-33,1,-9,1,-4,1
799,-17,1,-7,1,10,1,12,1,-14,1,1,1,-4,1,-30,1,-35,1,-34,1,-9,1,-4,1
800,-15,1,-7,1,8,1,11,1,-12,1,0,1,-6,1,-30,1,-37,1,-36,1,-10,1,-5,1
801,-17,1,-9,1,8,1,13,1,-13,1,-1,1,-3,1,-30,1,-38,1,-36,1,-9,1,-5,1
802,-17,1,-11,1,6,1,14,1,-12,1,-3,1,-3,1,-31,1,-38,1,-36,1,-11,1,-5,1
803,-18,1,-11,1,7,1,14,1,-13,1,-2,1,-6,1,-31,1,-38,1,-37,1,-11,1,-6,1
804,-18,1,-9,1,9,1,13,1,-14,1,0,1,-7,1,-32,1,-38,1,-36,1,-12,1,-7,1
805,-17,1,-6,1,11,1,11,1,-14,1,2,1,-7,1,-32,1,-39,1,-39,1,-13,1,-9,1
806,-21,1,-7,1,14,1,14,1,-18,1,3,1,-6,1,-31,1,-39,1,-38,1,-12,1,-7,1
807,-19,1,-8,1,11,1,13,1,-15,1,1,1,-7,1,-31,1,-39,1,-38,1,-12,1,-7,1
808,-17,1,-7,1,10,1,12,1,-14,1,1,1,-8,1,-32,1,-40,1,-39,1,-14,1,-10,1
809,-17,1,-6,1,11,1,11,1,-14,1,2,1,-8,1,-32,1,-40,1,-38,1,-13,1,-10,1
810,-17,1,-5,1,12,1,11,1,-15,1,3,1,-7,1,-32,1,-40,1,-38,1,-13,1,-10,1
811,-19,1,-7,1,12,1,13,1,-16,1,2,1,-6,1,-31,1,-39,1,-37,1,-11,1,-9,1
812,-17,1,-8,1,9,1,12,1,-13,1,0,1,-6,1,-31,1,-39,1,-38,1,-12,1,-9,1
813,-17,1,-8,1,9,1,12,1,-13,1,0,1,-6,1,-32,1,-40,1,-37,1,-11,1,-8,1
814,-18,1,-7,1,11,1,12,1,-15,1,2,1,-6,1,-32,1,-41,1,-38,1,-12,1,-7,1
815,-18,1,-7,1,11,1,12,1,-15,1,2,1,-6,1,-32,1,-41,1,-38,1,-12,1,-6,1
816,-18,1,-7,1,11,1,12,1,-15,1,2,1,-7,1,-32,1,-41,1,-39,1,-12,1,-7,1
817,-19,1,-9,1,10,1,14,1,-15,1,0,1,-7,1,-33,1,-42,1,-40,1,-12,1,-7,1
818,-20,1,-11,1,9,1,15,1,-15,1,-1,1,-6,1,-33,1,-42,1,-39,1,-12,1,-8,1
819,-20,1,-11,1,9,1,15,1,-15,1,-1,1,-4,1,-31,1,-41,1,-38,1,-12,1,-9,1
820,-20,1,-11,1,9,1,15,1,-15,1,-1,1,-4,1,-31,1,-40,1,-38,1,-12,1,-8,1
821,-19,1,-11,1,8,1,15,1,-14,1,-2,1,-6,1,-32,1,-40,1,-38,1,-11,1,-8,1
822,-20,1,-11,1,9,1,15,1,-15,1,-1,1,-5,1,-31,1,-39,1,-39,1,-10,1,-6,1
823,-22,1,-12,1,10,1,17,1,-16,1,-1,1,-4,1,-30,1,-39,1,-36,1,-8,1,-5,1
824,-21,1,-12,1,9,1,16,1,-15,1,-2,1,-4,1,-30,1,-37,1,-36,1,-8,1,-5,1
825,-20,1,-12,1,8,1,16,1,-14,1,-2,1,-5,1,-30,1,-37,1,-36,1,-9,1,-5,1
826,-21,1,-13,1,8,1,17,1,-15,1,-3,1,-6,1,-31,1,-37,1,-37,1,-10,1,-6,1
827,-19,1,-12,1,7,1,15,1,-13,1,-3,1,-4,1,-29,1,-36,1,-35,1,-9,1,-5,1
828,-18,1,-11,1,7,1,14,1,-13,1,-2,1,-4,1,-29,1,-39,1,-36,1,-9,1,-5,1
829,-18,1,-9,1,9,1,13,1,-14,1,0,1,-7,1,-30,1,-40,1,-40,1,-12,1,-8,1
830,-19,1,-8,1,11,1,13,1,-15,1,1,1,-8,1,-30,1,-40,1,-41,1,-12,1,-8,1
831,-20,1,-11,1,9,1,15,1,-15,1,-1,1,-9,1,-31,1,-41,1,-42,1,-13,1,-9,1
832,-20,1,-9,1,11,1,14,1,-16,1,1,1,-10,1,-32,1,-42,1,-43,1,-13,1,-9,1
833,-19,1,-6,1,13,1,12,1,-16,1,3,1,-10,1,-33,1,-44,1,-41,1,-13,1,-10,1
834,-22,1,-6,1,16,1,14,1,-19,1,5,1,-8,1,-31,1,-41,1,-38,1,-11,1,-7,1
835,-19,1,-9,1,10,1,14,1,-15,1,0,1,-6,1,-30,1,-40,1,-38,1,-11,1,-7,1
836,-19,1,-9,1,10,1,14,1,-15,1,0,1,-6,1,-30,1,-41,1,-38,1,-10,1,-8,1
837,-20,1,-9,1,11,1,14,1,-16,1,1,1,-5,1,-29,1,-40,1,-37,1,-9,1,-7,1
838,-20,1,-11,1,9,1,15,1,-15,1,-1,1,-6,1,-28,1,-40,1,-37,1,-10,1,-7,1
839,-19,1,-12,1,7,1,15,1,-13,1,-3,1,-6,1,-30,1,-41,1,-37,1,-10,1,-8,1
840,-19,1,-12,1,7,1,15,1,-13,1,-3,1,-6,1,-30,1,-40,1,-36,1,-10,1,-9,1
841,-19,1,-11,1,8,1,15,1,-14,1,-2,1,-6,1,-29,1,-40,1,-37,1,-10,1,-9,1
842,-21,1,-11,1,10,1,16,1,-16,1,-1,1,-6,1,-29,1,-40,1,-35,1,-10,1,-8,1
843,-21,1,-10,1,11,1,15,1,-16,1,0,1,-5,1,-29,1,-41,1,-36,1,-11,1,-7,1
844,-22,1,-10,1,12,1,16,1,-17,1,1,1,-3,1,-29,1,-42,1,-36,1,-11,1,-8,1
845,-19,1,-7,1,12,1,13,1,-16,1,2,1,-5,1,-29,1,-42,1,-36,1,-10,1,-8,1
846,-19,1,-7,1,12,1,13,1,-16,1,2,1,-6,1,-28,1,-42,1,-36,1,-10,1,-7,1
847,-21,1,-8,1,13,1,14,1,-17,1,2,1,-6,1,-28,1,-42,1,-35,1,-9,1,-7,1
848,-21,1,-10,1,11,1,15,1,-16,1,0,1,-3,1,-27,1,-40,1,-34,1,-8,1,-7,1
849,-19,1,-12,1,7,1,15,1,-13,1,-3,1,-2,1,-26,1,-41,1,-34,1,-8,1,-6,1
850,-20,1,-12,1,8,1,16,1,-14,1,-2,1,-4,1,-26,1,-42,1,-35,1,-7,1,-6,1
851,-21,1,-10,1,11,1,15,1,-16,1,0,1,-5,1,-27,1,-44,1,-37,1,-9,1,-6,1
852,-21,1,-10,1,11,1,15,1,-16,1,0,1,-6,1,-27,1,-44,1,-38,1,-9,1,-5,1
853,-20,1,-7,1,13,1,13,1,-17,1,3,1,-5,1,-27,1,-44,1,-38,1,-9,1,-5,1
854,-17,1,-4,1,13,1,10,1,-15,1,4,1,-5,1,-26,1,-44,1,-36,1,-8,1,-5,1
855,-18,1,-4,1,14,1,11,1,-16,1,5,1,-5,1,-25,1,-43,1,-35,1,-6,1,-4,1
856,-19,1,-2,1,17,1,10,1,-18,1,7,1,-4,1,-25,1,-41,1,-34,1,-4,1,-3,1
857,-18,1,-2,1,16,1,10,1,-17,1,7,1,-2,1,-24,1,-41,1,-32,1,-2,1,-2,1
858,-18,1,-3,1,15,1,10,1,-17,1,6,1,-1,1,-22,1,-39,1,-31,1,-1,1,-2,1
859,-17,1,0,1,17,1,8,1,-17,1,8,1,-2,1,-22,1,-39,1,-31,1,-1,1,-2,1
860,-14,1,2,1,16,1,6,1,-15,1,9,1,0,1,-21,1,-39,1,-30,1,0,1,-2,1
861,-15,1,1,1,16,1,7,1,-15,1,8,1,-1,1,-21,1,-39,1,-31,1,0,1,-2,1
862,-15,1,2,1,17,1,6,1,-16,1,9,1,-3,1,-23,1,-41,1,-33,1,-1,1,-3,1
863,-17,1,2,1,19,1,7,1,-18,1,10,1,-3,1,-24,1,-41,1,-33,1,-2,1,-4,1
864,-19,1,-2,1,17,1,10,1,-18,1,7,1,-3,1,-23,1,-42,1,-33,1,-3,1,-4,1
865,-18,1,-4,1,14,1,11,1,-16,1,5,1,-3,1,-23,1,-42,1,-33,1,-3,1,-4,1
866,-16,1,-4,1,12,1,10,1,-14,1,4,1,-7,1,-25,1,-43,1,-34,1,-3,1,-5,1
867,-15,1,-5,1,10,1,10,1,-13,1,2,1,-7,1,-25,1,-42,1,-33,1,-2,1,-3,1
868,-12,1,-3,1,9,1,7,1,-11,1,3,1,-7,1,-22,1,-40,1,-32,1,0,1,-2,1
869,-10,1,0,1,10,1,5,1,-10,1,5,1,-8,1,-21,1,-40,1,-31,1,0,1,-2,1
870,-10,1,1,1,11,1,4,1,-10,1,6,1,-7,1,-20,1,-38,1,-29,1,1,1,0,1
871,-11,1,2,1,13,1,4,1,-12,1,7,1,-6,1,-18,1,-36,1,-28,1,3,1,2,1
872,-7,1,3,1,10,1,2,1,-8,1,6,1,-8,1,-19,1,-37,1,-29,1,2,1,0,1
873,-5,1,2,1,7,1,1,1,-6,1,4,1,-9,1,-19,1,-37,1,-30,1,2,1,0,1
874,-8,1,1,1,9,1,3,1,-8,1,5,1,-8,1,-19,1,-36,1,-28,1,4,1,2,1
875,-9,1,0,1,9,1,4,1,-9,1,4,1,-9,1,-20,1,-37,1,-27,1,4,1,1,1
876,-9,1,2,1,11,1,3,1,-10,1,6,1,-10,1,-22,1,-38,1,-31,1,2,1,0,1
877,-8,1,1,1,9,1,3,1,-8,1,5,1,-10,1,-22,1,-38,1,-32,1,1,1,-1,1
878,-9,1,-1,1,8,1,5,1,-9,1,3,1,-10,1,-22,1,-38,1,-32,1,0,1,-1,1
879,-6,1,0,1,6,1,3,1,-6,1,3,1,-11,1,-23,1,-39,1,-33,1,-1,1,-2,1
880,-5,1,1,1,6,1,2,1,-5,1,3,1,-9,1,-21,1,-38,1,-33,1,0,1,-2,1
881,-8,1,0,1,8,1,4,1,-8,1,4,1,-8,1,-20,1,-37,1,-33,1,0,1,-3,1
882,-7,1,1,1,8,1,3,1,-7,1,4,1,-8,1,-21,1,-36,1,-33,1,0,1,-2,1
883,-8,1,1,1,9,1,3,1,-8,1,5,1,-9,1,-21,1,-36,1,-33,1,0,1,-1,1
884,-9,1,-1,1,8,1,5,1,-9,1,3,1,-9,1,-21,1,-35,1,-32,1,1,1,0,1
885,-8,1,-1,1,7,1,4,1,-8,1,3,1,-11,1,-24,1,-36,1,-31,1,2,1,0,1
886,-7,1,0,1,7,1,3,1,-7,1,3,1,-11,1,-24,1,-35,1,-30,1,4,1,1,1
887,-8,1,1,1,9,1,3,1,-8,1,5,1,-12,1,-24,1,-36,1,-31,1,2,1,0,1
888,-8,1,-1,1,7,1,4,1,-8,1,3,1,-12,1,-24,1,-37,1,-32,1,2,1,1,1
889,-8,1,-4,1,4,1,6,1,-6,1,0,1,-13,1,-24,1,-37,1,-33,1,2,1,0,1
890,-9,1,-4,1,5,1,6,1,-7,1,0,1,-12,1,-22,1,-35,1,-32,1,2,1,0,1
891,-11,1,-3,1,8,1,7,1,-10,1,2,1,-12,1,-21,1,-34,1,-32,1,1,1,0,1
892,-11,1,-2,1,9,1,6,1,-10,1,3,1,-12,1,-22,1,-34,1,-32,1,1,1,-1,1
893,-12,1,-2,1,10,1,7,1,-11,1,4,1,-12,1,-20,1,-33,1,-32,1,1,1,-1,1
894,-15,1,-3,1,12,1,9,1,-14,1,4,1,-10,1,-20,1,-34,1,-32,1,1,1,-1,1
895,-14,1,-5,1,9,1,9,1,-12,1,2,1,-10,1,-21,1,-35,1,-34,1,0,1,-2,1
896,-14,1,-6,1,8,1,10,1,-11,1,1,1,-9,1,-19,1,-33,1,-34,1,0,1,-1,1
897,-14,1,-6,1,8,1,10,1,-11,1,1,1,-9,1,-20,1,-34,1,-34,1,0,1,-1,1
898,-16,1,-6,1,10,1,11,1,-13,1,2,1,-8,1,-21,1,-35,1,-35,1,-2,1,-2,1
899,-19,1,-7,1,12,1,13,1,-16,1,2,1,-8,1,-21,1,-36,1,-35,1,-2,1,-4,1
900,-20,1,-7,1,13,1,13,1,-17,1,3,1,-9,1,-23,1,-38,1,-37,1,-3,1,-6,1
901,-19,1,-8,1,11,1,13,1,-15,1,1,1,-10,1,-24,1,-38,1,-38,1,-3,1,-6,1
902,-19,1,-9,1,10,1,14,1,-15,1,0,1,-9,1,-23,1,-37,1,-36,1,-2,1,-4,1
903,-21,1,-11,1,10,1,16,1,-16,1,-1,1,-9,1,-24,1,-38,1,-37,1,-2,1,-5,1
904,-21,1,-10,1,11,1,15,1,-16,1,0,1,-9,1,-26,1,-41,1,-39,1,-5,1,-7,1
905,-21,1,-11,1,10,1,16,1,-16,1,-1,1,-11,1,-27,1,-41,1,-41,1,-5,1,-7,1
906,-21,1,-12,1,9,1,16,1,-15,1,-2,1,-10,1,-26,1,-39,1,-39,1,-5,1,-6,1
907,-21,1,-13,1,8,1,17,1,-15,1,-3,1,-11,1,-26,1,-40,1,-40,1,-6,1,-7,1
908,-22,1,-13,1,9,1,17,1,-16,1,-2,1,-10,1,-25,1,-40,1,-40,1,-6,1,-7,1
909,-22,1,-16,1,6,1,19,1,-14,1,-5,1,-10,1,-25,1,-39,1,-38,1,-6,1,-7,1
910,-22,1,-16,1,6,1,19,1,-14,1,-5,1,-12,1,-25,1,-39,1,-38,1,-7,1,-8,1
911,-23,1,-14,1,9,1,18,1,-16,1,-3,1,-12,1,-25,1,-39,1,-39,1,-8,1,-10,1
912,-22,1,-13,1,9,1,17,1,-16,1,-2,1,-8,1,-24,1,-40,1,-40,1,-8,1,-10,1
913,-22,1,-12,1,10,1,17,1,-16,1,-1,1,-7,1,-23,1,-40,1,-41,1,-8,1,-10,1
914,-20,1,-10,1,10,1,15,1,-15,1,0,1,-7,1,-24,1,-40,1,-41,1,-8,1,-10,1
915,-20,1,-14,1,6,1,17,1,-13,1,-4,1,-5,1,-22,1,-38,1,-40,1,-9,1,-9,1
916,-22,1,-16,1,6,1,19,1,-14,1,-5,1,-3,1,-22,1,-38,1,-40,1,-8,1,-9,1
917,-23,1,-16,1,7,1,19,1,-15,1,-5,1,-3,1,-22,1,-39,1,-41,1,-10,1,-11,1
918,-24,1,-16,1,8,1,20,1,-16,1,-4,1,-5,1,-23,1,-39,1,-42,1,-9,1,-12,1
919,-26,1,-13,1,13,1,19,1,-20,1,0,1,-5,1,-23,1,-39,1,-41,1,-9,1,-12,1
920,-26,1,-14,1,12,1,20,1,-19,1,-1,1,-6,1,-23,1,-38,1,-42,1,-10,1,-12,1
921,-25,1,-17,1,8,1,21,1,-17,1,-5,1,-4,1,-21,1,-36,1,-40,1,-7,1,-10,1
922,-26,1,-19,1,7,1,22,1,-17,1,-6,1,-4,1,-21,1,-36,1,-39,1,-8,1,-11,1
923,-25,1,-19,1,6,1,22,1,-16,1,-7,1,-6,1,-22,1,-36,1,-40,1,-9,1,-11,1
924,-26,1,-18,1,8,1,22,1,-17,1,-5,1,-5,1,-22,1,-36,1,-40,1,-10,1,-11,1
925,-27,1,-18,1,9,1,22,1,-18,1,-5,1,-4,1,-21,1,-36,1,-39,1,-9,1,-12,1
926,-27,1,-20,1,7,1,23,1,-17,1,-7,1,-4,1,-21,1,-35,1,-38,1,-8,1,-11,1
927,-26,1,-18,1,8,1,22,1,-17,1,-5,1,-4,1,-22,1,-35,1,-38,1,-7,1,-11,1
928,-24,1,-14,1,10,1,19,1,-17,1,-2,1,-5,1,-21,1,-34,1,-39,1,-8,1,-11,1
929,-24,1,-16,1,8,1,20,1,-16,1,-4,1,-5,1,-20,1,-34,1,-39,1,-8,1,-11,1
930,-27,1,-18,1,9,1,22,1,-18,1,-5,1,-3,1,-19,1,-35,1,-38,1,-9,1,-12,1
931,-30,1,-18,1,12,1,24,1,-21,1,-3,1,0,1,-15,1,-33,1,-38,1,-9,1,-13,1
932,-30,1,-18,1,12,1,24,1,-21,1,-3,1,6,1,-9,1,-32,1,-39,1,-11,1,-15,1
933,-29,1,-18,1,11,1,23,1,-20,1,-4,1,13,1,-4,1,-31,1,-40,1,-13,1,-17,1
934,-29,1,-16,1,13,1,22,1,-21,1,-2,1,19,1,2,1,-27,1,-36,1,-10,1,-17,1
935,-27,1,-14,1,13,1,20,1,-20,1,-1,1,22,1,10,1,-20,1,-29,1,-6,1,-13,1
936,-22,1,-11,1,11,1,16,1,-17,1,0,1,26,1,24,1,-12,1,-23,1,-4,1,-11,1
937,-15,1,-6,1,9,1,10,1,-12,1,1,1,31,1,45,1,0,1,-14,1,1,1,-9,1
938,-8,1,-3,1,5,1,5,1,-7,1,1,1,42,1,72,1,21,1,-1,1,9,1,-3,1
939,-3,1,1,1,4,1,1,1,-3,1,2,1,54,1,100,1,45,1,20,1,22,1,5,1
940,9,1,14,1,5,1,-11,1,2,1,10,1,59,1,131,1,76,1,44,1,37,1,15,1
941,20,1,28,1,8,1,-24,1,6,1,18,1,58,1,158,1,108,1,71,1,56,1,28,1
942,32,1,43,1,11,1,-37,1,11,1,27,1,42,1,177,1,143,1,101,1,80,1,44,1
943,47,1,58,1,11,1,-52,1,18,1,35,1,21,1,193,1,181,1,133,1,103,1,61,1
944,61,1,77,1,16,1,-69,1,23,1,47,1,-4,1,200,1,214,1,163,1,128,1,80,1
945,74,1,99,1,25,1,-86,1,25,1,62,1,-48,1,180,1,234,1,188,1,152,1,104,1
946,85,1,118,1,33,1,-101,1,26,1,76,1,-90,1,149,1,245,1,206,1,172,1,123,1
947,87,1,126,1,39,1,-106,1,24,1,83,1,-120,1,127,1,250,1,214,1,182,1,133,1
948,81,1,122,1,41,1,-101,1,20,1,82,1,-135,1,111,1,249,1,211,1,180,1,132,1
949,68,1,96,1,28,1,-82,1,20,1,62,1,-135,1,98,1,232,1,188,1,160,1,115,1
950,54,1,71,1,17,1,-62,1,19,1,44,1,-132,1,67,1,191,1,148,1,133,1,96,1
951,37,1,53,1,16,1,-45,1,11,1,35,1,-133,1,19,1,131,1,98,1,104,1,79,1
952,19,1,38,1,19,1,-28,1,0,1,29,1,-138,1,-41,1,66,1,47,1,73,1,58,1
953,1,1,22,1,21,1,-11,1,-10,1,22,1,-141,1,-105,1,-1,1,-2,1,42,1,38,1
954,-16,1,7,1,23,1,4,1,-19,1,15,1,-144,1,-176,1,-70,1,-51,1,10,1,17,1
955,-32,1,-2,1,30,1,17,1,-31,1,14,1,-142,1,-226,1,-121,1,-86,1,-14,1,0,1
956,-41,1,-14,1,27,1,27,1,-34,1,6,1,-146,1,-245,1,-150,1,-110,1,-29,1,-12,1
957,-47,1,-23,1,24,1,35,1,-36,1,0,1,-150,1,-245,1,-161,1,-120,1,-40,1,-21,1
958,-51,1,-24,1,27,1,37,1,-39,1,1,1,-148,1,-233,1,-158,1,-121,1,-45,1,-26,1
959,-52,1,-23,1,29,1,37,1,-41,1,3,1,-143,1,-219,1,-152,1,-118,1,-48,1,-28,1
960,-55,1,-23,1,32,1,39,1,-44,1,4,1,-137,1,-207,1,-147,1,-116,1,-48,1,-29,1
961,-58,1,-27,1,31,1,42,1,-45,1,2,1,-129,1,-193,1,-142,1,-115,1,-51,1,-33,1
962,-59,1,-32,1,27,1,45,1,-43,1,-3,1,-123,1,-178,1,-136,1,-114,1,-52,1,-36,1
963,-59,1,-35,1,24,1,47,1,-42,1,-6,1,-117,1,-163,1,-130,1,-113,1,-52,1,-38,1
964,-56,1,-32,1,24,1,44,1,-40,1,-4,1,-106,1,-144,1,-117,1,-102,1,-48,1,-34,1
965,-50,1,-28,1,22,1,39,1,-36,1,-3,1,-96,1,-127,1,-105,1,-92,1,-41,1,-29,1
966,-47,1,-22,1,25,1,34,1,-36,1,1,1,-84,1,-110,1,-93,1,-83,1,-36,1,-26,1
967,-43,1,-16,1,27,1,29,1,-35,1,5,1,-71,1,-94,1,-82,1,-73,1,-30,1,-21,1
968,-37,1,-6,1,31,1,21,1,-34,1,12,1,-57,1,-75,1,-69,1,-62,1,-22,1,-15,1
969,-33,1,-4,1,29,1,18,1,-31,1,12,1,-43,1,-58,1,-55,1,-51,1,-14,1,-9,1
970,-30,1,-3,1,27,1,16,1,-29,1,12,1,-31,1,-45,1,-46,1,-44,1,-9,1,-7,1
971,-27,1,0,1,27,1,13,1,-27,1,13,1,-24,1,-36,1,-41,1,-41,1,-8,1,-8,1
972,-23,1,2,1,25,1,10,1,-24,1,13,1,-19,1,-28,1,-37,1,-38,1,-5,1,-6,1
973,-20,1,0,1,20,1,10,1,-20,1,10,1,-13,1,-20,1,-32,1,-35,1,-3,1,-5,1
974,-18,1,-1,1,17,1,9,1,-18,1,8,1,-9,1,-15,1,-29,1,-34,1,-3,1,-5,1
975,-17,1,-2,1,15,1,9,1,-16,1,6,1,-5,1,-9,1,-26,1,-31,1,-2,1,-3,1
976,-18,1,-6,1,12,1,12,1,-15,1,3,1,-2,1,-6,1,-24,1,-29,1,-2,1,-2,1
977,-16,1,-6,1,10,1,11,1,-13,1,2,1,-1,1,-6,1,-24,1,-28,1,-2,1,-3,1
978,-17,1,-4,1,13,1,10,1,-15,1,4,1,0,1,-3,1,-22,1,-28,1,-3,1,-3,1
979,-18,1,-3,1,15,1,10,1,-17,1,6,1,1,1,-2,1,-22,1,-28,1,-3,1,-3,1
980,-17,1,-5,1,12,1,11,1,-15,1,3,1,2,1,0,1,-20,1,-27,1,-1,1,-2,1
981,-16,1,-5,1,11,1,10,1,-14,1,3,1,3,1,1,1,-20,1,-26,1,-1,1,-2,1
982,-16,1,-5,1,11,1,10,1,-14,1,3,1,4,1,2,1,-19,1,-25,1,0,1,-2,1
983,-16,1,-8,1,8,1,12,1,-12,1,0,1,4,1,4,1,-18,1,-23,1,0,1,-2,1
984,-16,1,-7,1,9,1,11,1,-13,1,1,1,5,1,5,1,-16,1,-23,1,1,1,-2,1
985,-16,1,-6,1,10,1,11,1,-13,1,2,1,6,1,5,1,-14,1,-21,1,2,1,-2,1
986,-15,1,-5,1,10,1,10,1,-13,1,2,1,5,1,6,1,-14,1,-20,1,2,1,-2,1
987,-15,1,-4,1,11,1,9,1,-13,1,3,1,5,1,8,1,-14,1,-20,1,3,1,-2,1
988,-14,1,-2,1,12,1,8,1,-13,1,5,1,6,1,9,1,-14,1,-21,1,2,1,-2,1
989,-12,1,-2,1,10,1,7,1,-11,1,4,1,7,1,9,1,-13,1,-21,1,2,1,-2,1
990,-13,1,-4,1,9,1,8,1,-11,1,2,1,8,1,10,1,-12,1,-19,1,2,1,0,1
991,-13,1,-4,1,9,1,8,1,-11,1,2,1,7,1,12,1,-12,1,-19,1,2,1,0,1
992,-12,1,-4,1,8,1,8,1,-10,1,2,1,7,1,12,1,-12,1,-17,1,3,1,0,1
993,-13,1,-3,1,10,1,8,1,-12,1,3,1,8,1,13,1,-12,1,-17,1,4,1,-1,1
994,-13,1,-2,1,11,1,7,1,-12,1,4,1,8,1,14,1,-12,1,-17,1,4,1,-1,1
995,-11,1,-2,1,9,1,6,1,-10,1,3,1,8,1,15,1,-11,1,-16,1,5,1,0,1
996,-9,1,-2,1,7,1,5,1,-8,1,2,1,8,1,15,1,-11,1,-16,1,5,1,0,1
997,-11,1,-2,1,9,1,6,1,-10,1,3,1,8,1,16,1,-9,1,-15,1,6,1,0,1
998,-10,1,-1,1,9,1,5,1,-10,1,4,1,9,1,18,1,-9,1,-14,1,6,1,1,1
999,-10,1,-1,1,9,1,5,1,-10,1,4,1,8,1,18,1,-10,1,-14,1,7,1,1,1
1000,-10,1,0,1,10,1,5,1,-10,1,5,1,8,1,19,1,-9,1,-14,1,8,1,1,1
1001,-11,1,0,1,11,1,5,1,-11,1,5,1,8,1,18,1,-9,1,-14,1,7,1,0,1
1002,-8,1,0,1,8,1,4,1,-8,1,4,1,7,1,19,1,-8,1,-14,1,7,1,0,1
1003,-9,1,0,1,9,1,4,1,-9,1,4,1,7,1,20,1,-8,1,-13,1,8,1,0,1
1004,-8,1,-2,1,6,1,5,1,-7,1,2,1,7,1,21,1,-7,1,-13,1,8,1,-1,1
1005,-8,1,-2,1,6,1,5,1,-7,1,2,1,7,1,22,1,-7,1,-13,1,9,1,-1,1
1006,-11,1,0,1,11,1,5,1,-11,1,5,1,8,1,24,1,-6,1,-12,1,9,1,0,1
1007,-11,1,1,1,12,1,5,1,-11,1,6,1,8,1,24,1,-6,1,-11,1,11,1,0,1
1008,-9,1,4,1,13,1,2,1,-11,1,8,1,9,1,26,1,-4,1,-10,1,12,1,1,1
1009,-8,1,1,1,9,1,3,1,-8,1,5,1,9,1,25,1,-4,1,-11,1,12,1,1,1
1010,-5,1,2,1,7,1,1,1,-6,1,4,1,8,1,26,1,-4,1,-10,1,12,1,0,1
1011,-7,1,2,1,9,1,2,1,-8,1,5,1,9,1,28,1,-2,1,-8,1,14,1,1,1
1012,-9,1,2,1,11,1,3,1,-10,1,6,1,9,1,30,1,-1,1,-7,1,15,1,1,1
1013,-8,1,1,1,9,1,3,1,-8,1,5,1,10,1,30,1,-1,1,-7,1,15,1,2,1
1014,-7,1,1,1,8,1,3,1,-7,1,4,1,11,1,31,1,0,1,-6,1,14,1,4,1
1015,-6,1,1,1,7,1,2,1,-6,1,4,1,10,1,32,1,2,1,-4,1,17,1,5,1
1016,-6,1,1,1,7,1,2,1,-6,1,4,1,11,1,33,1,2,1,-4,1,18,1,5,1
1017,-5,1,2,1,7,1,1,1,-6,1,4,1,10,1,35,1,3,1,-3,1,18,1,6,1
1018,-5,1,2,1,7,1,1,1,-6,1,4,1,11,1,36,1,5,1,-3,1,19,1,6,1
1019,-4,1,2,1,6,1,1,1,-5,1,4,1,12,1,37,1,6,1,-1,1,20,1,7,1
1020,-4,1,3,1,7,1,0,1,-5,1,5,1,13,1,39,1,8,1,0,1,20,1,8,1
1021,-2,1,3,1,5,1,0,1,-3,1,4,1,12,1,41,1,8,1,0,1,20,1,7,1
1022,-2,1,5,1,7,1,-1,1,-4,1,6,1,12,1,41,1,9,1,1,1,19,1,7,1
1023,-3,1,7,1,10,1,-2,1,-6,1,8,1,13,1,42,1,11,1,1,1,20,1,8,1
1024,-4,1,6,1,10,1,-1,1,-7,1,8,1,14,1,43,1,13,1,3,1,21,1,9,1
1025,-1,1,8,1,9,1,-3,1,-5,1,8,1,13,1,44,1,14,1,3,1,21,1,9,1
1026,-1,1,7,1,8,1,-3,1,-4,1,7,1,13,1,46,1,15,1,4,1,22,1,9,1
1027,-3,1,7,1,10,1,-2,1,-6,1,8,1,14,1,48,1,17,1,5,1,22,1,9,1
1028,-3,1,6,1,9,1,-1,1,-6,1,7,1,15,1,50,1,18,1,7,1,23,1,10,1
1029,-1,1,7,1,8,1,-3,1,-4,1,7,1,13,1,51,1,19,1,7,1,23,1,11,1
1030,-1,1,7,1,8,1,-3,1,-4,1,7,1,13,1,51,1,22,1,8,1,24,1,12,1
1031,0,1,6,1,6,1,-3,1,-3,1,6,1,14,1,54,1,24,1,10,1,26,1,13,1
1032,2,1,8,1,6,1,-5,1,-2,1,7,1,13,1,56,1,25,1,10,1,24,1,13,1
1033,2,1,10,1,8,1,-6,1,-3,1,9,1,13,1,57,1,25,1,10,1,24,1,12,1
1034,2,1,12,1,10,1,-7,1,-4,1,11,1,14,1,58,1,27,1,12,1,24,1,13,1
1035,4,1,12,1,8,1,-8,1,-2,1,10,1,14,1,61,1,31,1,14,1,25,1,14,1
1036,6,1,14,1,8,1,-10,1,-1,1,11,1,15,1,63,1,32,1,16,1,26,1,15,1
1037,6,1,16,1,10,1,-11,1,-2,1,13,1,14,1,65,1,32,1,16,1,26,1,15,1
1038,5,1,16,1,11,1,-10,1,-3,1,14,1,14,1,68,1,35,1,17,1,27,1,15,1
1039,5,1,16,1,11,1,-10,1,-3,1,14,1,15,1,70,1,37,1,19,1,29,1,17,1
1040,6,1,15,1,9,1,-10,1,-1,1,12,1,17,1,72,1,38,1,21,1,31,1,18,1
1041,6,1,16,1,10,1,-11,1,-2,1,13,1,18,1,74,1,41,1,23,1,32,1,19,1
1042,8,1,18,1,10,1,-13,1,-1,1,14,1,18,1,76,1,44,1,25,1,34,1,21,1
1043,9,1,19,1,10,1,-14,1,0,1,15,1,19,1,79,1,46,1,27,1,35,1,21,1
1044,10,1,20,1,10,1,-15,1,0,1,15,1,18,1,79,1,47,1,28,1,35,1,23,1
1045,10,1,21,1,11,1,-15,1,0,1,16,1,19,1,82,1,48,1,31,1,36,1,25,1
1046,12,1,22,1,10,1,-17,1,1,1,16,1,18,1,84,1,51,1,32,1,38,1,25,1
1047,15,1,24,1,9,1,-19,1,3,1,17,1,18,1,87,1,54,1,34,1,39,1,25,1
1048,13,1,25,1,12,1,-19,1,1,1,19,1,19,1,90,1,56,1,37,1,41,1,26,1
1049,15,1,26,1,11,1,-20,1,2,1,19,1,19,1,92,1,58,1,38,1,42,1,26,1
1050,15,1,26,1,11,1,-20,1,2,1,19,1,19,1,94,1,60,1,39,1,43,1,26,1
1051,16,1,28,1,12,1,-22,1,2,1,20,1,19,1,97,1,63,1,41,1,44,1,29,1
1052,18,1,31,1,13,1,-24,1,3,1,22,1,19,1,101,1,67,1,45,1,46,1,31,1
1053,18,1,32,1,14,1,-25,1,2,1,23,1,21,1,104,1,70,1,48,1,48,1,32,1
1054,19,1,32,1,13,1,-25,1,3,1,23,1,21,1,107,1,73,1,49,1,49,1,33,1
1055,20,1,33,1,13,1,-26,1,4,1,23,1,21,1,109,1,74,1,51,1,50,1,34,1
1056,21,1,35,1,14,1,-28,1,4,1,25,1,20,1,111,1,75,1,52,1,51,1,35,1
1057,22,1,35,1,13,1,-28,1,5,1,24,1,21,1,114,1,79,1,55,1,52,1,35,1
1058,23,1,36,1,13,1,-29,1,5,1,25,1,22,1,116,1,81,1,57,1,54,1,38,1
1059,24,1,37,1,13,1,-30,1,6,1,25,1,22,1,118,1,82,1,58,1,55,1,40,1
1060,23,1,37,1,14,1,-30,1,5,1,26,1,21,1,121,1,84,1,61,1,55,1,40,1
1061,23,1,39,1,16,1,-31,1,4,1,28,1,21,1,122,1,86,1,61,1,56,1,40,1
1062,25,1,39,1,14,1,-32,1,6,1,27,1,20,1,123,1,87,1,63,1,57,1,41,1
1063,26,1,41,1,15,1,-33,1,6,1,28,1,21,1,125,1,90,1,65,1,59,1,43,1
1064,28,1,43,1,15,1,-35,1,7,1,29,1,20,1,126,1,92,1,68,1,60,1,43,1
1065,29,1,44,1,15,1,-36,1,7,1,30,1,20,1,127,1,92,1,69,1,61,1,44,1
1066,29,1,45,1,16,1,-37,1,7,1,31,1,20,1,129,1,95,1,71,1,64,1,47,1
1067,29,1,47,1,18,1,-38,1,6,1,33,1,21,1,130,1,97,1,72,1,66,1,48,1
1068,29,1,48,1,19,1,-38,1,5,1,34,1,19,1,130,1,97,1,72,1,65,1,48,1
1069,29,1,49,1,20,1,-39,1,5,1,35,1,19,1,129,1,97,1,73,1,66,1,48,1
1070,27,1,50,1,23,1,-38,1,2,1,37,1,20,1,130,1,99,1,74,1,68,1,50,1
1071,29,1,53,1,24,1,-41,1,3,1,39,1,18,1,130,1,101,1,74,1,68,1,51,1
1072,31,1,54,1,23,1,-42,1,4,1,39,1,17,1,130,1,101,1,74,1,68,1,51,1
1073,31,1,53,1,22,1,-42,1,5,1,38,1,16,1,130,1,102,1,75,1,68,1,52,1
1074,29,1,52,1,23,1,-40,1,3,1,38,1,16,1,130,1,102,1,77,1,70,1,53,1
1075,26,1,50,1,24,1,-38,1,1,1,37,1,16,1,131,1,105,1,77,1,72,1,54,1
1076,27,1,53,1,26,1,-40,1,1,1,40,1,16,1,131,1,105,1,78,1,73,1,54,1
1077,32,1,55,1,23,1,-43,1,5,1,39,1,14,1,130,1,103,1,77,1,72,1,54,1
1078,34,1,55,1,21,1,-44,1,7,1,38,1,13,1,129,1,102,1,77,1,73,1,54,1
1079,32,1,54,1,22,1,-43,1,5,1,38,1,14,1,128,1,102,1,77,1,73,1,54,1
1080,31,1,54,1,23,1,-42,1,4,1,39,1,13,1,126,1,100,1,75,1,72,1,54,1
1081,30,1,54,1,24,1,-42,1,3,1,39,1,13,1,125,1,100,1,75,1,72,1,54,1
1082,32,1,56,1,24,1,-44,1,4,1,40,1,12,1,122,1,98,1,73,1,71,1,53,1
1083,30,1,56,1,26,1,-43,1,2,1,41,1,12,1,119,1,95,1,72,1,70,1,51,1
1084,28,1,54,1,26,1,-41,1,1,1,40,1,12,1,117,1,94,1,72,1,69,1,50,1
1085,27,1,52,1,25,1,-39,1,1,1,39,1,12,1,114,1,93,1,70,1,69,1,49,1
1086,26,1,51,1,25,1,-38,1,1,1,38,1,12,1,110,1,88,1,67,1,66,1,50,1
1087,24,1,49,1,25,1,-36,1,0,1,37,1,12,1,107,1,87,1,67,1,65,1,50,1
1088,24,1,49,1,25,1,-36,1,0,1,37,1,11,1,103,1,83,1,64,1,62,1,48,1
1089,24,1,48,1,24,1,-36,1,0,1,36,1,10,1,97,1,78,1,60,1,58,1,45,1
1090,22,1,50,1,28,1,-36,1,-3,1,39,1,9,1,92,1,73,1,55,1,56,1,43,1
1091,21,1,52,1,31,1,-36,1,-5,1,42,1,7,1,85,1,67,1,50,1,52,1,39,1
1092,17,1,47,1,30,1,-32,1,-6,1,39,1,8,1,82,1,64,1,49,1,52,1,40,1
1093,15,1,41,1,26,1,-28,1,-5,1,34,1,9,1,77,1,60,1,47,1,50,1,39,1
1094,14,1,38,1,24,1,-26,1,-5,1,31,1,9,1,72,1,55,1,42,1,47,1,36,1
1095,13,1,36,1,23,1,-24,1,-5,1,30,1,8,1,67,1,51,1,38,1,44,1,34,1
1096,10,1,35,1,25,1,-22,1,-7,1,30,1,7,1,61,1,46,1,35,1,40,1,32,1
1097,9,1,32,1,23,1,-20,1,-7,1,28,1,7,1,56,1,41,1,31,1,36,1,29,1
1098,7,1,29,1,22,1,-18,1,-7,1,26,1,7,1,50,1,37,1,26,1,31,1,27,1
1099,5,1,27,1,22,1,-16,1,-8,1,25,1,6,1,46,1,32,1,22,1,29,1,25,1
1100,4,1,25,1,21,1,-14,1,-8,1,23,1,6,1,42,1,27,1,18,1,25,1,23,1
1101,2,1,24,1,22,1,-13,1,-10,1,23,1,5,1,38,1,22,1,15,1,23,1,22,1
1102,-1,1,20,1,21,1,-9,1,-11,1,20,1,5,1,32,1,18,1,10,1,20,1,20,1
1103,-2,1,18,1,20,1,-8,1,-11,1,19,1,4,1,27,1,12,1,5,1,17,1,15,1
1104,-2,1,17,1,19,1,-7,1,-10,1,18,1,3,1,22,1,7,1,1,1,13,1,12,1
1105,-4,1,16,1,20,1,-6,1,-12,1,18,1,2,1,19,1,3,1,-3,1,10,1,12,1
1106,-5,1,14,1,19,1,-4,1,-12,1,16,1,2,1,15,1,0,1,-5,1,8,1,11,1
1107,-5,1,12,1,17,1,-3,1,-11,1,14,1,2,1,11,1,-3,1,-6,1,6,1,9,1
1108,-8,1,11,1,19,1,-1,1,-13,1,15,1,3,1,9,1,-5,1,-8,1,5,1,9,1
1109,-7,1,10,1,17,1,-1,1,-12,1,13,1,0,1,5,1,-9,1,-12,1,3,1,7,1
1110,-10,1,6,1,16,1,2,1,-13,1,11,1,0,1,2,1,-12,1,-15,1,2,1,7,1
1111,-11,1,6,1,17,1,2,1,-14,1,11,1,0,1,0,1,-15,1,-16,1,0,1,5,1
1112,-12,1,4,1,16,1,4,1,-14,1,10,1,0,1,-3,1,-18,1,-20,1,-2,1,4,1
1113,-10,1,4,1,14,1,3,1,-12,1,9,1,-2,1,-4,1,-21,1,-22,1,-3,1,3,1
1114,-12,1,2,1,14,1,5,1,-13,1,8,1,-2,1,-7,1,-23,1,-23,1,-4,1,3,1
1115,-12,1,2,1,14,1,5,1,-13,1,8,1,0,1,-8,1,-24,1,-24,1,-5,1,2,1
1116,-13,1,1,1,14,1,6,1,-13,1,7,1,0,1,-11,1,-26,1,-26,1,-6,1,1,1
1117,-15,1,1,1,16,1,7,1,-15,1,8,1,-1,1,-13,1,-27,1,-27,1,-7,1,0,1
1118,-15,1,0,1,15,1,7,1,-15,1,7,1,-1,1,-14,1,-30,1,-28,1,-9,1,0,1
1119,-15,1,-3,1,12,1,9,1,-14,1,4,1,-2,1,-14,1,-30,1,-29,1,-10,1,0,1
1120,-18,1,-4,1,14,1,11,1,-16,1,5,1,-2,1,-16,1,-32,1,-30,1,-11,1,-2,1
1121,-20,1,-7,1,13,1,13,1,-17,1,3,1,-1,1,-17,1,-33,1,-31,1,-12,1,-3,1
1122,-20,1,-8,1,12,1,14,1,-16,1,2,1,-1,1,-17,1,-33,1,-30,1,-12,1,-3,1
1123,-17,1,-5,1,12,1,11,1,-15,1,3,1,-1,1,-17,1,-34,1,-31,1,-12,1,-3,1
1124,-16,1,-5,1,11,1,10,1,-14,1,3,1,0,1,-18,1,-34,1,-32,1,-12,1,-2,1
1125,-20,1,-9,1,11,1,14,1,-16,1,1,1,-1,1,-19,1,-35,1,-34,1,-12,1,-3,1
1126,-19,1,-9,1,10,1,14,1,-15,1,0,1,-3,1,-19,1,-36,1,-35,1,-14,1,-4,1
1127,-16,1,-7,1,9,1,11,1,-13,1,1,1,-3,1,-20,1,-36,1,-34,1,-13,1,-3,1
1128,-15,1,-6,1,9,1,10,1,-12,1,1,1,-3,1,-20,1,-35,1,-32,1,-12,1,-3,1
1129,-15,1,-4,1,11,1,9,1,-13,1,3,1,-4,1,-21,1,-35,1,-34,1,-12,1,-4,1
1130,-17,1,-3,1,14,1,10,1,-16,1,5,1,-4,1,-22,1,-37,1,-36,1,-15,1,-6,1
1131,-17,1,-5,1,12,1,11,1,-15,1,3,1,-5,1,-24,1,-38,1,-36,1,-17,1,-6,1
1132,-17,1,-7,1,10,1,12,1,-14,1,1,1,-3,1,-21,1,-38,1,-36,1,-17,1,-6,1
1133,-17,1,-7,1,10,1,12,1,-14,1,1,1,-3,1,-21,1,-38,1,-35,1,-15,1,-5,1
1134,-18,1,-6,1,12,1,12,1,-15,1,3,1,-2,1,-22,1,-38,1,-35,1,-15,1,-5,1
1135,-15,1,-6,1,9,1,10,1,-12,1,1,1,-2,1,-22,1,-38,1,-36,1,-16,1,-6,1
1136,-15,1,-6,1,9,1,10,1,-12,1,1,1,-4,1,-22,1,-38,1,-36,1,-16,1,-5,1
1137,-15,1,-6,1,9,1,10,1,-12,1,1,1,-5,1,-22,1,-38,1,-35,1,-14,1,-4,1
1138,-16,1,-7,1,9,1,11,1,-13,1,1,1,-3,1,-21,1,-37,1,-34,1,-14,1,-4,1
1139,-15,1,-6,1,9,1,10,1,-12,1,1,1,-3,1,-21,1,-38,1,-36,1,-15,1,-5,1
1140,-16,1,-4,1,12,1,10,1,-14,1,4,1,-5,1,-21,1,-39,1,-38,1,-16,1,-7,1
1141,-16,1,-5,1,11,1,10,1,-14,1,3,1,-4,1,-22,1,-39,1,-37,1,-16,1,-6,1
1142,-18,1,-7,1,11,1,12,1,-15,1,2,1,-2,1,-22,1,-38,1,-37,1,-16,1,-6,1
1143,-15,1,-7,1,8,1,11,1,-12,1,0,1,-3,1,-22,1,-39,1,-37,1,-17,1,-6,1
1144,-14,1,-5,1,9,1,9,1,-12,1,2,1,-3,1,-21,1,-39,1,-36,1,-16,1,-6,1
1145,-14,1,-5,1,9,1,9,1,-12,1,2,1,-2,1,-20,1,-37,1,-36,1,-17,1,-5,1
1146,-17,1,-4,1,13,1,10,1,-15,1,4,1,-2,1,-20,1,-36,1,-36,1,-17,1,-5,1
1147,-15,1,-2,1,13,1,8,1,-14,1,5,1,-3,1,-21,1,-38,1,-38,1,-19,1,-9,1
1148,-14,1,-2,1,12,1,8,1,-13,1,5,1,-3,1,-21,1,-37,1,-36,1,-19,1,-9,1
1149,-14,1,-4,1,10,1,9,1,-12,1,3,1,-3,1,-22,1,-37,1,-36,1,-19,1,-8,1
1150,-15,1,-5,1,10,1,10,1,-13,1,2,1,-2,1,-21,1,-36,1,-36,1,-18,1,-7,1
1151,-15,1,-5,1,10,1,10,1,-13,1,2,1,-1,1,-19,1,-36,1,-36,1,-19,1,-7,1
1152,-14,1,-6,1,8,1,10,1,-11,1,1,1,-1,1,-18,1,-35,1,-34,1,-17,1,-7,1
1153,-15,1,-6,1,9,1,10,1,-12,1,1,1,-2,1,-18,1,-35,1,-34,1,-17,1,-7,1
1154,-15,1,-7,1,8,1,11,1,-12,1,0,1,-3,1,-18,1,-35,1,-35,1,-19,1,-9,1
1155,-14,1,-7,1,7,1,10,1,-11,1,0,1,-1,1,-17,1,-34,1,-34,1,-18,1,-7,1
1156,-13,1,-7,1,6,1,10,1,-10,1,-1,1,-2,1,-18,1,-35,1,-36,1,-18,1,-7,1
1157,-13,1,-6,1,7,1,9,1,-10,1,0,1,-2,1,-18,1,-34,1,-35,1,-17,1,-7,1
1158,-13,1,-6,1,7,1,9,1,-10,1,0,1,-3,1,-18,1,-34,1,-35,1,-17,1,-7,1
1159,-12,1,-6,1,6,1,9,1,-9,1,0,1,-3,1,-16,1,-35,1,-34,1,-18,1,-7,1
1160,-13,1,-5,1,8,1,9,1,-11,1,1,1,-2,1,-16,1,-34,1,-32,1,-16,1,-6,1
1161,-14,1,-6,1,8,1,10,1,-11,1,1,1,-2,1,-16,1,-34,1,-33,1,-16,1,-6,1
1162,-13,1,-5,1,8,1,9,1,-11,1,1,1,-2,1,-16,1,-34,1,-33,1,-17,1,-6,1
1163,-12,1,-5,1,7,1,8,1,-10,1,1,1,-2,1,-16,1,-33,1,-33,1,-17,1,-6,1
1164,-13,1,-5,1,8,1,9,1,-11,1,1,1,-1,1,-15,1,-32,1,-31,1,-16,1,-5,1
1165,-13,1,-6,1,7,1,9,1,-10,1,0,1,-2,1,-15,1,-33,1,-32,1,-16,1,-6,1
1166,-11,1,-6,1,5,1,8,1,-8,1,-1,1,-3,1,-16,1,-33,1,-33,1,-15,1,-7,1
1167,-13,1,-6,1,7,1,9,1,-10,1,0,1,-1,1,-14,1,-33,1,-34,1,-15,1,-6,1
1168,-13,1,-6,1,7,1,9,1,-10,1,0,1,0,1,-15,1,-32,1,-33,1,-14,1,-6,1
1169,-14,1,-6,1,8,1,10,1,-11,1,1,1,0,1,-15,1,-32,1,-32,1,-13,1,-6,1
1170,-15,1,-5,1,10,1,10,1,-13,1,2,1,0,1,-15,1,-32,1,-32,1,-13,1,-6,1
1171,-14,1,-3,1,11,1,8,1,-13,1,4,1,-1,1,-15,1,-32,1,-32,1,-13,1,-7,1
1172,-14,1,-3,1,11,1,8,1,-13,1,4,1,-2,1,-15,1,-32,1,-32,1,-14,1,-7,1
1173,-14,1,-5,1,9,1,9,1,-12,1,2,1,-1,1,-14,1,-30,1,-31,1,-13,1,-7,1
1174,-13,1,-5,1,8,1,9,1,-11,1,1,1,-1,1,-14,1,-31,1,-31,1,-13,1,-7,1
1175,-14,1,-7,1,7,1,10,1,-11,1,0,1,-1,1,-16,1,-32,1,-30,1,-13,1,-7,1
1176,-13,1,-7,1,6,1,10,1,-10,1,-1,1,-2,1,-15,1,-31,1,-30,1,-13,1,-5,1
1177,-13,1,-7,1,6,1,10,1,-10,1,-1,1,-1,1,-15,1,-31,1,-30,1,-12,1,-5,1
1178,-14,1,-8,1,6,1,11,1,-10,1,-1,1,-1,1,-14,1,-30,1,-30,1,-11,1,-5,1
1179,-15,1,-7,1,8,1,11,1,-12,1,0,1,-1,1,-15,1,-31,1,-31,1,-11,1,-5,1
1180,-13,1,-8,1,5,1,10,1,-9,1,-2,1,-2,1,-14,1,-31,1,-31,1,-11,1,-5,1
1181,-13,1,-8,1,5,1,10,1,-9,1,-2,1,-2,1,-15,1,-31,1,-31,1,-11,1,-5,1
1182,-12,1,-8,1,4,1,10,1,-8,1,-2,1,-3,1,-17,1,-31,1,-31,1,-11,1,-5,1
1183,-12,1,-9,1,3,1,10,1,-8,1,-3,1,-4,1,-16,1,-31,1,-31,1,-12,1,-7,1
1184,-14,1,-8,1,6,1,11,1,-10,1,-1,1,-4,1,-15,1,-32,1,-31,1,-12,1,-6,1
1185,-14,1,-6,1,8,1,10,1,-11,1,1,1,-4,1,-15,1,-30,1,-31,1,-12,1,-7,1
1186,-14,1,-6,1,8,1,10,1,-11,1,1,1,-4,1,-15,1,-30,1,-31,1,-13,1,-7,1
1187,-14,1,-7,1,7,1,10,1,-11,1,0,1,-4,1,-18,1,-32,1,-32,1,-14,1,-8,1
1188,-16,1,-7,1,9,1,11,1,-13,1,1,1,-4,1,-18,1,-32,1,-33,1,-14,1,-8,1
1189,-14,1,-6,1,8,1,10,1,-11,1,1,1,-5,1,-19,1,-34,1,-34,1,-15,1,-10,1
1190,-13,1,-6,1,7,1,9,1,-10,1,0,1,-5,1,-20,1,-35,1,-35,1,-16,1,-11,1
1191,-15,1,-6,1,9,1,10,1,-12,1,1,1,-5,1,-20,1,-35,1,-36,1,-16,1,-11,1
1192,-18,1,-7,1,11,1,12,1,-15,1,2,1,-3,1,-19,1,-33,1,-34,1,-15,1,-10,1
1193,-18,1,-10,1,8,1,14,1,-13,1,-1,1,-2,1,-19,1,-33,1,-35,1,-14,1,-10,1
1194,-17,1,-11,1,6,1,14,1,-12,1,-3,1,-1,1,-18,1,-34,1,-36,1,-15,1,-10,1
1195,-16,1,-11,1,5,1,13,1,-11,1,-3,1,-1,1,-19,1,-34,1,-35,1,-14,1,-9,1
1196,-16,1,-10,1,6,1,13,1,-11,1,-2,1,-1,1,-20,1,-34,1,-34,1,-14,1,-9,1
1197,-16,1,-7,1,9,1,11,1,-13,1,1,1,-3,1,-21,1,-35,1,-36,1,-16,1,-10,1
1198,-16,1,-9,1,7,1,12,1,-12,1,-1,1,-4,1,-21,1,-35,1,-34,1,-16,1,-11,1
1199,-16,1,-11,1,5,1,13,1,-11,1,-3,1,-5,1,-20,1,-37,1,-36,1,-17,1,-11,1
1200,-16,1,-11,1,5,1,13,1,-11,1,-3,1,-6,1,-21,1,-37,1,-37,1,-18,1,-12,1
1201,-15,1,-9,1,6,1,12,1,-11,1,-2,1,-5,1,-22,1,-37,1,-36,1,-18,1,-11,1
1202,-15,1,-8,1,7,1,11,1,-11,1,-1,1,-6,1,-22,1,-38,1,-36,1,-18,1,-11,1
1203,-16,1,-10,1,6,1,13,1,-11,1,-2,1,-6,1,-24,1,-40,1,-37,1,-18,1,-11,1
1204,-16,1,-12,1,4,1,14,1,-10,1,-4,1,-5,1,-23,1,-38,1,-36,1,-17,1,-11,1
1205,-18,1,-12,1,6,1,15,1,-12,1,-3,1,-5,1,-24,1,-39,1,-37,1,-18,1,-12,1
1206,-20,1,-12,1,8,1,16,1,-14,1,-2,1,-4,1,-24,1,-38,1,-36,1,-18,1,-12,1
1207,-18,1,-10,1,8,1,14,1,-13,1,-1,1,-5,1,-24,1,-37,1,-36,1,-18,1,-12,1
1208,-16,1,-9,1,7,1,12,1,-12,1,-1,1,-6,1,-25,1,-39,1,-36,1,-19,1,-13,1
1209,-16,1,-11,1,5,1,13,1,-11,1,-3,1,-6,1,-27,1,-39,1,-35,1,-19,1,-12,1
1210,-16,1,-11,1,5,1,13,1,-11,1,-3,1,-8,1,-28,1,-41,1,-36,1,-19,1,-14,1
1211,-18,1,-11,1,7,1,14,1,-13,1,-2,1,-7,1,-26,1,-39,1,-35,1,-18,1,-12,1
1212,-19,1,-15,1,4,1,17,1,-12,1,-6,1,-7,1,-27,1,-39,1,-34,1,-16,1,-12,1
1213,-19,1,-14,1,5,1,16,1,-12,1,-5,1,-7,1,-28,1,-41,1,-35,1,-18,1,-14,1
1214,-20,1,-11,1,9,1,15,1,-15,1,-1,1,-6,1,-26,1,-41,1,-35,1,-19,1,-15,1
1215,-19,1,-11,1,8,1,15,1,-14,1,-2,1,-8,1,-27,1,-42,1,-36,1,-19,1,-15,1
1216,-19,1,-11,1,8,1,15,1,-14,1,-2,1,-9,1,-28,1,-42,1,-37,1,-20,1,-15,1
1217,-20,1,-11,1,9,1,15,1,-15,1,-1,1,-8,1,-28,1,-42,1,-36,1,-19,1,-14,1
1218,-21,1,-12,1,9,1,16,1,-15,1,-2,1,-7,1,-28,1,-42,1,-36,1,-19,1,-13,1
1219,-18,1,-13,1,5,1,15,1,-12,1,-4,1,-9,1,-30,1,-43,1,-37,1,-19,1,-15,1
1220,-19,1,-13,1,6,1,16,1,-13,1,-4,1,-8,1,-29,1,-43,1,-37,1,-19,1,-14,1
1221,-21,1,-14,1,7,1,17,1,-14,1,-4,1,-8,1,-29,1,-43,1,-37,1,-19,1,-13,1
1222,-21,1,-15,1,6,1,18,1,-14,1,-5,1,-7,1,-30,1,-44,1,-37,1,-19,1,-13,1
1223,-22,1,-16,1,6,1,19,1,-14,1,-5,1,-6,1,-30,1,-42,1,-36,1,-19,1,-12,1
1224,-21,1,-16,1,5,1,18,1,-13,1,-6,1,-6,1,-30,1,-41,1,-35,1,-18,1,-12,1
1225,-18,1,-15,1,3,1,16,1,-11,1,-6,1,-6,1,-31,1,-42,1,-35,1,-19,1,-13,1
1226,-19,1,-17,1,2,1,18,1,-11,1,-8,1,-7,1,-31,1,-42,1,-36,1,-19,1,-14,1
1227,-19,1,-17,1,2,1,18,1,-11,1,-8,1,-6,1,-32,1,-42,1,-36,1,-19,1,-14,1
1228,-20,1,-17,1,3,1,18,1,-12,1,-7,1,-7,1,-32,1,-42,1,-35,1,-20,1,-15,1
1229,-20,1,-15,1,5,1,17,1,-13,1,-5,1,-8,1,-33,1,-43,1,-36,1,-22,1,-16,1
1230,-23,1,-16,1,7,1,19,1,-15,1,-5,1,-8,1,-32,1,-42,1,-36,1,-23,1,-16,1
1231,-23,1,-17,1,6,1,20,1,-15,1,-6,1,-8,1,-33,1,-43,1,-36,1,-23,1,-17,1
1232,-22,1,-16,1,6,1,19,1,-14,1,-5,1,-9,1,-33,1,-43,1,-37,1,-23,1,-18,1
1233,-21,1,-15,1,6,1,18,1,-14,1,-5,1,-8,1,-33,1,-43,1,-37,1,-23,1,-17,1
1234,-20,1,-15,1,5,1,17,1,-13,1,-5,1,-8,1,-33,1,-42,1,-36,1,-21,1,-16,1
1235,-21,1,-15,1,6,1,18,1,-14,1,-5,1,-8,1,-33,1,-43,1,-36,1,-21,1,-15,1
1236,-21,1,-16,1,5,1,18,1,-13,1,-6,1,-9,1,-34,1,-43,1,-36,1,-23,1,-16,1
1237,-21,1,-14,1,7,1,17,1,-14,1,-4,1,-9,1,-35,1,-44,1,-36,1,-23,1,-16,1
1238,-21,1,-11,1,10,1,16,1,-16,1,-1,1,-10,1,-36,1,-45,1,-37,1,-24,1,-18,1
1239,-22,1,-14,1,8,1,18,1,-15,1,-3,1,-9,1,-36,1,-45,1,-37,1,-22,1,-16,1
1240,-22,1,-19,1,3,1,20,1,-13,1,-8,1,-8,1,-34,1,-43,1,-36,1,-22,1,-16,1
1241,-22,1,-18,1,4,1,20,1,-13,1,-7,1,-9,1,-35,1,-43,1,-35,1,-21,1,-16,1
1242,-21,1,-17,1,4,1,19,1,-13,1,-7,1,-7,1,-35,1,-43,1,-34,1,-21,1,-15,1
1243,-21,1,-16,1,5,1,18,1,-13,1,-6,1,-7,1,-34,1,-43,1,-35,1,-22,1,-15,1
1244,-22,1,-17,1,5,1,19,1,-14,1,-6,1,-9,1,-34,1,-44,1,-36,1,-22,1,-15,1
1245,-20,1,-16,1,4,1,18,1,-12,1,-6,1,-10,1,-36,1,-44,1,-37,1,-23,1,-16,1
1246,-21,1,-16,1,5,1,18,1,-13,1,-6,1,-9,1,-37,1,-43,1,-37,1,-23,1,-16,1
1247,-21,1,-17,1,4,1,19,1,-13,1,-7,1,-8,1,-36,1,-44,1,-36,1,-22,1,-16,1
1248,-23,1,-17,1,6,1,20,1,-15,1,-6,1,-9,1,-37,1,-45,1,-36,1,-22,1,-17,1
1249,-23,1,-17,1,6,1,20,1,-15,1,-6,1,-9,1,-38,1,-45,1,-36,1,-22,1,-16,1
1250,-25,1,-18,1,7,1,21,1,-16,1,-6,1,-7,1,-38,1,-44,1,-35,1,-21,1,-16,1
1251,-23,1,-18,1,5,1,20,1,-14,1,-7,1,-8,1,-37,1,-44,1,-35,1,-21,1,-15,1
1252,-23,1,-19,1,4,1,21,1,-14,1,-8,1,-9,1,-36,1,-44,1,-34,1,-21,1,-16,1
1253,-23,1,-21,1,2,1,22,1,-13,1,-10,1,-9,1,-36,1,-44,1,-35,1,-21,1,-16,1
1254,-22,1,-20,1,2,1,21,1,-12,1,-9,1,-9,1,-36,1,-42,1,-35,1,-21,1,-17,1
1255,-22,1,-16,1,6,1,19,1,-14,1,-5,1,-9,1,-36,1,-42,1,-35,1,-21,1,-17,1
1256,-21,1,-16,1,5,1,18,1,-13,1,-6,1,-9,1,-36,1,-42,1,-35,1,-21,1,-16,1
1257,-19,1,-15,1,4,1,17,1,-12,1,-6,1,-9,1,-35,1,-43,1,-36,1,-22,1,-17,1
1258,-20,1,-16,1,4,1,18,1,-12,1,-6,1,-10,1,-35,1,-42,1,-35,1,-23,1,-17,1
1259,-20,1,-14,1,6,1,17,1,-13,1,-4,1,-9,1,-33,1,-42,1,-34,1,-22,1,-17,1
1260,-22,1,-13,1,9,1,17,1,-16,1,-2,1,-9,1,-33,1,-41,1,-34,1,-22,1,-16,1
1261,-21,1,-14,1,7,1,17,1,-14,1,-4,1,-9,1,-34,1,-42,1,-35,1,-22,1,-17,1
1262,-21,1,-15,1,6,1,18,1,-14,1,-5,1,-10,1,-34,1,-43,1,-36,1,-23,1,-18,1
1263,-20,1,-14,1,6,1,17,1,-13,1,-4,1,-9,1,-33,1,-41,1,-34,1,-22,1,-17,1
1264,-20,1,-13,1,7,1,16,1,-14,1,-3,1,-8,1,-32,1,-41,1,-34,1,-22,1,-17,1
1265,-20,1,-11,1,9,1,15,1,-15,1,-1,1,-7,1,-32,1,-40,1,-32,1,-22,1,-17,1
1266,-19,1,-9,1,10,1,14,1,-15,1,0,1,-6,1,-30,1,-40,1,-32,1,-21,1,-18,1
1267,-19,1,-8,1,11,1,13,1,-15,1,1,1,-5,1,-29,1,-38,1,-31,1,-20,1,-17,1
1268,-19,1,-7,1,12,1,13,1,-16,1,2,1,-3,1,-29,1,-37,1,-30,1,-19,1,-16,1
1269,-20,1,-6,1,14,1,13,1,-17,1,4,1,-3,1,-29,1,-37,1,-31,1,-17,1,-15,1
1270,-18,1,-5,1,13,1,11,1,-16,1,4,1,-3,1,-28,1,-36,1,-30,1,-16,1,-15,1
1271,-18,1,-6,1,12,1,12,1,-15,1,3,1,-5,1,-27,1,-36,1,-30,1,-17,1,-13,1
1272,-17,1,-7,1,10,1,12,1,-14,1,1,1,-5,1,-26,1,-37,1,-30,1,-16,1,-13,1
1273,-17,1,-6,1,11,1,11,1,-14,1,2,1,-5,1,-27,1,-37,1,-30,1,-16,1,-13,1
1274,-18,1,-6,1,12,1,12,1,-15,1,3,1,-5,1,-27,1,-37,1,-32,1,-18,1,-15,1
1275,-18,1,-6,1,12,1,12,1,-15,1,3,1,-6,1,-27,1,-38,1,-33,1,-19,1,-16,1
1276,-16,1,-4,1,12,1,10,1,-14,1,4,1,-9,1,-30,1,-40,1,-33,1,-20,1,-17,1
1277,-16,1,-9,1,7,1,12,1,-12,1,-1,1,-8,1,-28,1,-38,1,-32,1,-17,1,-15,1
1278,-13,1,-12,1,1,1,12,1,-7,1,-6,1,-8,1,-25,1,-36,1,-30,1,-15,1,-12,1
1279,-13,1,-11,1,2,1,12,1,-8,1,-5,1,-8,1,-24,1,-33,1,-29,1,-14,1,-11,1
1280,-12,1,-9,1,3,1,10,1,-8,1,-3,1,-10,1,-24,1,-33,1,-27,1,-13,1,-9,1
1281,-11,1,-5,1,6,1,8,1,-9,1,0,1,-10,1,-24,1,-33,1,-26,1,-11,1,-9,1
1282,-11,1,-4,1,7,1,7,1,-9,1,1,1,-10,1,-23,1,-32,1,-25,1,-10,1,-8,1
1283,-9,1,-4,1,5,1,6,1,-7,1,0,1,-11,1,-24,1,-32,1,-26,1,-10,1,-9,1
1284,-9,1,-3,1,6,1,6,1,-8,1,1,1,-12,1,-25,1,-31,1,-26,1,-10,1,-9,1
1285,-9,1,-2,1,7,1,5,1,-8,1,2,1,-14,1,-26,1,-33,1,-27,1,-12,1,-10,1
1286,-9,1,-2,1,7,1,5,1,-8,1,2,1,-15,1,-29,1,-36,1,-30,1,-15,1,-12,1
1287,-11,1,-3,1,8,1,7,1,-10,1,2,1,-15,1,-29,1,-37,1,-31,1,-15,1,-12,1
1288,-9,1,-3,1,6,1,6,1,-8,1,1,1,-14,1,-29,1,-35,1,-31,1,-15,1,-11,1
1289,-9,1,-3,1,6,1,6,1,-8,1,1,1,-14,1,-28,1,-35,1,-31,1,-16,1,-12,1
1290,-10,1,-5,1,5,1,7,1,-8,1,0,1,-12,1,-27,1,-34,1,-29,1,-13,1,-10,1
1291,-8,1,-4,1,4,1,6,1,-6,1,0,1,-12,1,-26,1,-34,1,-30,1,-14,1,-11,1
1292,-11,1,-5,1,6,1,8,1,-9,1,0,1,-13,1,-26,1,-34,1,-30,1,-15,1,-12,1
1293,-10,1,-7,1,3,1,8,1,-7,1,-2,1,-12,1,-27,1,-34,1,-30,1,-15,1,-12,1
1294,-9,1,-8,1,1,1,8,1,-5,1,-4,1,-13,1,-27,1,-33,1,-29,1,-14,1,-10,1
1295,-9,1,-7,1,2,1,8,1,-6,1,-3,1,-15,1,-29,1,-36,1,-31,1,-14,1,-11,1
1296,-8,1,-5,1,3,1,6,1,-6,1,-1,1,-16,1,-30,1,-35,1,-30,1,-14,1,-11,1
1297,-9,1,-5,1,4,1,7,1,-7,1,-1,1,-15,1,-29,1,-35,1,-30,1,-14,1,-11,1
1298,-10,1,-7,1,3,1,8,1,-7,1,-2,1,-15,1,-31,1,-37,1,-31,1,-16,1,-12,1
1299,-9,1,-7,1,2,1,8,1,-6,1,-3,1,-16,1,-31,1,-37,1,-32,1,-16,1,-12,1
1300,-10,1,-9,1,1,1,9,1,-6,1,-4,1,-17,1,-30,1,-36,1,-31,1,-17,1,-12,1
1301,-12,1,-10,1,2,1,11,1,-7,1,-4,1,-15,1,-29,1,-35,1,-29,1,-16,1,-12,1
1302,-12,1,-10,1,2,1,11,1,-7,1,-4,1,-13,1,-28,1,-33,1,-30,1,-15,1,-12,1
1303,-13,1,-11,1,2,1,12,1,-8,1,-5,1,-13,1,-26,1,-32,1,-29,1,-15,1,-10,1
1304,-12,1,-12,1,0,1,12,1,-6,1,-6,1,-14,1,-26,1,-33,1,-29,1,-15,1,-11,1
1305,-13,1,-13,1,0,1,13,1,-7,1,-7,1,-13,1,-28,1,-33,1,-30,1,-14,1,-11,1
1306,-17,1,-15,1,2,1,16,1,-10,1,-7,1,-11,1,-28,1,-33,1,-30,1,-14,1,-11,1
1307,-18,1,-15,1,3,1,16,1,-11,1,-6,1,-10,1,-28,1,-31,1,-29,1,-12,1,-10,1
1308,-18,1,-15,1,3,1,16,1,-11,1,-6,1,-11,1,-28,1,-31,1,-29,1,-11,1,-11,1
1309,-20,1,-17,1,3,1,18,1,-12,1,-7,1,-9,1,-26,1,-31,1,-28,1,-11,1,-10,1
1310,-23,1,-18,1,5,1,20,1,-14,1,-7,1,-9,1,-27,1,-32,1,-30,1,-13,1,-12,1
1311,-23,1,-19,1,4,1,21,1,-14,1,-8,1,-9,1,-29,1,-34,1,-32,1,-14,1,-14,1
1312,-25,1,-18,1,7,1,21,1,-16,1,-6,1,-11,1,-31,1,-36,1,-34,1,-16,1,-15,1
1313,-25,1,-19,1,6,1,22,1,-16,1,-7,1,-11,1,-34,1,-36,1,-34,1,-17,1,-15,1
1314,-24,1,-22,1,2,1,23,1,-13,1,-10,1,-11,1,-34,1,-37,1,-33,1,-16,1,-16,1
1315,-26,1,-22,1,4,1,24,1,-15,1,-9,1,-11,1,-34,1,-37,1,-34,1,-16,1,-15,1
1316,-25,1,-21,1,4,1,23,1,-15,1,-9,1,-10,1,-36,1,-38,1,-34,1,-16,1,-15,1
1317,-27,1,-22,1,5,1,24,1,-16,1,-9,1,-12,1,-35,1,-38,1,-35,1,-17,1,-15,1
1318,-24,1,-22,1,2,1,23,1,-13,1,-10,1,-12,1,-35,1,-38,1,-35,1,-17,1,-16,1
1319,-22,1,-22,1,0,1,22,1,-11,1,-11,1,-12,1,-36,1,-39,1,-35,1,-17,1,-17,1
1320,-23,1,-25,1,-2,1,24,1,-11,1,-14,1,-11,1,-36,1,-39,1,-34,1,-16,1,-17,1
1321,-25,1,-24,1,1,1,24,1,-13,1,-12,1,-12,1,-37,1,-38,1,-34,1,-16,1,-17,1
1322,-23,1,-22,1,1,1,22,1,-12,1,-11,1,-12,1,-36,1,-38,1,-35,1,-16,1,-18,1
1323,-25,1,-22,1,3,1,23,1,-14,1,-10,1,-12,1,-35,1,-38,1,-33,1,-17,1,-18,1
1324,-28,1,-22,1,6,1,25,1,-17,1,-8,1,-11,1,-36,1,-39,1,-33,1,-17,1,-17,1
1325,-25,1,-23,1,2,1,24,1,-14,1,-11,1,-10,1,-37,1,-38,1,-33,1,-17,1,-17,1
1326,-24,1,-23,1,1,1,23,1,-13,1,-11,1,-10,1,-36,1,-37,1,-33,1,-16,1,-17,1
1327,-26,1,-22,1,4,1,24,1,-15,1,-9,1,-10,1,-36,1,-37,1,-33,1,-16,1,-17,1
1328,-26,1,-22,1,4,1,24,1,-15,1,-9,1,-11,1,-37,1,-38,1,-33,1,-17,1,-18,1
1329,-27,1,-24,1,3,1,25,1,-15,1,-11,1,-11,1,-37,1,-38,1,-33,1,-17,1,-17,1
1330,-29,1,-25,1,4,1,27,1,-17,1,-11,1,-11,1,-37,1,-38,1,-32,1,-17,1,-18,1
1331,-29,1,-25,1,4,1,27,1,-17,1,-11,1,-11,1,-37,1,-38,1,-31,1,-17,1,-17,1
1332,-28,1,-25,1,3,1,26,1,-16,1,-11,1,-11,1,-36,1,-38,1,-31,1,-17,1,-15,1
1333,-28,1,-24,1,4,1,26,1,-16,1,-10,1,-11,1,-36,1,-38,1,-31,1,-17,1,-17,1
1334,-28,1,-23,1,5,1,25,1,-17,1,-9,1,-11,1,-37,1,-39,1,-31,1,-17,1,-17,1
1335,-28,1,-23,1,5,1,25,1,-17,1,-9,1,-11,1,-36,1,-38,1,-31,1,-17,1,-18,1
1336,-30,1,-24,1,6,1,27,1,-18,1,-9,1,-12,1,-38,1,-38,1,-32,1,-17,1,-19,1
1337,-28,1,-24,1,4,1,26,1,-16,1,-10,1,-11,1,-38,1,-38,1,-32,1,-17,1,-19,1
1338,-28,1,-25,1,3,1,26,1,-16,1,-11,1,-11,1,-36,1,-38,1,-31,1,-17,1,-18,1
1339,-28,1,-24,1,4,1,26,1,-16,1,-10,1,-9,1,-37,1,-38,1,-32,1,-17,1,-18,1
1340,-28,1,-20,1,8,1,24,1,-18,1,-6,1,-9,1,-36,1,-38,1,-32,1,-17,1,-19,1
1341,-28,1,-18,1,10,1,23,1,-19,1,-4,1,-7,1,-34,1,-39,1,-33,1,-19,1,-22,1
1342,-30,1,-19,1,11,1,24,1,-21,1,-4,1,-2,1,-31,1,-37,1,-34,1,-22,1,-24,1
1343,-35,1,-20,1,15,1,27,1,-25,1,-3,1,6,1,-25,1,-35,1,-32,1,-21,1,-24,1
1344,-35,1,-19,1,16,1,27,1,-26,1,-2,1,14,1,-18,1,-33,1,-31,1,-18,1,-22,1
1345,-31,1,-17,1,14,1,24,1,-23,1,-2,1,17,1,-11,1,-27,1,-26,1,-14,1,-19,1
1346,-28,1,-16,1,12,1,22,1,-20,1,-2,1,20,1,-1,1,-19,1,-20,1,-10,1,-17,1
1347,-22,1,-16,1,6,1,19,1,-14,1,-5,1,28,1,21,1,-6,1,-9,1,-5,1,-13,1
1348,-14,1,-12,1,2,1,13,1,-8,1,-5,1,37,1,45,1,10,1,2,1,2,1,-10,1
1349,-7,1,-7,1,0,1,7,1,-4,1,-4,1,47,1,69,1,28,1,16,1,12,1,-2,1
1350,2,1,4,1,2,1,-3,1,0,1,3,1,54,1,101,1,58,1,39,1,27,1,8,1
1351,14,1,15,1,1,1,-14,1,7,1,8,1,56,1,132,1,90,1,66,1,46,1,20,1
1352,28,1,31,1,3,1,-29,1,13,1,17,1,45,1,159,1,125,1,95,1,66,1,35,1
1353,44,1,47,1,3,1,-45,1,21,1,25,1,22,1,182,1,163,1,127,1,89,1,52,1
1354,58,1,66,1,8,1,-62,1,25,1,37,1,-4,1,199,1,200,1,158,1,112,1,70,1
1355,73,1,89,1,16,1,-81,1,29,1,53,1,-43,1,190,1,223,1,183,1,137,1,90,1
1356,85,1,110,1,25,1,-97,1,30,1,68,1,-85,1,164,1,238,1,203,1,160,1,111,1
1357,92,1,121,1,29,1,-106,1,32,1,75,1,-119,1,145,1,249,1,217,1,174,1,125,1
1358,91,1,121,1,30,1,-106,1,31,1,76,1,-138,1,131,1,254,1,223,1,178,1,128,1
1359,81,1,104,1,23,1,-92,1,29,1,64,1,-142,1,118,1,242,1,205,1,163,1,116,1
1360,67,1,79,1,12,1,-73,1,28,1,46,1,-140,1,97,1,208,1,167,1,137,1,95,1
1361,53,1,60,1,7,1,-56,1,23,1,34,1,-145,1,60,1,157,1,124,1,111,1,79,1
1362,33,1,45,1,12,1,-39,1,11,1,29,1,-147,1,8,1,100,1,80,1,85,1,63,1
1363,15,1,30,1,15,1,-22,1,0,1,23,1,-149,1,-55,1,36,1,33,1,57,1,45,1
1364,0,1,16,1,16,1,-8,1,-8,1,16,1,-153,1,-133,1,-32,1,-13,1,28,1,24,1
1365,-19,1,1,1,20,1,9,1,-19,1,10,1,-154,1,-208,1,-95,1,-56,1,0,1,6,1
1366,-33,1,-14,1,19,1,23,1,-26,1,2,1,-160,1,-244,1,-131,1,-81,1,-19,1,-8,1
1367,-40,1,-24,1,16,1,32,1,-28,1,-4,1,-165,1,-256,1,-150,1,-97,1,-33,1,-19,1
1368,-46,1,-31,1,15,1,38,1,-31,1,-8,1,-160,1,-247,1,-152,1,-102,1,-41,1,-27,1
1369,-49,1,-33,1,16,1,41,1,-33,1,-9,1,-154,1,-233,1,-147,1,-101,1,-45,1,-30,1
1370,-53,1,-32,1,21,1,42,1,-37,1,-6,1,-147,1,-223,1,-144,1,-102,1,-47,1,-34,1
1371,-59,1,-36,1,23,1,47,1,-41,1,-7,1,-141,1,-212,1,-140,1,-102,1,-50,1,-37,1
1372,-60,1,-40,1,20,1,50,1,-40,1,-10,1,-136,1,-198,1,-137,1,-102,1,-53,1,-43,1
1373,-60,1,-41,1,19,1,50,1,-40,1,-11,1,-126,1,-181,1,-129,1,-99,1,-54,1,-44,1
1374,-54,1,-37,1,17,1,45,1,-36,1,-10,1,-115,1,-159,1,-116,1,-89,1,-49,1,-42,1
1375,-49,1,-30,1,19,1,39,1,-34,1,-6,1,-102,1,-140,1,-103,1,-78,1,-41,1,-36,1
1376,-47,1,-26,1,21,1,36,1,-34,1,-3,1,-89,1,-121,1,-90,1,-68,1,-35,1,-33,1
1377,-45,1,-21,1,24,1,33,1,-35,1,1,1,-73,1,-104,1,-77,1,-57,1,-29,1,-28,1
1378,-41,1,-15,1,26,1,28,1,-34,1,5,1,-58,1,-86,1,-64,1,-46,1,-21,1,-24,1
1379,-39,1,-11,1,28,1,25,1,-34,1,8,1,-43,1,-69,1,-52,1,-36,1,-15,1,-20,1
1380,-32,1,-8,1,24,1,20,1,-28,1,8,1,-33,1,-57,1,-46,1,-31,1,-12,1,-18,1
1381,-28,1,-7,1,21,1,17,1,-25,1,7,1,-27,1,-49,1,-41,1,-27,1,-10,1,-15,1
1382,-26,1,-6,1,20,1,16,1,-23,1,7,1,-19,1,-41,1,-35,1,-23,1,-7,1,-13,1
1383,-23,1,-7,1,16,1,15,1,-20,1,4,1,-14,1,-34,1,-31,1,-21,1,-6,1,-13,1
1384,-22,1,-10,1,12,1,16,1,-17,1,1,1,-10,1,-28,1,-29,1,-19,1,-7,1,-13,1
1385,-22,1,-13,1,9,1,17,1,-16,1,-2,1,-6,1,-23,1,-26,1,-18,1,-5,1,-12,1
1386,-22,1,-15,1,7,1,18,1,-15,1,-4,1,-5,1,-21,1,-25,1,-18,1,-6,1,-13,1
1387,-21,1,-15,1,6,1,18,1,-14,1,-5,1,-4,1,-19,1,-24,1,-16,1,-4,1,-13,1
1388,-20,1,-15,1,5,1,17,1,-13,1,-5,1,-4,1,-18,1,-23,1,-16,1,-4,1,-14,1
1389,-20,1,-14,1,6,1,17,1,-13,1,-4,1,-4,1,-17,1,-22,1,-14,1,-3,1,-13,1
1390,-19,1,-12,1,7,1,15,1,-13,1,-3,1,-4,1,-18,1,-22,1,-15,1,-5,1,-14,1
1391,-19,1,-11,1,8,1,15,1,-14,1,-2,1,-4,1,-16,1,-22,1,-14,1,-5,1,-14,1
1392,-19,1,-13,1,6,1,16,1,-13,1,-4,1,-2,1,-14,1,-20,1,-12,1,-3,1,-13,1
1393,-19,1,-15,1,4,1,17,1,-12,1,-6,1,0,1,-12,1,-19,1,-12,1,-3,1,-13,1
1394,-17,1,-12,1,5,1,14,1,-11,1,-4,1,0,1,-11,1,-19,1,-11,1,-3,1,-13,1
1395,-17,1,-11,1,6,1,14,1,-12,1,-3,1,0,1,-10,1,-18,1,-10,1,-3,1,-13,1
1396,-16,1,-10,1,6,1,13,1,-11,1,-2,1,1,1,-9,1,-17,1,-9,1,-2,1,-12,1
1397,-15,1,-10,1,5,1,12,1,-10,1,-3,1,3,1,-8,1,-15,1,-9,1,-3,1,-12,1
1398,-16,1,-11,1,5,1,13,1,-11,1,-3,1,2,1,-9,1,-15,1,-9,1,-4,1,-11,1
1399,-17,1,-12,1,5,1,14,1,-11,1,-4,1,2,1,-7,1,-15,1,-8,1,-2,1,-12,1
1400,-16,1,-12,1,4,1,14,1,-10,1,-4,1,3,1,-6,1,-14,1,-7,1,-1,1,-12,1
1401,-15,1,-10,1,5,1,12,1,-10,1,-3,1,3,1,-4,1,-13,1,-6,1,0,1,-10,1
1402,-14,1,-10,1,4,1,12,1,-9,1,-3,1,3,1,-4,1,-12,1,-6,1,0,1,-10,1
1403,-13,1,-10,1,3,1,11,1,-8,1,-4,1,3,1,-3,1,-11,1,-5,1,0,1,-10,1
1404,-12,1,-9,1,3,1,10,1,-8,1,-3,1,4,1,-3,1,-11,1,-6,1,0,1,-10,1
1405,-13,1,-7,1,6,1,10,1,-10,1,-1,1,4,1,-3,1,-9,1,-5,1,1,1,-10,1
1406,-13,1,-7,1,6,1,10,1,-10,1,-1,1,2,1,-3,1,-9,1,-5,1,0,1,-10,1
1407,-12,1,-8,1,4,1,10,1,-8,1,-2,1,2,1,-1,1,-8,1,-4,1,0,1,-8,1
1408,-12,1,-12,1,0,1,12,1,-6,1,-6,1,4,1,1,1,-7,1,-3,1,2,1,-8,1
1409,-12,1,-11,1,1,1,11,1,-7,1,-5,1,4,1,1,1,-6,1,-2,1,3,1,-7,1
1410,-12,1,-5,1,7,1,8,1,-10,1,1,1,2,1,0,1,-7,1,-3,1,3,1,-9,1
1411,-12,1,-5,1,7,1,8,1,-10,1,1,1,2,1,0,1,-6,1,-1,1,2,1,-10,1
1412,-11,1,-9,1,2,1,10,1,-7,1,-4,1,4,1,2,1,-4,1,0,1,4,1,-9,1
1413,-12,1,-10,1,2,1,11,1,-7,1,-4,1,5,1,4,1,-3,1,2,1,5,1,-9,1
1414,-12,1,-8,1,4,1,10,1,-8,1,-2,1,5,1,3,1,-4,1,0,1,4,1,-10,1
1415,-10,1,-7,1,3,1,8,1,-7,1,-2,1,4,1,5,1,-3,1,0,1,4,1,-9,1
1416,-9,1,-6,1,3,1,7,1,-6,1,-2,1,4,1,5,1,-1,1,2,1,6,1,-8,1
1417,-9,1,-6,1,3,1,7,1,-6,1,-2,1,4,1,7,1,-1,1,2,1,6,1,-7,1
1418,-10,1,-7,1,3,1,8,1,-7,1,-2,1,4,1,7,1,-2,1,3,1,8,1,-7,1
1419,-8,1,-5,1,3,1,6,1,-6,1,-1,1,4,1,8,1,-1,1,3,1,7,1,-7,1
1420,-6,1,-3,1,3,1,4,1,-5,1,0,1,4,1,8,1,0,1,3,1,7,1,-6,1
1421,-8,1,-3,1,5,1,5,1,-7,1,1,1,4,1,9,1,1,1,4,1,8,1,-5,1
1422,-8,1,-3,1,5,1,5,1,-7,1,1,1,6,1,11,1,2,1,5,1,9,1,-5,1
1423,-8,1,-5,1,3,1,6,1,-6,1,-1,1,7,1,12,1,3,1,5,1,9,1,-6,1
1424,-8,1,-6,1,2,1,7,1,-5,1,-2,1,7,1,13,1,4,1,5,1,10,1,-6,1
1425,-8,1,-4,1,4,1,6,1,-6,1,0,1,6,1,13,1,5,1,5,1,10,1,-6,1
1426,-6,1,0,1,6,1,3,1,-6,1,3,1,6,1,15,1,6,1,5,1,11,1,-5,1
1427,-3,1,0,1,3,1,1,1,-3,1,1,1,7,1,15,1,7,1,5,1,11,1,-5,1
1428,-2,1,0,1,2,1,1,1,-2,1,1,1,6,1,15,1,7,1,5,1,12,1,-5,1
1429,-3,1,2,1,5,1,0,1,-4,1,3,1,8,1,17,1,8,1,7,1,12,1,-6,1
1430,-6,1,0,1,6,1,3,1,-6,1,3,1,7,1,17,1,10,1,7,1,12,1,-6,1
1431,-5,1,0,1,5,1,2,1,-5,1,2,1,8,1,18,1,11,1,9,1,14,1,-3,1
1432,-2,1,1,1,3,1,0,1,-2,1,2,1,9,1,20,1,12,1,8,1,14,1,-4,1
1433,-1,1,2,1,3,1,0,1,-2,1,2,1,9,1,21,1,13,1,9,1,15,1,-3,1
1434,-4,1,0,1,4,1,2,1,-4,1,2,1,9,1,22,1,15,1,10,1,17,1,-2,1
1435,-5,1,-1,1,4,1,3,1,-5,1,1,1,9,1,23,1,16,1,11,1,16,1,-1,1
1436,-3,1,0,1,3,1,1,1,-3,1,1,1,10,1,25,1,19,1,13,1,17,1,0,1
1437,-3,1,0,1,3,1,1,1,-3,1,1,1,11,1,27,1,21,1,15,1,19,1,0,1
1438,-3,1,0,1,3,1,1,1,-3,1,1,1,11,1,26,1,21,1,14,1,18,1,0,1
1439,-1,1,2,1,3,1,0,1,-2,1,2,1,10,1,28,1,21,1,16,1,18,1,0,1
1440,0,1,3,1,3,1,-1,1,-1,1,3,1,11,1,31,1,24,1,16,1,18,1,0,1
1441,0,1,3,1,3,1,-1,1,-1,1,3,1,13,1,33,1,26,1,18,1,18,1,-1,1
1442,0,1,4,1,4,1,-2,1,-2,1,4,1,12,1,34,1,27,1,18,1,17,1,-1,1
1443,1,1,5,1,4,1,-3,1,-1,1,5,1,12,1,35,1,28,1,20,1,18,1,0,1
1444,2,1,5,1,3,1,-3,1,0,1,4,1,12,1,38,1,30,1,21,1,18,1,1,1
1445,4,1,5,1,1,1,-4,1,2,1,3,1,12,1,39,1,32,1,23,1,19,1,2,1
1446,4,1,7,1,3,1,-5,1,1,1,5,1,13,1,42,1,34,1,25,1,20,1,3,1
1447,5,1,7,1,2,1,-6,1,2,1,5,1,13,1,43,1,35,1,27,1,21,1,5,1
1448,6,1,9,1,3,1,-7,1,2,1,6,1,12,1,45,1,36,1,28,1,20,1,3,1
1449,6,1,10,1,4,1,-8,1,1,1,7,1,13,1,45,1,38,1,28,1,21,1,4,1
1450,6,1,10,1,4,1,-8,1,1,1,7,1,13,1,47,1,40,1,29,1,21,1,3,1
1451,7,1,12,1,5,1,-9,1,1,1,9,1,14,1,50,1,42,1,31,1,21,1,5,1
1452,7,1,13,1,6,1,-10,1,1,1,10,1,14,1,52,1,44,1,32,1,22,1,5,1
1453,8,1,13,1,5,1,-10,1,2,1,9,1,15,1,54,1,46,1,34,1,23,1,6,1
1454,10,1,15,1,5,1,-12,1,3,1,10,1,15,1,56,1,48,1,35,1,23,1,6,1
1455,11,1,17,1,6,1,-14,1,3,1,12,1,15,1,59,1,51,1,38,1,25,1,8,1
1456,12,1,18,1,6,1,-15,1,3,1,12,1,14,1,62,1,53,1,39,1,27,1,9,1
1457,14,1,16,1,2,1,-15,1,6,1,9,1,14,1,64,1,55,1,41,1,27,1,9,1
1458,16,1,18,1,2,1,-17,1,7,1,10,1,13,1,66,1,56,1,41,1,28,1,11,1
1459,14,1,21,1,7,1,-17,1,4,1,14,1,13,1,67,1,58,1,43,1,30,1,12,1
1460,14,1,23,1,9,1,-18,1,3,1,16,1,15,1,70,1,61,1,46,1,31,1,13,1
1461,15,1,26,1,11,1,-20,1,2,1,19,1,13,1,72,1,62,1,48,1,31,1,14,1
1462,16,1,27,1,11,1,-21,1,3,1,19,1,14,1,73,1,64,1,50,1,32,1,14,1
1463,18,1,26,1,8,1,-22,1,5,1,17,1,16,1,79,1,68,1,52,1,34,1,17,1
1464,20,1,28,1,8,1,-24,1,6,1,18,1,16,1,80,1,70,1,53,1,35,1,18,1
1465,21,1,31,1,10,1,-26,1,6,1,21,1,16,1,82,1,72,1,55,1,37,1,19,1
1466,22,1,34,1,12,1,-28,1,5,1,23,1,16,1,84,1,74,1,57,1,39,1,21,1
1467,23,1,34,1,11,1,-28,1,6,1,23,1,16,1,87,1,76,1,58,1,39,1,21,1
1468,25,1,36,1,11,1,-30,1,7,1,24,1,18,1,90,1,79,1,60,1,40,1,22,1
1469,24,1,38,1,14,1,-31,1,5,1,26,1,17,1,92,1,81,1,62,1,42,1,24,1
1470,26,1,38,1,12,1,-32,1,7,1,25,1,17,1,92,1,81,1,63,1,42,1,25,1
1471,29,1,39,1,10,1,-34,1,10,1,25,1,16,1,93,1,83,1,64,1,42,1,24,1
1472,27,1,40,1,13,1,-33,1,7,1,27,1,17,1,94,1,85,1,66,1,43,1,26,1
1473,27,1,41,1,14,1,-34,1,7,1,28,1,18,1,97,1,87,1,68,1,45,1,28,1
1474,28,1,41,1,13,1,-34,1,8,1,27,1,18,1,99,1,89,1,70,1,46,1,31,1
1475,28,1,43,1,15,1,-35,1,7,1,29,1,17,1,99,1,91,1,72,1,49,1,32,1
1476,29,1,45,1,16,1,-37,1,7,1,31,1,19,1,101,1,91,1,73,1,50,1,33,1
1477,30,1,46,1,16,1,-38,1,7,1,31,1,18,1,101,1,92,1,75,1,51,1,34,1
1478,30,1,45,1,15,1,-37,1,8,1,30,1,16,1,102,1,93,1,74,1,51,1,34,1
1479,30,1,43,1,13,1,-36,1,9,1,28,1,17,1,103,1,94,1,75,1,52,1,36,1
1480,30,1,43,1,13,1,-36,1,9,1,28,1,17,1,103,1,94,1,75,1,52,1,36,1
1481,31,1,43,1,12,1,-37,1,10,1,28,1,17,1,104,1,96,1,77,1,53,1,37,1
1482,31,1,44,1,13,1,-37,1,9,1,29,1,16,1,105,1,97,1,77,1,53,1,38,1
1483,33,1,45,1,12,1,-39,1,11,1,29,1,16,1,105,1,98,1,78,1,54,1,38,1
1484,32,1,45,1,13,1,-38,1,10,1,29,1,15,1,104,1,98,1,79,1,55,1,40,1
1485,33,1,46,1,13,1,-39,1,10,1,30,1,16,1,104,1,100,1,81,1,57,1,41,1
1486,34,1,47,1,13,1,-40,1,11,1,30,1,16,1,104,1,101,1,83,1,59,1,42,1
1487,34,1,45,1,11,1,-39,1,12,1,28,1,15,1,104,1,100,1,83,1,58,1,42,1
1488,31,1,46,1,15,1,-38,1,8,1,31,1,17,1,104,1,101,1,85,1,61,1,44,1
1489,34,1,51,1,17,1,-42,1,9,1,34,1,15,1,102,1,100,1,83,1,59,1,44,1
1490,32,1,48,1,16,1,-40,1,8,1,32,1,14,1,100,1,100,1,84,1,60,1,45,1
1491,31,1,47,1,16,1,-39,1,8,1,32,1,13,1,99,1,99,1,83,1,59,1,45,1
1492,33,1,47,1,14,1,-40,1,10,1,31,1,12,1,97,1,98,1,82,1,59,1,45,1
1493,33,1,49,1,16,1,-41,1,9,1,33,1,13,1,95,1,96,1,80,1,59,1,43,1
1494,32,1,50,1,18,1,-41,1,7,1,34,1,12,1,91,1,93,1,78,1,57,1,42,1
1495,32,1,50,1,18,1,-41,1,7,1,34,1,11,1,88,1,90,1,76,1,56,1,42,1
1496,32,1,48,1,16,1,-40,1,8,1,32,1,10,1,84,1,88,1,73,1,54,1,40,1
1497,28,1,47,1,19,1,-37,1,5,1,33,1,9,1,81,1,86,1,71,1,52,1,39,1
1498,26,1,45,1,19,1,-35,1,4,1,32,1,9,1,76,1,81,1,67,1,50,1,37,1
1499,29,1,45,1,16,1,-37,1,7,1,31,1,8,1,70,1,77,1,64,1,47,1,34,1
1500,27,1,44,1,17,1,-35,1,5,1,31,1,8,1,67,1,75,1,63,1,47,1,34,1
1501,24,1,41,1,17,1,-32,1,4,1,29,1,8,1,62,1,70,1,60,1,44,1,33,1
1502,21,1,38,1,17,1,-29,1,2,1,28,1,8,1,58,1,67,1,57,1,41,1,31,1
1503,20,1,36,1,16,1,-28,1,2,1,26,1,9,1,53,1,63,1,54,1,40,1,30,1
1504,19,1,35,1,16,1,-27,1,2,1,26,1,6,1,47,1,58,1,49,1,36,1,28,1
1505,20,1,35,1,15,1,-27,1,3,1,25,1,5,1,40,1,52,1,44,1,32,1,23,1
1506,18,1,33,1,15,1,-25,1,2,1,24,1,4,1,34,1,46,1,38,1,28,1,21,1
1507,15,1,30,1,15,1,-22,1,0,1,23,1,4,1,29,1,41,1,35,1,25,1,19,1
1508,13,1,27,1,14,1,-20,1,0,1,21,1,4,1,25,1,37,1,32,1,22,1,17,1
1509,10,1,25,1,15,1,-17,1,-2,1,20,1,4,1,20,1,33,1,31,1,20,1,16,1
1510,8,1,22,1,14,1,-15,1,-3,1,18,1,3,1,14,1,27,1,25,1,17,1,13,1
1511,6,1,18,1,12,1,-12,1,-3,1,15,1,3,1,9,1,23,1,20,1,14,1,11,1
1512,3,1,17,1,14,1,-10,1,-5,1,16,1,3,1,4,1,19,1,17,1,12,1,10,1
1513,2,1,14,1,12,1,-8,1,-5,1,13,1,2,1,-1,1,14,1,13,1,10,1,9,1
1514,2,1,13,1,11,1,-7,1,-4,1,12,1,1,1,-5,1,10,1,10,1,7,1,6,1
1515,0,1,10,1,10,1,-5,1,-5,1,10,1,-1,1,-10,1,5,1,5,1,3,1,4,1
1516,1,1,10,1,9,1,-5,1,-4,1,10,1,-3,1,-14,1,1,1,2,1,1,1,3,1
1517,0,1,8,1,8,1,-4,1,-4,1,8,1,-3,1,-18,1,-2,1,0,1,0,1,1,1
1518,-2,1,6,1,8,1,-2,1,-5,1,7,1,-3,1,-24,1,-6,1,-2,1,-3,1,0,1
1519,-2,1,5,1,7,1,-1,1,-4,1,6,1,-4,1,-27,1,-8,1,-4,1,-4,1,0,1
1520,-5,1,4,1,9,1,0,1,-7,1,6,1,-5,1,-31,1,-11,1,-7,1,-7,1,-3,1
1521,-7,1,2,1,9,1,2,1,-8,1,5,1,-5,1,-33,1,-14,1,-10,1,-9,1,-5,1
1522,-6,1,2,1,8,1,2,1,-7,1,5,1,-6,1,-35,1,-18,1,-13,1,-11,1,-6,1
1523,-7,1,2,1,9,1,2,1,-8,1,5,1,-7,1,-38,1,-20,1,-14,1,-11,1,-7,1
1524,-7,1,1,1,8,1,3,1,-7,1,4,1,-8,1,-41,1,-23,1,-18,1,-15,1,-9,1
1525,-8,1,0,1,8,1,4,1,-8,1,4,1,-9,1,-44,1,-25,1,-20,1,-17,1,-11,1
1526,-7,1,0,1,7,1,3,1,-7,1,3,1,-10,1,-46,1,-27,1,-22,1,-17,1,-11,1
1527,-8,1,0,1,8,1,4,1,-8,1,4,1,-12,1,-49,1,-30,1,-24,1,-19,1,-13,1
1528,-11,1,-3,1,8,1,7,1,-10,1,2,1,-13,1,-51,1,-31,1,-25,1,-20,1,-13,1
1529,-10,1,-3,1,7,1,6,1,-9,1,2,1,-12,1,-52,1,-32,1,-26,1,-20,1,-16,1
1530,-13,1,-4,1,9,1,8,1,-11,1,2,1,-10,1,-53,1,-33,1,-26,1,-22,1,-16,1
1531,-11,1,-5,1,6,1,8,1,-9,1,0,1,-10,1,-54,1,-33,1,-27,1,-23,1,-16,1
1532,-11,1,-7,1,4,1,9,1,-8,1,-2,1,-11,1,-55,1,-35,1,-29,1,-22,1,-16,1
1533,-10,1,-7,1,3,1,8,1,-7,1,-2,1,-9,1,-55,1,-35,1,-29,1,-23,1,-16,1
1534,-11,1,-7,1,4,1,9,1,-8,1,-2,1,-10,1,-56,1,-36,1,-32,1,-24,1,-17,1
1535,-12,1,-7,1,5,1,9,1,-9,1,-1,1,-9,1,-56,1,-36,1,-31,1,-23,1,-16,1
1536,-12,1,-7,1,5,1,9,1,-9,1,-1,1,-9,1,-58,1,-37,1,-31,1,-24,1,-16,1
1537,-10,1,-7,1,3,1,8,1,-7,1,-2,1,-9,1,-57,1,-37,1,-32,1,-24,1,-15,1
1538,-10,1,-10,1,0,1,10,1,-5,1,-5,1,-8,1,-58,1,-36,1,-32,1,-23,1,-16,1
1539,-10,1,-11,1,-1,1,10,1,-5,1,-6,1,-9,1,-58,1,-36,1,-31,1,-22,1,-15,1
1540,-9,1,-11,1,-2,1,10,1,-4,1,-7,1,-9,1,-58,1,-36,1,-33,1,-22,1,-16,1
1541,-10,1,-10,1,0,1,10,1,-5,1,-5,1,-9,1,-59,1,-36,1,-33,1,-22,1,-15,1
1542,-10,1,-10,1,0,1,10,1,-5,1,-5,1,-9,1,-59,1,-37,1,-33,1,-22,1,-16,1
1543,-12,1,-12,1,0,1,12,1,-6,1,-6,1,-8,1,-60,1,-36,1,-33,1,-21,1,-15,1
1544,-12,1,-14,1,-2,1,13,1,-5,1,-8,1,-8,1,-60,1,-36,1,-34,1,-20,1,-14,1
1545,-13,1,-14,1,-1,1,13,1,-6,1,-8,1,-8,1,-60,1,-37,1,-34,1,-21,1,-15,1
1546,-13,1,-11,1,2,1,12,1,-8,1,-5,1,-8,1,-60,1,-36,1,-34,1,-21,1,-15,1
1547,-12,1,-11,1,1,1,11,1,-7,1,-5,1,-9,1,-61,1,-36,1,-34,1,-21,1,-13,1
1548,-12,1,-14,1,-2,1,13,1,-5,1,-8,1,-8,1,-60,1,-35,1,-34,1,-20,1,-13,1
1549,-12,1,-12,1,0,1,12,1,-6,1,-6,1,-9,1,-60,1,-35,1,-34,1,-20,1,-14,1
1550,-12,1,-12,1,0,1,12,1,-6,1,-6,1,-9,1,-60,1,-36,1,-34,1,-20,1,-14,1
1551,-11,1,-13,1,-2,1,12,1,-5,1,-8,1,-8,1,-58,1,-35,1,-33,1,-18,1,-12,1
1552,-11,1,-12,1,-1,1,11,1,-5,1,-7,1,-8,1,-59,1,-34,1,-33,1,-18,1,-12,1
1553,-12,1,-11,1,1,1,11,1,-7,1,-5,1,-8,1,-60,1,-34,1,-34,1,-19,1,-13,1
1554,-12,1,-11,1,1,1,11,1,-7,1,-5,1,-8,1,-59,1,-34,1,-33,1,-19,1,-13,1
1555,-12,1,-10,1,2,1,11,1,-7,1,-4,1,-8,1,-59,1,-34,1,-33,1,-19,1,-13,1
1556,-11,1,-10,1,1,1,10,1,-6,1,-5,1,-8,1,-59,1,-34,1,-33,1,-19,1,-14,1
1557,-10,1,-10,1,0,1,10,1,-5,1,-5,1,-8,1,-58,1,-33,1,-33,1,-19,1,-14,1
1558,-9,1,-10,1,-1,1,9,1,-4,1,-6,1,-9,1,-58,1,-32,1,-33,1,-19,1,-15,1
1559,-11,1,-10,1,1,1,10,1,-6,1,-5,1,-8,1,-57,1,-32,1,-33,1,-19,1,-15,1
1560,-11,1,-10,1,1,1,10,1,-6,1,-5,1,-9,1,-57,1,-33,1,-33,1,-20,1,-15,1
1561,-9,1,-10,1,-1,1,9,1,-4,1,-6,1,-9,1,-58,1,-33,1,-35,1,-21,1,-14,1
1562,-10,1,-10,1,0,1,10,1,-5,1,-5,1,-8,1,-57,1,-32,1,-34,1,-19,1,-13,1
1563,-7,1,-10,1,-3,1,8,1,-2,1,-7,1,-8,1,-57,1,-32,1,-34,1,-19,1,-13,1
1564,-8,1,-10,1,-2,1,9,1,-3,1,-6,1,-8,1,-56,1,-32,1,-34,1,-18,1,-13,1
1565,-7,1,-10,1,-3,1,8,1,-2,1,-7,1,-8,1,-56,1,-32,1,-34,1,-18,1,-12,1
1566,-7,1,-10,1,-3,1,8,1,-2,1,-7,1,-8,1,-56,1,-31,1,-35,1,-19,1,-13,1
1567,-8,1,-7,1,1,1,7,1,-5,1,-3,1,-8,1,-56,1,-31,1,-36,1,-20,1,-16,1
1568,-8,1,-6,1,2,1,7,1,-5,1,-2,1,-8,1,-56,1,-31,1,-37,1,-21,1,-15,1
1569,-9,1,-9,1,0,1,9,1,-5,1,-5,1,-7,1,-56,1,-31,1,-35,1,-20,1,-14,1
1570,-9,1,-10,1,-1,1,9,1,-4,1,-6,1,-7,1,-55,1,-31,1,-35,1,-20,1,-15,1
1571,-9,1,-10,1,-1,1,9,1,-4,1,-6,1,-7,1,-54,1,-31,1,-34,1,-19,1,-15,1
1572,-9,1,-9,1,0,1,9,1,-5,1,-5,1,-7,1,-54,1,-30,1,-34,1,-19,1,-13,1
1573,-9,1,-9,1,0,1,9,1,-5,1,-5,1,-7,1,-53,1,-30,1,-35,1,-19,1,-14,1
1574,-10,1,-10,1,0,1,10,1,-5,1,-5,1,-6,1,-53,1,-30,1,-34,1,-19,1,-13,1
1575,-10,1,-9,1,1,1,9,1,-6,1,-4,1,-6,1,-54,1,-31,1,-35,1,-20,1,-14,1
1576,-10,1,-9,1,1,1,9,1,-6,1,-4,1,-6,1,-54,1,-31,1,-35,1,-19,1,-13,1
1577,-9,1,-9,1,0,1,9,1,-5,1,-5,1,-6,1,-54,1,-31,1,-35,1,-19,1,-14,1
1578,-10,1,-10,1,0,1,10,1,-5,1,-5,1,-5,1,-54,1,-31,1,-35,1,-19,1,-15,1
1579,-9,1,-11,1,-2,1,10,1,-4,1,-7,1,-5,1,-52,1,-31,1,-36,1,-18,1,-15,1
1580,-9,1,-10,1,-1,1,9,1,-4,1,-6,1,-4,1,-51,1,-29,1,-33,1,-16,1,-13,1
1581,-7,1,-9,1,-2,1,8,1,-3,1,-6,1,-5,1,-51,1,-29,1,-34,1,-16,1,-13,1
1582,-6,1,-9,1,-3,1,7,1,-2,1,-6,1,-6,1,-52,1,-30,1,-35,1,-16,1,-14,1
1583,-8,1,-8,1,0,1,8,1,-4,1,-4,1,-5,1,-52,1,-30,1,-34,1,-15,1,-13,1
1584,-8,1,-7,1,1,1,7,1,-5,1,-3,1,-5,1,-51,1,-30,1,-34,1,-15,1,-13,1
1585,-8,1,-7,1,1,1,7,1,-5,1,-3,1,-6,1,-52,1,-31,1,-36,1,-17,1,-14,1
1586,-8,1,-7,1,1,1,7,1,-5,1,-3,1,-5,1,-52,1,-31,1,-36,1,-15,1,-13,1
1587,-7,1,-6,1,1,1,6,1,-4,1,-3,1,-5,1,-52,1,-31,1,-38,1,-16,1,-16,1
1588,-6,1,-7,1,-1,1,6,1,-3,1,-4,1,-6,1,-52,1,-32,1,-37,1,-17,1,-15,1
1589,-6,1,-8,1,-2,1,7,1,-2,1,-5,1,-7,1,-53,1,-33,1,-38,1,-16,1,-15,1
1590,-8,1,-8,1,0,1,8,1,-4,1,-4,1,-6,1,-52,1,-32,1,-36,1,-16,1,-16,1
1591,-8,1,-6,1,2,1,7,1,-5,1,-2,1,-7,1,-54,1,-33,1,-38,1,-17,1,-17,1
1592,-7,1,-2,1,5,1,4,1,-6,1,1,1,-8,1,-55,1,-34,1,-40,1,-19,1,-18,1
1593,-6,1,-2,1,4,1,4,1,-5,1,1,1,-8,1,-55,1,-35,1,-39,1,-18,1,-18,1
1594,-7,1,-4,1,3,1,5,1,-5,1,-1,1,-9,1,-55,1,-34,1,-38,1,-16,1,-17,1
1595,-7,1,-6,1,1,1,6,1,-4,1,-3,1,-7,1,-54,1,-34,1,-38,1,-16,1,-16,1
1596,-7,1,-7,1,0,1,7,1,-4,1,-4,1,-7,1,-54,1,-35,1,-39,1,-17,1,-16,1
1597,-8,1,-7,1,1,1,7,1,-5,1,-3,1,-8,1,-56,1,-35,1,-39,1,-16,1,-16,1
1598,-6,1,-10,1,-4,1,8,1,-1,1,-7,1,-8,1,-55,1,-35,1,-39,1,-14,1,-16,1
1599,-7,1,-10,1,-3,1,8,1,-2,1,-7,1,-7,1,-56,1,-35,1,-40,1,-14,1,-16,1
1600,-9,1,-8,1,1,1,8,1,-5,1,-4,1,-6,1,-56,1,-35,1,-38,1,-13,1,-16,1
1601,-9,1,-7,1,2,1,8,1,-6,1,-3,1,-8,1,-57,1,-35,1,-38,1,-13,1,-16,1
1602,-9,1,-5,1,4,1,7,1,-7,1,-1,1,-9,1,-59,1,-35,1,-39,1,-14,1,-17,1
1603,-8,1,-7,1,1,1,7,1,-5,1,-3,1,-10,1,-59,1,-35,1,-40,1,-15,1,-17,1
1604,-9,1,-7,1,2,1,8,1,-6,1,-3,1,-10,1,-59,1,-35,1,-40,1,-15,1,-17,1
1605,-8,1,-8,1,0,1,8,1,-4,1,-4,1,-10,1,-59,1,-35,1,-38,1,-15,1,-18,1
1606,-6,1,-7,1,-1,1,6,1,-3,1,-4,1,-9,1,-59,1,-34,1,-38,1,-15,1,-17,1
1607,-4,1,-6,1,-2,1,5,1,-1,1,-4,1,-9,1,-59,1,-34,1,-39,1,-16,1,-17,1
1608,-6,1,-6,1,0,1,6,1,-3,1,-3,1,-10,1,-60,1,-34,1,-39,1,-17,1,-17,1
1609,-8,1,-6,1,2,1,7,1,-5,1,-2,1,-10,1,-60,1,-35,1,-40,1,-17,1,-17,1
1610,-9,1,-5,1,4,1,7,1,-7,1,-1,1,-9,1,-61,1,-34,1,-40,1,-16,1,-16,1
1611,-9,1,-6,1,3,1,7,1,-6,1,-2,1,-9,1,-60,1,-33,1,-40,1,-16,1,-16,1
1612,-8,1,-6,1,2,1,7,1,-5,1,-2,1,-8,1,-60,1,-33,1,-40,1,-16,1,-16,1
1613,-8,1,-5,1,3,1,6,1,-6,1,-1,1,-10,1,-61,1,-36,1,-42,1,-18,1,-18,1
1614,-8,1,-6,1,2,1,7,1,-5,1,-2,1,-11,1,-63,1,-37,1,-43,1,-18,1,-19,1
1615,-8,1,-7,1,1,1,7,1,-5,1,-3,1,-9,1,-62,1,-35,1,-42,1,-18,1,-18,1
1616,-7,1,-7,1,0,1,7,1,-4,1,-4,1,-9,1,-62,1,-35,1,-42,1,-19,1,-18,1
1617,-6,1,-7,1,-1,1,6,1,-3,1,-4,1,-10,1,-62,1,-35,1,-43,1,-19,1,-18,1
1618,-6,1,-6,1,0,1,6,1,-3,1,-3,1,-11,1,-62,1,-36,1,-43,1,-18,1,-18,1
1619,-7,1,-8,1,-1,1,7,1,-3,1,-5,1,-11,1,-63,1,-36,1,-42,1,-18,1,-18,1
1620,-7,1,-9,1,-2,1,8,1,-3,1,-6,1,-11,1,-64,1,-37,1,-43,1,-20,1,-18,1
1621,-7,1,-7,1,0,1,7,1,-4,1,-4,1,-11,1,-64,1,-36,1,-43,1,-19,1,-18,1
1622,-8,1,-8,1,0,1,8,1,-4,1,-4,1,-11,1,-64,1,-35,1,-43,1,-19,1,-18,1
1623,-10,1,-9,1,1,1,9,1,-6,1,-4,1,-10,1,-63,1,-36,1,-44,1,-18,1,-18,1
1624,-9,1,-9,1,0,1,9,1,-5,1,-5,1,-11,1,-63,1,-36,1,-44,1,-18,1,-18,1
1625,-12,1,-10,1,2,1,11,1,-7,1,-4,1,-10,1,-64,1,-35,1,-42,1,-17,1,-17,1
1626,-10,1,-10,1,0,1,10,1,-5,1,-5,1,-10,1,-63,1,-36,1,-44,1,-17,1,-18,1
1627,-8,1,-11,1,-3,1,9,1,-3,1,-7,1,-11,1,-64,1,-37,1,-45,1,-18,1,-19,1
1628,-9,1,-12,1,-3,1,10,1,-3,1,-8,1,-10,1,-65,1,-37,1,-44,1,-16,1,-17,1
1629,-9,1,-11,1,-2,1,10,1,-4,1,-7,1,-9,1,-65,1,-37,1,-44,1,-17,1,-18,1
1630,-9,1,-11,1,-2,1,10,1,-4,1,-7,1,-11,1,-66,1,-37,1,-45,1,-19,1,-19,1
1631,-9,1,-11,1,-2,1,10,1,-4,1,-7,1,-11,1,-67,1,-38,1,-45,1,-18,1,-19,1
1632,-10,1,-11,1,-1,1,10,1,-5,1,-6,1,-10,1,-66,1,-38,1,-45,1,-17,1,-19,1
1633,-11,1,-11,1,0,1,11,1,-6,1,-6,1,-10,1,-66,1,-39,1,-45,1,-17,1,-19,1
1634,-10,1,-10,1,0,1,10,1,-5,1,-5,1,-10,1,-66,1,-39,1,-46,1,-18,1,-18,1
1635,-9,1,-12,1,-3,1,10,1,-3,1,-8,1,-10,1,-66,1,-38,1,-45,1,-16,1,-17,1
1636,-9,1,-13,1,-4,1,11,1,-3,1,-9,1,-9,1,-66,1,-39,1,-45,1,-16,1,-17,1
1637,-9,1,-11,1,-2,1,10,1,-4,1,-7,1,-10,1,-65,1,-38,1,-45,1,-17,1,-17,1
1638,-9,1,-11,1,-2,1,10,1,-4,1,-7,1,-11,1,-66,1,-39,1,-44,1,-17,1,-17,1
1639,-10,1,-11,1,-1,1,10,1,-5,1,-6,1,-10,1,-67,1,-39,1,-44,1,-17,1,-16,1
1640,-10,1,-11,1,-1,1,10,1,-5,1,-6,1,-11,1,-67,1,-39,1,-45,1,-17,1,-16,1
1641,-10,1,-11,1,-1,1,10,1,-5,1,-6,1,-10,1,-66,1,-39,1,-45,1,-17,1,-16,1
1642,-11,1,-12,1,-1,1,11,1,-5,1,-7,1,-10,1,-66,1,-41,1,-47,1,-18,1,-17,1
1643,-12,1,-12,1,0,1,12,1,-6,1,-6,1,-11,1,-66,1,-41,1,-48,1,-20,1,-19,1
1644,-11,1,-10,1,1,1,10,1,-6,1,-5,1,-12,1,-67,1,-43,1,-50,1,-22,1,-19,1
1645,-12,1,-9,1,3,1,10,1,-8,1,-3,1,-11,1,-66,1,-41,1,-48,1,-20,1,-18,1
1646,-8,1,-10,1,-2,1,9,1,-3,1,-6,1,-12,1,-67,1,-41,1,-47,1,-19,1,-18,1
1647,-8,1,-9,1,-1,1,8,1,-4,1,-5,1,-13,1,-67,1,-41,1,-47,1,-19,1,-18,1
1648,-10,1,-7,1,3,1,8,1,-7,1,-2,1,-14,1,-67,1,-42,1,-48,1,-19,1,-19,1
1649,-11,1,-8,1,3,1,9,1,-7,1,-3,1,-14,1,-69,1,-44,1,-50,1,-20,1,-19,1
1650,-9,1,-10,1,-1,1,9,1,-4,1,-6,1,-14,1,-68,1,-41,1,-48,1,-20,1,-18,1
1651,-9,1,-9,1,0,1,9,1,-5,1,-5,1,-13,1,-67,1,-40,1,-46,1,-19,1,-17,1
1652,-10,1,-10,1,0,1,10,1,-5,1,-5,1,-14,1,-69,1,-42,1,-47,1,-20,1,-18,1
1653,-10,1,-9,1,1,1,9,1,-6,1,-4,1,-14,1,-69,1,-42,1,-47,1,-20,1,-18,1
1654,-11,1,-6,1,5,1,8,1,-8,1,-1,1,-14,1,-69,1,-42,1,-48,1,-20,1,-18,1
1655,-10,1,-9,1,1,1,9,1,-6,1,-4,1,-13,1,-68,1,-41,1,-48,1,-19,1,-17,1
1656,-10,1,-10,1,0,1,10,1,-5,1,-5,1,-13,1,-67,1,-41,1,-47,1,-19,1,-17,1
1657,-10,1,-9,1,1,1,9,1,-6,1,-4,1,-12,1,-68,1,-41,1,-48,1,-20,1,-18,1
1658,-11,1,-9,1,2,1,10,1,-7,1,-4,1,-11,1,-68,1,-41,1,-48,1,-20,1,-17,1
1659,-11,1,-7,1,4,1,9,1,-8,1,-2,1,-11,1,-69,1,-41,1,-48,1,-20,1,-17,1
1660,-12,1,-7,1,5,1,9,1,-9,1,-1,1,-12,1,-68,1,-41,1,-47,1,-20,1,-17,1
1661,-12,1,-6,1,6,1,9,1,-9,1,0,1,-13,1,-69,1,-41,1,-48,1,-20,1,-18,1
1662,-12,1,-5,1,7,1,8,1,-10,1,1,1,-13,1,-69,1,-42,1,-49,1,-20,1,-19,1
1663,-11,1,-5,1,6,1,8,1,-9,1,0,1,-12,1,-68,1,-42,1,-48,1,-20,1,-19,1
1664,-11,1,-7,1,4,1,9,1,-8,1,-2,1,-10,1,-66,1,-39,1,-46,1,-18,1,-17,1
1665,-12,1,-9,1,3,1,10,1,-8,1,-3,1,-11,1,-66,1,-39,1,-46,1,-17,1,-17,1
1666,-10,1,-7,1,3,1,8,1,-7,1,-2,1,-14,1,-68,1,-41,1,-47,1,-19,1,-17,1
1667,-8,1,-8,1,0,1,8,1,-4,1,-4,1,-13,1,-67,1,-41,1,-47,1,-18,1,-17,1
1668,-9,1,-7,1,2,1,8,1,-6,1,-3,1,-13,1,-67,1,-41,1,-48,1,-18,1,-17,1
1669,-7,1,-6,1,1,1,6,1,-4,1,-3,1,-13,1,-68,1,-42,1,-49,1,-19,1,-18,1
1670,-7,1,-7,1,0,1,7,1,-4,1,-4,1,-12,1,-67,1,-41,1,-48,1,-18,1,-16,1
1671,-8,1,-5,1,3,1,6,1,-6,1,-1,1,-12,1,-67,1,-40,1,-47,1,-18,1,-17,1
1672,-7,1,-6,1,1,1,6,1,-4,1,-3,1,-12,1,-67,1,-41,1,-47,1,-19,1,-17,1
1673,-7,1,-6,1,1,1,6,1,-4,1,-3,1,-10,1,-66,1,-41,1,-47,1,-17,1,-16,1
1674,-8,1,-6,1,2,1,7,1,-5,1,-2,1,-8,1,-65,1,-39,1,-47,1,-17,1,-14,1
1675,-11,1,-6,1,5,1,8,1,-8,1,-1,1,-8,1,-65,1,-38,1,-47,1,-16,1,-14,1
1676,-10,1,-7,1,3,1,8,1,-7,1,-2,1,-9,1,-66,1,-39,1,-47,1,-16,1,-15,1
1677,-10,1,-7,1,3,1,8,1,-7,1,-2,1,-8,1,-66,1,-39,1,-47,1,-15,1,-15,1
1678,-9,1,-8,1,1,1,8,1,-5,1,-4,1,-8,1,-66,1,-40,1,-46,1,-15,1,-15,1
1679,-8,1,-7,1,1,1,7,1,-5,1,-3,1,-9,1,-65,1,-39,1,-46,1,-16,1,-15,1
1680,-8,1,-6,1,2,1,7,1,-5,1,-2,1,-8,1,-65,1,-38,1,-45,1,-15,1,-15,1
1681,-10,1,-5,1,5,1,7,1,-8,1,0,1,-6,1,-63,1,-36,1,-44,1,-13,1,-14,1
1682,-9,1,-4,1,5,1,6,1,-7,1,0,1,-6,1,-62,1,-36,1,-43,1,-13,1,-14,1
1683,-8,1,-3,1,5,1,5,1,-7,1,1,1,-5,1,-63,1,-36,1,-44,1,-14,1,-13,1
1684,-4,1,-1,1,3,1,2,1,-4,1,1,1,-5,1,-62,1,-35,1,-44,1,-14,1,-13,1
1685,-3,1,-1,1,2,1,2,1,-3,1,0,1,-5,1,-61,1,-35,1,-42,1,-14,1,-13,1
1686,-3,1,-1,1,2,1,2,1,-3,1,0,1,-5,1,-60,1,-34,1,-39,1,-12,1,-12,1
1687,-3,1,0,1,3,1,1,1,-3,1,1,1,-5,1,-60,1,-34,1,-39,1,-12,1,-11,1
1688,-3,1,1,1,4,1,1,1,-3,1,2,1,-5,1,-61,1,-33,1,-40,1,-13,1,-12,1
1689,-5,1,3,1,8,1,1,1,-6,1,5,1,-5,1,-61,1,-33,1,-40,1,-12,1,-11,1
1690,-7,1,1,1,8,1,3,1,-7,1,4,1,-6,1,-61,1,-35,1,-42,1,-14,1,-13,1
1691,-8,1,-2,1,6,1,5,1,-7,1,2,1,-5,1,-59,1,-33,1,-40,1,-13,1,-12,1
1692,-5,1,-3,1,2,1,4,1,-4,1,-1,1,-6,1,-60,1,-34,1,-39,1,-12,1,-11,1
1693,0,1,-2,1,-2,1,1,1,1,1,-2,1,-9,1,-61,1,-34,1,-41,1,-13,1,-12,1
1694,0,1,-1,1,-1,1,0,1,0,1,-1,1,-10,1,-59,1,-33,1,-40,1,-11,1,-10,1
1695,1,1,2,1,1,1,-1,1,0,1,2,1,-11,1,-58,1,-32,1,-39,1,-11,1,-9,1
1696,2,1,3,1,1,1,-2,1,1,1,2,1,-11,1,-57,1,-30,1,-37,1,-9,1,-9,1
1697,3,1,2,1,-1,1,-2,1,2,1,1,1,-10,1,-56,1,-28,1,-35,1,-9,1,-7,1
1698,3,1,3,1,0,1,-3,1,2,1,2,1,-10,1,-56,1,-28,1,-35,1,-9,1,-7,1
1699,4,1,3,1,-1,1,-3,1,3,1,1,1,-13,1,-57,1,-30,1,-36,1,-9,1,-7,1
1700,4,1,3,1,-1,1,-3,1,3,1,1,1,-13,1,-57,1,-30,1,-37,1,-9,1,-7,1
1701,3,1,3,1,0,1,-3,1,2,1,2,1,-14,1,-58,1,-31,1,-37,1,-9,1,-7,1
1702,3,1,1,1,-2,1,-2,1,3,1,0,1,-15,1,-59,1,-32,1,-39,1,-10,1,-8,1
1703,1,1,1,1,0,1,-1,1,1,1,1,1,-15,1,-60,1,-33,1,-39,1,-11,1,-7,1
1704,0,1,1,1,1,1,0,1,0,1,1,1,-16,1,-61,1,-34,1,-40,1,-12,1,-8,1
1705,2,1,2,1,0,1,-2,1,1,1,1,1,-15,1,-60,1,-33,1,-39,1,-12,1,-8,1
1706,2,1,3,1,1,1,-2,1,1,1,2,1,-13,1,-58,1,-32,1,-38,1,-11,1,-7,1
1707,4,1,3,1,-1,1,-3,1,3,1,1,1,-13,1,-56,1,-31,1,-37,1,-11,1,-7,1
1708,3,1,0,1,-3,1,-1,1,3,1,-1,1,-12,1,-57,1,-32,1,-37,1,-12,1,-7,1
1709,3,1,0,1,-3,1,-1,1,3,1,-1,1,-12,1,-58,1,-32,1,-38,1,-11,1,-7,1
1710,3,1,0,1,-3,1,-1,1,3,1,-1,1,-12,1,-57,1,-31,1,-37,1,-12,1,-7,1
1711,4,1,-1,1,-5,1,-1,1,4,1,-3,1,-14,1,-59,1,-32,1,-37,1,-13,1,-9,1
1712,4,1,0,1,-4,1,-2,1,4,1,-2,1,-16,1,-60,1,-33,1,-38,1,-14,1,-8,1
1713,3,1,1,1,-2,1,-2,1,3,1,0,1,-17,1,-62,1,-35,1,-39,1,-14,1,-8,1
1714,3,1,2,1,-1,1,-2,1,2,1,1,1,-16,1,-62,1,-35,1,-40,1,-14,1,-9,1
1715,3,1,0,1,-3,1,-1,1,3,1,-1,1,-16,1,-62,1,-35,1,-40,1,-14,1,-9,1
1716,2,1,-4,1,-6,1,1,1,4,1,-5,1,-16,1,-61,1,-35,1,-39,1,-15,1,-10,1
1717,1,1,-4,1,-5,1,1,1,3,1,-4,1,-14,1,-58,1,-33,1,-38,1,-14,1,-9,1
1718,0,1,-4,1,-4,1,2,1,2,1,-4,1,-13,1,-57,1,-32,1,-36,1,-13,1,-8,1
1719,0,1,-4,1,-4,1,2,1,2,1,-4,1,-14,1,-55,1,-32,1,-36,1,-13,1,-8,1
1720,0,1,-5,1,-5,1,2,1,2,1,-5,1,-12,1,-55,1,-32,1,-37,1,-13,1,-8,1
1721,-2,1,-6,1,-4,1,4,1,1,1,-5,1,-14,1,-58,1,-35,1,-38,1,-15,1,-10,1
1722,-3,1,-6,1,-3,1,4,1,0,1,-5,1,-13,1,-58,1,-34,1,-38,1,-15,1,-10,1
1723,-4,1,-6,1,-2,1,5,1,-1,1,-4,1,-12,1,-57,1,-34,1,-38,1,-15,1,-9,1
1724,-4,1,-7,1,-3,1,5,1,-1,1,-5,1,-13,1,-58,1,-35,1,-38,1,-17,1,-10,1
1725,-5,1,-11,1,-6,1,8,1,0,1,-9,1,-11,1,-57,1,-34,1,-38,1,-16,1,-10,1
1726,-8,1,-13,1,-5,1,10,1,-2,1,-9,1,-9,1,-57,1,-34,1,-38,1,-16,1,-11,1
1727,-11,1,-12,1,-1,1,11,1,-5,1,-7,1,-9,1,-59,1,-36,1,-40,1,-18,1,-12,1
1728,-12,1,-13,1,-1,1,12,1,-6,1,-7,1,-11,1,-60,1,-39,1,-42,1,-20,1,-14,1
1729,-10,1,-12,1,-2,1,11,1,-4,1,-7,1,-13,1,-61,1,-39,1,-42,1,-22,1,-15,1
1730,-10,1,-12,1,-2,1,11,1,-4,1,-7,1,-14,1,-63,1,-41,1,-43,1,-22,1,-16,1
1731,-12,1,-13,1,-1,1,12,1,-6,1,-7,1,-14,1,-63,1,-42,1,-43,1,-22,1,-16,1
1732,-10,1,-15,1,-5,1,12,1,-3,1,-10,1,-14,1,-62,1,-42,1,-44,1,-23,1,-16,1
1733,-9,1,-16,1,-7,1,12,1,-1,1,-12,1,-14,1,-62,1,-42,1,-43,1,-22,1,-15,1
1734,-12,1,-16,1,-4,1,14,1,-4,1,-10,1,-16,1,-63,1,-41,1,-43,1,-21,1,-15,1
1735,-10,1,-13,1,-3,1,11,1,-4,1,-8,1,-15,1,-62,1,-41,1,-41,1,-21,1,-13,1
1736,-11,1,-13,1,-2,1,12,1,-5,1,-8,1,-16,1,-62,1,-41,1,-41,1,-21,1,-13,1
1737,-12,1,-14,1,-2,1,13,1,-5,1,-8,1,-15,1,-63,1,-42,1,-42,1,-22,1,-14,1
1738,-13,1,-13,1,0,1,13,1,-7,1,-7,1,-15,1,-62,1,-42,1,-42,1,-22,1,-15,1
1739,-13,1,-13,1,0,1,13,1,-7,1,-7,1,-15,1,-62,1,-43,1,-42,1,-23,1,-16,1
1740,-12,1,-12,1,0,1,12,1,-6,1,-6,1,-15,1,-61,1,-42,1,-41,1,-23,1,-15,1
1741,-12,1,-11,1,1,1,11,1,-7,1,-5,1,-14,1,-61,1,-44,1,-41,1,-23,1,-16,1
1742,-11,1,-11,1,0,1,11,1,-6,1,-6,1,-14,1,-60,1,-43,1,-41,1,-23,1,-16,1
1743,-11,1,-11,1,0,1,11,1,-6,1,-6,1,-14,1,-61,1,-43,1,-41,1,-24,1,-16,1
1744,-12,1,-11,1,1,1,11,1,-7,1,-5,1,-16,1,-62,1,-44,1,-43,1,-25,1,-19,1
1745,-14,1,-12,1,2,1,13,1,-8,1,-5,1,-14,1,-61,1,-43,1,-42,1,-24,1,-16,1
1746,-14,1,-15,1,-1,1,14,1,-7,1,-8,1,-14,1,-60,1,-42,1,-41,1,-23,1,-15,1
1747,-14,1,-17,1,-3,1,15,1,-6,1,-10,1,-12,1,-58,1,-42,1,-41,1,-23,1,-15,1
1748,-14,1,-16,1,-2,1,15,1,-6,1,-9,1,-12,1,-57,1,-40,1,-39,1,-22,1,-15,1
1749,-14,1,-16,1,-2,1,15,1,-6,1,-9,1,-13,1,-58,1,-41,1,-40,1,-22,1,-16,1
1750,-16,1,-16,1,0,1,16,1,-8,1,-8,1,-11,1,-58,1,-42,1,-41,1,-23,1,-16,1
1751,-15,1,-16,1,-1,1,15,1,-7,1,-9,1,-12,1,-57,1,-42,1,-41,1,-25,1,-17,1
1752,-15,1,-15,1,0,1,15,1,-8,1,-8,1,-12,1,-58,1,-42,1,-41,1,-25,1,-17,1
1753,-16,1,-14,1,2,1,15,1,-9,1,-6,1,-12,1,-59,1,-42,1,-41,1,-24,1,-17,1
1754,-18,1,-13,1,5,1,15,1,-12,1,-4,1,-12,1,-56,1,-40,1,-37,1,-23,1,-15,1
1755,-15,1,-14,1,1,1,14,1,-8,1,-7,1,-13,1,-56,1,-40,1,-37,1,-24,1,-15,1
1756,-14,1,-12,1,2,1,13,1,-8,1,-5,1,-13,1,-56,1,-42,1,-37,1,-24,1,-16,1
1757,-14,1,-12,1,2,1,13,1,-8,1,-5,1,-11,1,-56,1,-43,1,-39,1,-26,1,-18,1
1758,-18,1,-14,1,4,1,16,1,-11,1,-5,1,-5,1,-50,1,-40,1,-37,1,-25,1,-18,1
1759,-20,1,-16,1,4,1,18,1,-12,1,-6,1,0,1,-45,1,-38,1,-37,1,-25,1,-20,1
1760,-21,1,-13,1,8,1,17,1,-15,1,-3,1,6,1,-38,1,-36,1,-35,1,-26,1,-20,1
1761,-20,1,-8,1,12,1,14,1,-16,1,2,1,10,1,-32,1,-31,1,-30,1,-23,1,-18,1
1762,-15,1,-4,1,11,1,9,1,-13,1,3,1,13,1,-23,1,-24,1,-24,1,-19,1,-15,1
1763,-8,1,-4,1,4,1,6,1,-6,1,0,1,17,1,-5,1,-14,1,-19,1,-15,1,-13,1
1764,0,1,-5,1,-5,1,2,1,2,1,-5,1,27,1,19,1,1,1,-8,1,-8,1,-7,1
1765,6,1,0,1,-6,1,-3,1,6,1,-3,1,36,1,41,1,17,1,5,1,0,1,-2,1
1766,14,1,9,1,-5,1,-11,1,10,1,2,1,44,1,70,1,42,1,25,1,13,1,7,1
1767,24,1,16,1,-8,1,-20,1,16,1,4,1,48,1,103,1,75,1,52,1,31,1,20,1
1768,37,1,29,1,-8,1,-33,1,23,1,11,1,43,1,130,1,108,1,78,1,50,1,35,1
1769,55,1,46,1,-9,1,-50,1,32,1,19,1,28,1,153,1,143,1,108,1,73,1,51,1
1770,69,1,64,1,-5,1,-66,1,37,1,30,1,7,1,173,1,178,1,138,1,96,1,69,1
1771,84,1,85,1,1,1,-84,1,42,1,43,1,-25,1,176,1,207,1,167,1,120,1,89,1
1772,98,1,108,1,10,1,-103,1,44,1,59,1,-69,1,151,1,223,1,188,1,143,1,109,1
1773,107,1,121,1,14,1,-114,1,47,1,68,1,-105,1,128,1,235,1,202,1,159,1,125,1
1774,109,1,125,1,16,1,-117,1,47,1,71,1,-130,1,113,1,241,1,210,1,167,1,133,1
1775,98,1,113,1,15,1,-105,1,42,1,64,1,-138,1,98,1,234,1,199,1,158,1,125,1
1776,83,1,85,1,2,1,-84,1,41,1,44,1,-137,1,82,1,207,1,167,1,133,1,106,1
1777,69,1,67,1,-2,1,-68,1,36,1,33,1,-139,1,49,1,161,1,126,1,109,1,90,1
1778,53,1,55,1,2,1,-54,1,26,1,29,1,-144,1,4,1,108,1,85,1,84,1,74,1
1779,35,1,41,1,6,1,-38,1,15,1,24,1,-147,1,-50,1,50,1,41,1,56,1,56,1
1780,16,1,27,1,11,1,-21,1,3,1,19,1,-152,1,-118,1,-12,1,-4,1,27,1,37,1
1781,-6,1,15,1,21,1,-4,1,-13,1,18,1,-155,1,-201,1,-81,1,-49,1,-1,1,16,1
1782,-22,1,0,1,22,1,11,1,-22,1,11,1,-160,1,-256,1,-129,1,-82,1,-25,1,0,1
1783,-29,1,-12,1,17,1,20,1,-23,1,2,1,-169,1,-277,1,-155,1,-103,1,-43,1,-12,1
1784,-36,1,-20,1,16,1,28,1,-26,1,-2,1,-168,1,-274,1,-160,1,-109,1,-51,1,-21,1
1785,-38,1,-24,1,14,1,31,1,-26,1,-5,1,-161,1,-259,1,-155,1,-108,1,-56,1,-27,1
