TS,I,If,II,IIf,III,IIIf,aVR,aVRf,aVL,aVLf,aVF,aVFf,V1,V1f,V2,V2f,V3,V3f,V4,V4f,V5,V5f,V6,V6f
1,-52,1,12,1,64,1,20,1,-58,1,38,1,14,1,20,1,56,1,61,1,14,1,84,1
2,-52,1,13,1,65,1,19,1,-58,1,39,1,12,1,18,1,56,1,60,1,15,1,83,1
3,-53,1,10,1,63,1,21,1,-58,1,36,1,12,1,18,1,56,1,58,1,14,1,81,1
4,-53,1,10,1,63,1,21,1,-58,1,36,1,12,1,16,1,56,1,57,1,16,1,81,1
5,-51,1,9,1,60,1,21,1,-55,1,34,1,13,1,17,1,57,1,60,1,23,1,81,1
6,-51,1,8,1,59,1,21,1,-55,1,33,1,14,1,19,1,58,1,62,1,28,1,82,1
7,-52,1,7,1,59,1,22,1,-55,1,33,1,12,1,18,1,58,1,61,1,27,1,80,1
8,-51,1,10,1,61,1,20,1,-56,1,35,1,14,1,18,1,58,1,56,1,23,1,75,1
9,-48,1,14,1,62,1,17,1,-55,1,38,1,17,1,20,1,59,1,50,1,19,1,69,1
10,-46,1,15,1,61,1,15,1,-53,1,38,1,18,1,19,1,56,1,44,1,18,1,63,1
11,-44,1,13,1,57,1,15,1,-50,1,35,1,15,1,16,1,52,1,41,1,20,1,61,1
12,-47,1,10,1,57,1,18,1,-52,1,33,1,12,1,15,1,50,1,47,1,24,1,59,1
13,-48,1,8,1,56,1,20,1,-52,1,32,1,9,1,15,1,50,1,51,1,26,1,58,1
14,-49,1,7,1,56,1,21,1,-52,1,31,1,10,1,19,1,52,1,54,1,28,1,59,1
15,-57,1,6,1,63,1,25,1,-60,1,34,1,12,1,22,1,54,1,56,1,32,1,61,1
16,-57,1,4,1,61,1,26,1,-59,1,32,1,12,1,22,1,55,1,58,1,35,1,62,1
17,-51,1,5,1,56,1,23,1,-53,1,30,1,12,1,19,1,52,1,59,1,36,1,64,1
18,-49,1,7,1,56,1,21,1,-52,1,31,1,12,1,16,1,51,1,58,1,35,1,63,1
19,-53,1,6,1,59,1,23,1,-56,1,32,1,11,1,14,1,47,1,56,1,33,1,59,1
20,-47,1,11,1,58,1,18,1,-52,1,34,1,9,1,10,1,42,1,52,1,31,1,53,1
21,-52,1,11,1,63,1,20,1,-57,1,37,1,9,1,10,1,44,1,52,1,32,1,52,1
22,-57,1,11,1,68,1,23,1,-62,1,39,1,10,1,14,1,49,1,56,1,39,1,54,1
23,-57,1,11,1,68,1,23,1,-62,1,39,1,11,1,15,1,53,1,56,1,41,1,53,1
24,-50,1,12,1,62,1,19,1,-56,1,37,1,10,1,16,1,56,1,55,1,42,1,51,1
25,-43,1,10,1,53,1,16,1,-48,1,31,1,8,1,12,1,53,1,48,1,42,1,49,1
26,-49,1,9,1,58,1,20,1,-53,1,33,1,11,1,13,1,52,1,40,1,42,1,49,1
27,-54,1,4,1,58,1,25,1,-56,1,31,1,11,1,13,1,49,1,30,1,38,1,47,1
28,-55,1,-2,1,53,1,28,1,-54,1,25,1,9,1,9,1,47,1,30,1,34,1,44,1
29,-53,1,5,1,58,1,24,1,-55,1,31,1,15,1,12,1,50,1,44,1,40,1,47,1
30,-53,1,6,1,59,1,23,1,-56,1,32,1,15,1,14,1,52,1,52,1,43,1,45,1
31,-55,1,10,1,65,1,22,1,-60,1,37,1,15,1,17,1,54,1,57,1,45,1,43,1
32,-53,1,13,1,66,1,20,1,-59,1,39,1,16,1,21,1,57,1,65,1,49,1,45,1
33,-47,1,13,1,60,1,17,1,-53,1,36,1,17,1,24,1,56,1,67,1,51,1,43,1
34,-47,1,10,1,57,1,18,1,-52,1,33,1,18,1,23,1,55,1,66,1,55,1,41,1
35,-52,1,5,1,57,1,23,1,-54,1,31,1,19,1,24,1,56,1,65,1,59,1,38,1
36,-60,1,-1,1,59,1,30,1,-60,1,29,1,20,1,22,1,58,1,64,1,62,1,35,1
37,-59,1,-4,1,55,1,31,1,-57,1,25,1,20,1,21,1,57,1,60,1,64,1,34,1
38,-50,1,-2,1,48,1,26,1,-49,1,23,1,20,1,16,1,54,1,56,1,64,1,31,1
39,-40,1,1,1,41,1,19,1,-40,1,21,1,19,1,14,1,55,1,55,1,65,1,28,1
40,-47,1,-2,1,45,1,24,1,-46,1,21,1,20,1,15,1,58,1,58,1,68,1,23,1
41,-49,1,-6,1,43,1,27,1,-46,1,18,1,20,1,17,1,56,1,56,1,66,1,16,1
42,-55,1,-10,1,45,1,32,1,-50,1,17,1,20,1,18,1,55,1,55,1,64,1,13,1
43,-58,1,-8,1,50,1,33,1,-54,1,21,1,23,1,22,1,54,1,55,1,67,1,14,1
44,-56,1,-10,1,46,1,33,1,-51,1,18,1,25,1,22,1,50,1,49,1,66,1,12,1
45,-51,1,-12,1,39,1,31,1,-45,1,13,1,25,1,19,1,47,1,47,1,64,1,8,1
46,-50,1,-16,1,34,1,33,1,-42,1,9,1,22,1,14,1,44,1,44,1,62,1,5,1
47,-49,1,-17,1,32,1,33,1,-41,1,7,1,21,1,14,1,41,1,44,1,62,1,3,1
48,-46,1,-19,1,27,1,32,1,-37,1,4,1,18,1,12,1,38,1,42,1,59,1,1,1
49,-47,1,-20,1,27,1,33,1,-37,1,3,1,21,1,15,1,38,1,39,1,60,1,-2,1
50,-58,1,-21,1,37,1,39,1,-48,1,8,1,26,1,20,1,42,1,38,1,65,1,-7,1
51,-67,1,-26,1,41,1,46,1,-54,1,7,1,23,1,20,1,42,1,31,1,66,1,-12,1
52,-69,1,-29,1,40,1,49,1,-55,1,5,1,18,1,20,1,40,1,29,1,64,1,-17,1
53,-60,1,-26,1,34,1,43,1,-47,1,4,1,17,1,18,1,37,1,33,1,65,1,-19,1
54,-58,1,-23,1,35,1,40,1,-47,1,6,1,18,1,19,1,36,1,33,1,66,1,-20,1
55,-59,1,-23,1,36,1,41,1,-48,1,6,1,18,1,19,1,38,1,34,1,63,1,-24,1
56,-55,1,-20,1,35,1,37,1,-45,1,7,1,20,1,17,1,37,1,33,1,63,1,-26,1
57,-58,1,-24,1,34,1,41,1,-46,1,5,1,20,1,18,1,36,1,34,1,64,1,-30,1
58,-60,1,-24,1,36,1,42,1,-48,1,6,1,20,1,23,1,38,1,36,1,66,1,-32,1
59,-62,1,-23,1,39,1,42,1,-51,1,8,1,22,1,30,1,42,1,37,1,70,1,-31,1
60,-65,1,-23,1,42,1,44,1,-54,1,9,1,25,1,31,1,41,1,39,1,74,1,-32,1
61,-59,1,-23,1,36,1,41,1,-48,1,6,1,22,1,24,1,35,1,38,1,73,1,-38,1
62,-54,1,-21,1,33,1,37,1,-44,1,6,1,21,1,22,1,31,1,35,1,72,1,-42,1
63,-51,1,-20,1,31,1,35,1,-41,1,5,1,20,1,22,1,30,1,31,1,70,1,-45,1
64,-50,1,-19,1,31,1,34,1,-41,1,6,1,20,1,25,1,32,1,29,1,70,1,-44,1
65,-52,1,-20,1,32,1,36,1,-42,1,6,1,20,1,27,1,32,1,29,1,71,1,-44,1
66,-58,1,-24,1,34,1,41,1,-46,1,5,1,20,1,29,1,32,1,29,1,72,1,-43,1
67,-56,1,-21,1,35,1,38,1,-46,1,7,1,23,1,30,1,32,1,30,1,73,1,-42,1
68,-58,1,-26,1,32,1,42,1,-45,1,3,1,21,1,24,1,26,1,25,1,70,1,-44,1
69,-61,1,-27,1,34,1,44,1,-48,1,3,1,19,1,26,1,24,1,25,1,70,1,-44,1
70,-62,1,-29,1,33,1,45,1,-48,1,2,1,15,1,30,1,22,1,24,1,70,1,-46,1
71,-58,1,-27,1,31,1,42,1,-45,1,2,1,14,1,32,1,21,1,21,1,72,1,-48,1
72,-54,1,-25,1,29,1,39,1,-42,1,2,1,14,1,34,1,20,1,20,1,74,1,-48,1
73,-51,1,-24,1,27,1,37,1,-39,1,1,1,13,1,34,1,21,1,22,1,76,1,-48,1
74,-50,1,-22,1,28,1,36,1,-39,1,3,1,13,1,31,1,20,1,20,1,75,1,-50,1
75,-49,1,-19,1,30,1,34,1,-40,1,5,1,12,1,29,1,20,1,19,1,75,1,-51,1
76,-53,1,-20,1,33,1,36,1,-43,1,6,1,10,1,28,1,20,1,19,1,74,1,-54,1
77,-56,1,-20,1,36,1,38,1,-46,1,8,1,8,1,31,1,21,1,21,1,75,1,-55,1
78,-52,1,-19,1,33,1,35,1,-43,1,7,1,8,1,34,1,24,1,24,1,75,1,-56,1
79,-49,1,-17,1,32,1,33,1,-41,1,7,1,10,1,38,1,31,1,27,1,75,1,-58,1
80,-50,1,-21,1,29,1,35,1,-40,1,4,1,11,1,44,1,42,1,32,1,78,1,-59,1
81,-48,1,-20,1,28,1,34,1,-38,1,4,1,13,1,48,1,56,1,38,1,85,1,-58,1
82,-46,1,-17,1,29,1,31,1,-38,1,6,1,14,1,52,1,72,1,50,1,94,1,-57,1
83,-38,1,-5,1,33,1,21,1,-36,1,14,1,15,1,55,1,88,1,65,1,105,1,-51,1
84,-37,1,1,1,38,1,18,1,-37,1,19,1,12,1,57,1,104,1,78,1,115,1,-46,1
85,-38,1,7,1,45,1,15,1,-41,1,26,1,6,1,58,1,116,1,89,1,123,1,-40,1
86,-28,1,15,1,43,1,6,1,-35,1,29,1,-3,1,57,1,124,1,100,1,133,1,-33,1
87,-31,1,22,1,53,1,4,1,-42,1,37,1,-12,1,61,1,136,1,123,1,152,1,-19,1
88,-32,1,27,1,59,1,2,1,-45,1,43,1,-21,1,67,1,148,1,151,1,174,1,-4,1
89,-22,1,35,1,57,1,-6,1,-39,1,46,1,-32,1,70,1,156,1,182,1,196,1,8,1
90,-6,1,43,1,49,1,-18,1,-27,1,46,1,-46,1,70,1,162,1,210,1,219,1,23,1
91,1,1,49,1,48,1,-25,1,-23,1,49,1,-59,1,71,1,169,1,237,1,243,1,37,1
92,8,1,51,1,43,1,-29,1,-17,1,47,1,-73,1,68,1,171,1,261,1,265,1,51,1
93,18,1,53,1,35,1,-35,1,-8,1,44,1,-86,1,61,1,168,1,279,1,283,1,62,1
94,27,1,58,1,31,1,-42,1,-2,1,45,1,-96,1,50,1,158,1,291,1,297,1,73,1
95,27,1,57,1,30,1,-42,1,-1,1,44,1,-106,1,37,1,138,1,291,1,304,1,78,1
96,28,1,57,1,29,1,-42,1,0,1,43,1,-111,1,22,1,105,1,283,1,307,1,83,1
97,36,1,63,1,27,1,-49,1,5,1,45,1,-116,1,8,1,67,1,273,1,312,1,91,1
98,32,1,65,1,33,1,-48,1,0,1,49,1,-116,1,-6,1,23,1,257,1,318,1,98,1
99,24,1,69,1,45,1,-46,1,-10,1,57,1,-120,1,-24,1,-23,1,236,1,319,1,101,1
100,9,1,57,1,48,1,-33,1,-19,1,53,1,-121,1,-39,1,-62,1,209,1,314,1,97,1
101,7,1,52,1,45,1,-29,1,-19,1,49,1,-117,1,-46,1,-88,1,187,1,310,1,94,1
102,5,1,49,1,44,1,-27,1,-19,1,47,1,-111,1,-52,1,-107,1,164,1,305,1,91,1
103,6,1,47,1,41,1,-26,1,-17,1,44,1,-103,1,-55,1,-121,1,140,1,295,1,83,1
104,10,1,40,1,30,1,-25,1,-10,1,35,1,-95,1,-58,1,-131,1,115,1,279,1,71,1
105,6,1,28,1,22,1,-17,1,-8,1,25,1,-86,1,-56,1,-137,1,94,1,262,1,58,1
106,-4,1,12,1,16,1,-4,1,-10,1,14,1,-79,1,-53,1,-140,1,71,1,241,1,43,1
107,-15,1,-6,1,9,1,10,1,-12,1,1,1,-68,1,-47,1,-142,1,48,1,215,1,24,1
108,-26,1,-24,1,2,1,25,1,-14,1,-11,1,-56,1,-42,1,-141,1,28,1,189,1,6,1
109,-32,1,-43,1,-11,1,37,1,-11,1,-27,1,-45,1,-36,1,-139,1,6,1,161,1,-16,1
110,-33,1,-60,1,-27,1,46,1,-3,1,-44,1,-37,1,-33,1,-138,1,-17,1,129,1,-42,1
111,-36,1,-76,1,-40,1,56,1,2,1,-58,1,-31,1,-34,1,-141,1,-41,1,98,1,-67,1
112,-47,1,-86,1,-39,1,66,1,-4,1,-63,1,-21,1,-30,1,-136,1,-58,1,76,1,-84,1
113,-51,1,-85,1,-34,1,68,1,-9,1,-60,1,-12,1,-27,1,-130,1,-70,1,58,1,-97,1
114,-52,1,-86,1,-34,1,69,1,-9,1,-60,1,-8,1,-32,1,-126,1,-84,1,41,1,-110,1
115,-54,1,-85,1,-31,1,69,1,-12,1,-58,1,0,1,-33,1,-122,1,-94,1,26,1,-121,1
116,-48,1,-78,1,-30,1,63,1,-9,1,-54,1,5,1,-31,1,-118,1,-99,1,16,1,-129,1
117,-49,1,-75,1,-26,1,62,1,-12,1,-51,1,10,1,-30,1,-114,1,-101,1,9,1,-133,1
118,-57,1,-82,1,-25,1,69,1,-16,1,-54,1,12,1,-32,1,-113,1,-104,1,0,1,-141,1
119,-58,1,-87,1,-29,1,72,1,-15,1,-58,1,10,1,-35,1,-113,1,-110,1,-11,1,-152,1
120,-59,1,-91,1,-32,1,75,1,-14,1,-62,1,13,1,-33,1,-112,1,-113,1,-21,1,-162,1
121,-60,1,-95,1,-35,1,77,1,-13,1,-65,1,17,1,-29,1,-108,1,-115,1,-28,1,-168,1
122,-62,1,-98,1,-36,1,80,1,-13,1,-67,1,18,1,-28,1,-105,1,-116,1,-32,1,-171,1
123,-70,1,-97,1,-27,1,83,1,-22,1,-62,1,20,1,-26,1,-98,1,-113,1,-29,1,-166,1
124,-77,1,-96,1,-19,1,86,1,-29,1,-58,1,21,1,-22,1,-93,1,-109,1,-25,1,-159,1
125,-85,1,-92,1,-7,1,88,1,-39,1,-50,1,23,1,-17,1,-88,1,-101,1,-17,1,-150,1
126,-92,1,-92,1,0,1,92,1,-46,1,-46,1,22,1,-20,1,-88,1,-100,1,-16,1,-146,1
127,-87,1,-86,1,1,1,86,1,-44,1,-43,1,19,1,-27,1,-92,1,-102,1,-18,1,-147,1
128,-83,1,-78,1,5,1,80,1,-44,1,-37,1,18,1,-34,1,-95,1,-103,1,-18,1,-145,1
129,-78,1,-74,1,4,1,76,1,-41,1,-35,1,16,1,-37,1,-96,1,-104,1,-19,1,-146,1
130,-72,1,-71,1,1,1,71,1,-37,1,-35,1,15,1,-39,1,-96,1,-105,1,-23,1,-149,1
131,-73,1,-76,1,-3,1,74,1,-35,1,-40,1,14,1,-42,1,-98,1,-108,1,-28,1,-151,1
132,-66,1,-72,1,-6,1,69,1,-30,1,-39,1,16,1,-40,1,-97,1,-109,1,-29,1,-149,1
133,-57,1,-63,1,-6,1,60,1,-26,1,-35,1,20,1,-38,1,-95,1,-105,1,-27,1,-142,1
134,-60,1,-62,1,-2,1,61,1,-29,1,-32,1,20,1,-37,1,-95,1,-107,1,-28,1,-140,1
135,-63,1,-63,1,0,1,63,1,-32,1,-32,1,18,1,-37,1,-97,1,-108,1,-29,1,-139,1
136,-61,1,-62,1,-1,1,61,1,-30,1,-32,1,17,1,-37,1,-98,1,-108,1,-31,1,-140,1
137,-63,1,-63,1,0,1,63,1,-32,1,-32,1,18,1,-32,1,-97,1,-106,1,-32,1,-140,1
138,-67,1,-68,1,-1,1,67,1,-33,1,-35,1,19,1,-26,1,-96,1,-104,1,-31,1,-140,1
139,-67,1,-70,1,-3,1,68,1,-32,1,-37,1,18,1,-25,1,-96,1,-102,1,-29,1,-137,1
140,-71,1,-72,1,-1,1,71,1,-35,1,-37,1,19,1,-28,1,-97,1,-102,1,-28,1,-135,1
141,-74,1,-72,1,2,1,73,1,-38,1,-35,1,19,1,-36,1,-100,1,-103,1,-27,1,-134,1
142,-74,1,-68,1,6,1,71,1,-40,1,-31,1,17,1,-47,1,-104,1,-107,1,-31,1,-136,1
143,-65,1,-63,1,2,1,64,1,-34,1,-31,1,16,1,-60,1,-114,1,-119,1,-41,1,-143,1
144,-65,1,-61,1,4,1,63,1,-35,1,-29,1,19,1,-65,1,-118,1,-126,1,-49,1,-148,1
145,-73,1,-63,1,10,1,68,1,-42,1,-27,1,21,1,-63,1,-119,1,-130,1,-53,1,-148,1
146,-73,1,-63,1,10,1,68,1,-42,1,-27,1,21,1,-60,1,-121,1,-130,1,-54,1,-146,1
147,-69,1,-65,1,4,1,67,1,-37,1,-31,1,17,1,-62,1,-123,1,-130,1,-53,1,-144,1
148,-70,1,-66,1,4,1,68,1,-37,1,-31,1,16,1,-64,1,-122,1,-127,1,-51,1,-143,1
149,-68,1,-62,1,6,1,65,1,-37,1,-28,1,14,1,-64,1,-122,1,-123,1,-49,1,-142,1
150,-64,1,-56,1,8,1,60,1,-36,1,-24,1,15,1,-68,1,-121,1,-122,1,-47,1,-141,1
151,-69,1,-56,1,13,1,62,1,-41,1,-22,1,13,1,-73,1,-125,1,-122,1,-46,1,-139,1
152,-76,1,-54,1,22,1,65,1,-49,1,-16,1,13,1,-78,1,-127,1,-122,1,-44,1,-134,1
153,-70,1,-48,1,22,1,59,1,-46,1,-13,1,12,1,-81,1,-128,1,-124,1,-46,1,-134,1
154,-66,1,-45,1,21,1,55,1,-44,1,-12,1,12,1,-79,1,-128,1,-127,1,-51,1,-135,1
155,-65,1,-47,1,18,1,56,1,-42,1,-15,1,16,1,-77,1,-130,1,-133,1,-59,1,-139,1
156,-71,1,-54,1,17,1,62,1,-44,1,-19,1,18,1,-75,1,-132,1,-139,1,-66,1,-142,1
157,-68,1,-53,1,15,1,60,1,-42,1,-19,1,23,1,-70,1,-131,1,-138,1,-67,1,-139,1
158,-66,1,-55,1,11,1,60,1,-39,1,-22,1,25,1,-66,1,-128,1,-135,1,-66,1,-138,1
159,-72,1,-61,1,11,1,66,1,-42,1,-25,1,25,1,-65,1,-126,1,-133,1,-65,1,-139,1
160,-76,1,-61,1,15,1,68,1,-46,1,-23,1,30,1,-60,1,-123,1,-129,1,-61,1,-136,1
161,-75,1,-55,1,20,1,65,1,-48,1,-18,1,30,1,-57,1,-119,1,-125,1,-56,1,-130,1
162,-76,1,-55,1,21,1,65,1,-49,1,-17,1,26,1,-62,1,-124,1,-128,1,-57,1,-131,1
163,-71,1,-51,1,20,1,61,1,-46,1,-16,1,21,1,-69,1,-132,1,-134,1,-63,1,-134,1
164,-64,1,-47,1,17,1,55,1,-41,1,-15,1,18,1,-75,1,-138,1,-138,1,-66,1,-134,1
165,-62,1,-44,1,18,1,53,1,-40,1,-13,1,14,1,-78,1,-138,1,-139,1,-67,1,-136,1
166,-64,1,-41,1,23,1,52,1,-44,1,-9,1,13,1,-78,1,-135,1,-138,1,-66,1,-135,1
167,-69,1,-39,1,30,1,54,1,-50,1,-5,1,16,1,-76,1,-131,1,-136,1,-66,1,-135,1
168,-72,1,-41,1,31,1,56,1,-52,1,-5,1,16,1,-80,1,-133,1,-140,1,-72,1,-142,1
169,-67,1,-45,1,22,1,56,1,-45,1,-12,1,12,1,-88,1,-138,1,-146,1,-78,1,-148,1
170,-65,1,-49,1,16,1,57,1,-41,1,-17,1,9,1,-91,1,-138,1,-149,1,-81,1,-152,1
171,-61,1,-50,1,11,1,55,1,-36,1,-20,1,12,1,-88,1,-136,1,-150,1,-82,1,-153,1
172,-58,1,-52,1,6,1,55,1,-32,1,-23,1,16,1,-83,1,-133,1,-148,1,-83,1,-154,1
173,-67,1,-50,1,17,1,58,1,-42,1,-17,1,21,1,-74,1,-126,1,-139,1,-75,1,-148,1
174,-76,1,-45,1,31,1,60,1,-54,1,-7,1,25,1,-67,1,-116,1,-129,1,-66,1,-139,1
175,-79,1,-34,1,45,1,56,1,-62,1,5,1,26,1,-63,1,-108,1,-121,1,-57,1,-133,1
176,-76,1,-27,1,49,1,51,1,-63,1,11,1,29,1,-64,1,-103,1,-117,1,-54,1,-131,1
177,-75,1,-22,1,53,1,48,1,-64,1,15,1,33,1,-63,1,-96,1,-114,1,-54,1,-132,1
178,-72,1,-19,1,53,1,45,1,-63,1,17,1,38,1,-57,1,-87,1,-108,1,-51,1,-132,1
179,-70,1,-15,1,55,1,42,1,-63,1,20,1,40,1,-49,1,-79,1,-102,1,-48,1,-131,1
180,-62,1,-7,1,55,1,34,1,-59,1,24,1,39,1,-43,1,-72,1,-97,1,-45,1,-128,1
181,-64,1,-13,1,51,1,38,1,-58,1,19,1,32,1,-52,1,-72,1,-101,1,-51,1,-134,1
182,-65,1,-15,1,50,1,40,1,-58,1,17,1,32,1,-54,1,-71,1,-103,1,-56,1,-140,1
183,-64,1,-8,1,56,1,36,1,-60,1,24,1,38,1,-46,1,-62,1,-96,1,-53,1,-138,1
184,-65,1,-4,1,61,1,34,1,-63,1,28,1,43,1,-37,1,-53,1,-90,1,-52,1,-137,1
185,-72,1,-9,1,63,1,40,1,-68,1,27,1,46,1,-30,1,-47,1,-84,1,-51,1,-136,1
186,-69,1,-11,1,58,1,40,1,-64,1,23,1,45,1,-28,1,-39,1,-76,1,-46,1,-132,1
187,-69,1,-12,1,57,1,40,1,-63,1,22,1,46,1,-27,1,-32,1,-66,1,-39,1,-126,1
188,-66,1,-9,1,57,1,37,1,-62,1,24,1,48,1,-30,1,-28,1,-60,1,-31,1,-122,1
189,-68,1,-10,1,58,1,39,1,-63,1,24,1,47,1,-35,1,-28,1,-57,1,-25,1,-119,1
190,-56,1,2,1,58,1,27,1,-57,1,30,1,48,1,-37,1,-24,1,-49,1,-15,1,-110,1
191,-51,1,14,1,65,1,18,1,-58,1,39,1,51,1,-35,1,-18,1,-40,1,-6,1,-105,1
192,-54,1,16,1,70,1,19,1,-62,1,43,1,48,1,-38,1,-17,1,-38,1,-8,1,-108,1
193,-53,1,18,1,71,1,17,1,-62,1,44,1,45,1,-43,1,-17,1,-40,1,-13,1,-114,1
194,-57,1,14,1,71,1,21,1,-64,1,42,1,43,1,-45,1,-15,1,-40,1,-16,1,-117,1
195,-57,1,12,1,69,1,22,1,-63,1,40,1,45,1,-42,1,-9,1,-35,1,-17,1,-114,1
196,-56,1,5,1,61,1,25,1,-58,1,33,1,43,1,-41,1,-5,1,-33,1,-19,1,-115,1
197,-57,1,-1,1,56,1,29,1,-57,1,27,1,41,1,-41,1,-4,1,-30,1,-20,1,-116,1
198,-50,1,3,1,53,1,23,1,-51,1,28,1,41,1,-34,1,2,1,-22,1,-14,1,-111,1
199,-45,1,4,1,49,1,20,1,-47,1,26,1,40,1,-30,1,5,1,-15,1,-10,1,-109,1
200,-46,1,7,1,53,1,19,1,-49,1,30,1,43,1,-23,1,10,1,-8,1,-5,1,-108,1
201,-40,1,18,1,58,1,11,1,-49,1,38,1,48,1,-20,1,18,1,1,1,3,1,-103,1
202,-38,1,21,1,59,1,8,1,-48,1,40,1,47,1,-22,1,20,1,7,1,9,1,-100,1
203,-44,1,15,1,59,1,14,1,-51,1,37,1,43,1,-24,1,20,1,8,1,10,1,-100,1
204,-51,1,16,1,67,1,17,1,-59,1,41,1,41,1,-21,1,25,1,13,1,13,1,-97,1
205,-47,1,29,1,76,1,9,1,-61,1,52,1,45,1,-13,1,34,1,23,1,22,1,-88,1
206,-43,1,32,1,75,1,5,1,-59,1,53,1,43,1,-10,1,37,1,27,1,23,1,-89,1
207,-48,1,28,1,76,1,10,1,-62,1,52,1,40,1,-7,1,37,1,28,1,21,1,-93,1
208,-53,1,26,1,79,1,13,1,-66,1,52,1,38,1,-5,1,37,1,31,1,24,1,-94,1
209,-46,1,27,1,73,1,9,1,-59,1,50,1,34,1,-6,1,35,1,35,1,30,1,-91,1
210,-44,1,28,1,72,1,8,1,-58,1,50,1,35,1,-1,1,36,1,42,1,37,1,-87,1
211,-42,1,27,1,69,1,7,1,-55,1,48,1,34,1,3,1,35,1,40,1,36,1,-88,1
212,-45,1,25,1,70,1,10,1,-57,1,47,1,35,1,10,1,37,1,38,1,30,1,-93,1
213,-41,1,29,1,70,1,6,1,-55,1,49,1,39,1,16,1,40,1,39,1,27,1,-94,1
214,-42,1,29,1,71,1,6,1,-56,1,50,1,40,1,17,1,40,1,41,1,29,1,-90,1
215,-46,1,21,1,67,1,12,1,-56,1,44,1,33,1,9,1,33,1,39,1,31,1,-87,1
216,-41,1,23,1,64,1,9,1,-52,1,43,1,29,1,0,1,30,1,41,1,36,1,-81,1
217,-41,1,28,1,69,1,6,1,-55,1,48,1,32,1,-3,1,31,1,45,1,44,1,-75,1
218,-44,1,20,1,64,1,12,1,-54,1,42,1,28,1,-9,1,25,1,42,1,40,1,-82,1
219,-47,1,14,1,61,1,16,1,-54,1,37,1,24,1,-11,1,18,1,37,1,35,1,-92,1
220,-39,1,21,1,60,1,9,1,-49,1,40,1,29,1,-5,1,19,1,37,1,34,1,-97,1
221,-36,1,31,1,67,1,2,1,-51,1,49,1,35,1,7,1,24,1,41,1,34,1,-96,1
222,-35,1,34,1,69,1,0,1,-52,1,51,1,36,1,19,1,26,1,42,1,34,1,-95,1
223,-29,1,29,1,58,1,0,1,-43,1,43,1,31,1,17,1,23,1,39,1,30,1,-97,1
224,-34,1,25,1,59,1,4,1,-46,1,42,1,28,1,13,1,23,1,38,1,30,1,-97,1
225,-49,1,23,1,72,1,13,1,-60,1,47,1,28,1,16,1,24,1,42,1,34,1,-94,1
226,-48,1,24,1,72,1,12,1,-60,1,48,1,24,1,15,1,23,1,43,1,37,1,-94,1
227,-43,1,26,1,69,1,8,1,-56,1,47,1,20,1,10,1,21,1,43,1,40,1,-93,1
228,-38,1,28,1,66,1,5,1,-52,1,47,1,19,1,11,1,18,1,39,1,37,1,-96,1
229,-38,1,28,1,66,1,5,1,-52,1,47,1,20,1,15,1,18,1,37,1,35,1,-96,1
230,-37,1,31,1,68,1,3,1,-52,1,49,1,24,1,22,1,23,1,42,1,40,1,-95,1
231,-36,1,33,1,69,1,1,1,-52,1,51,1,27,1,32,1,28,1,48,1,46,1,-90,1
232,-38,1,28,1,66,1,5,1,-52,1,47,1,30,1,33,1,29,1,47,1,45,1,-92,1
233,-34,1,30,1,64,1,2,1,-49,1,47,1,34,1,33,1,30,1,49,1,48,1,-88,1
234,-29,1,39,1,68,1,-5,1,-48,1,53,1,37,1,34,1,33,1,55,1,55,1,-81,1
235,-26,1,41,1,67,1,-7,1,-46,1,54,1,34,1,28,1,28,1,47,1,50,1,-84,1
236,-25,1,39,1,64,1,-7,1,-44,1,51,1,30,1,17,1,20,1,35,1,40,1,-91,1
237,-25,1,34,1,59,1,-4,1,-42,1,46,1,26,1,10,1,12,1,28,1,35,1,-94,1
238,-32,1,29,1,61,1,1,1,-46,1,45,1,27,1,10,1,12,1,29,1,38,1,-93,1
239,-31,1,28,1,59,1,1,1,-45,1,43,1,31,1,14,1,16,1,33,1,43,1,-90,1
240,-25,1,35,1,60,1,-5,1,-42,1,47,1,37,1,19,1,18,1,35,1,42,1,-91,1
241,-29,1,38,1,67,1,-4,1,-48,1,52,1,40,1,24,1,21,1,38,1,42,1,-90,1
242,-37,1,30,1,67,1,3,1,-52,1,48,1,34,1,22,1,18,1,35,1,41,1,-90,1
243,-45,1,23,1,68,1,11,1,-56,1,45,1,30,1,25,1,16,1,32,1,41,1,-89,1
244,-47,1,27,1,74,1,10,1,-60,1,50,1,31,1,32,1,19,1,36,1,45,1,-85,1
245,-55,1,26,1,81,1,14,1,-68,1,53,1,31,1,32,1,16,1,36,1,46,1,-86,1
246,-53,1,23,1,76,1,15,1,-64,1,49,1,28,1,25,1,15,1,34,1,44,1,-90,1
247,-50,1,26,1,76,1,12,1,-63,1,51,1,31,1,22,1,16,1,35,1,45,1,-89,1
248,-43,1,34,1,77,1,4,1,-60,1,55,1,37,1,23,1,18,1,37,1,49,1,-86,1
249,-49,1,33,1,82,1,8,1,-65,1,57,1,40,1,26,1,19,1,40,1,52,1,-85,1
250,-51,1,33,1,84,1,9,1,-67,1,58,1,39,1,28,1,22,1,44,1,59,1,-78,1
251,-42,1,43,1,85,1,0,1,-63,1,64,1,38,1,29,1,26,1,50,1,67,1,-69,1
252,-34,1,48,1,82,1,-7,1,-58,1,65,1,36,1,23,1,24,1,46,1,65,1,-66,1
253,-34,1,44,1,78,1,-5,1,-56,1,61,1,30,1,9,1,16,1,32,1,49,1,-76,1
254,-29,1,48,1,77,1,-9,1,-53,1,62,1,32,1,4,1,11,1,22,1,35,1,-89,1
255,-29,1,48,1,77,1,-9,1,-53,1,62,1,36,1,7,1,11,1,21,1,31,1,-98,1
256,-39,1,35,1,74,1,2,1,-56,1,54,1,34,1,13,1,11,1,24,1,33,1,-99,1
257,-51,1,22,1,73,1,14,1,-62,1,47,1,30,1,13,1,10,1,29,1,39,1,-94,1
258,-53,1,26,1,79,1,13,1,-66,1,52,1,31,1,15,1,12,1,36,1,50,1,-82,1
259,-44,1,42,1,86,1,1,1,-65,1,64,1,36,1,15,1,17,1,41,1,57,1,-74,1
260,-45,1,45,1,90,1,0,1,-67,1,67,1,35,1,12,1,17,1,41,1,58,1,-74,1
261,-57,1,36,1,93,1,10,1,-75,1,64,1,29,1,4,1,13,1,38,1,55,1,-75,1
262,-48,1,41,1,89,1,3,1,-68,1,65,1,27,1,5,1,11,1,36,1,54,1,-76,1
263,-48,1,35,1,83,1,6,1,-65,1,59,1,24,1,9,1,7,1,32,1,49,1,-81,1
264,-51,1,25,1,76,1,13,1,-63,1,50,1,23,1,13,1,3,1,26,1,40,1,-87,1
265,-44,1,30,1,74,1,7,1,-59,1,52,1,27,1,18,1,7,1,30,1,41,1,-83,1
266,-42,1,35,1,77,1,3,1,-59,1,56,1,31,1,24,1,12,1,38,1,49,1,-75,1
267,-52,1,30,1,82,1,11,1,-67,1,56,1,30,1,24,1,14,1,40,1,52,1,-73,1
268,-58,1,24,1,82,1,17,1,-70,1,53,1,26,1,19,1,10,1,39,1,50,1,-76,1
269,-51,1,24,1,75,1,13,1,-63,1,49,1,20,1,8,1,4,1,34,1,45,1,-82,1
270,-43,1,25,1,68,1,9,1,-55,1,46,1,16,1,1,1,0,1,28,1,40,1,-83,1
271,-45,1,27,1,72,1,9,1,-58,1,49,1,14,1,2,1,0,1,27,1,42,1,-78,1
272,-49,1,29,1,78,1,10,1,-63,1,53,1,14,1,5,1,0,1,31,1,48,1,-71,1
273,-55,1,27,1,82,1,14,1,-68,1,54,1,12,1,5,1,1,1,34,1,54,1,-65,1
274,-59,1,25,1,84,1,17,1,-71,1,54,1,9,1,11,1,2,1,35,1,56,1,-62,1
275,-67,1,24,1,91,1,21,1,-79,1,57,1,10,1,18,1,5,1,37,1,57,1,-59,1
276,-59,1,36,1,95,1,11,1,-77,1,65,1,15,1,23,1,10,1,41,1,58,1,-57,1
277,-52,1,46,1,98,1,3,1,-75,1,72,1,21,1,25,1,13,1,42,1,58,1,-59,1
278,-48,1,45,1,93,1,1,1,-70,1,69,1,21,1,17,1,11,1,43,1,58,1,-60,1
279,-42,1,42,1,84,1,0,1,-63,1,63,1,18,1,3,1,4,1,42,1,57,1,-61,1
280,-43,1,36,1,79,1,3,1,-61,1,57,1,16,1,-3,1,-1,1,37,1,57,1,-60,1
281,-43,1,41,1,84,1,1,1,-63,1,62,1,16,1,0,1,2,1,39,1,59,1,-57,1
282,-41,1,47,1,88,1,-3,1,-64,1,67,1,13,1,3,1,2,1,35,1,52,1,-60,1
283,-51,1,35,1,86,1,8,1,-68,1,60,1,9,1,3,1,-1,1,28,1,42,1,-68,1
284,-49,1,30,1,79,1,9,1,-64,1,54,1,6,1,5,1,-1,1,26,1,39,1,-68,1
285,-58,1,16,1,74,1,21,1,-66,1,45,1,4,1,4,1,-2,1,25,1,39,1,-68,1
286,-59,1,16,1,75,1,21,1,-67,1,45,1,10,1,8,1,3,1,30,1,45,1,-63,1
287,-56,1,21,1,77,1,17,1,-66,1,49,1,18,1,13,1,10,1,37,1,52,1,-58,1
288,-51,1,21,1,72,1,15,1,-61,1,46,1,21,1,14,1,11,1,37,1,52,1,-59,1
289,-64,1,13,1,77,1,25,1,-70,1,45,1,22,1,11,1,9,1,35,1,48,1,-63,1
290,-75,1,4,1,79,1,35,1,-77,1,41,1,18,1,9,1,6,1,31,1,45,1,-67,1
291,-74,1,5,1,79,1,34,1,-76,1,42,1,18,1,12,1,5,1,32,1,46,1,-66,1
292,-82,1,-8,1,74,1,45,1,-78,1,33,1,12,1,7,1,0,1,24,1,39,1,-71,1
293,-95,1,-16,1,79,1,55,1,-87,1,31,1,12,1,10,1,0,1,23,1,38,1,-72,1
294,-100,1,-15,1,85,1,57,1,-93,1,35,1,17,1,18,1,6,1,30,1,44,1,-67,1
295,-102,1,-14,1,88,1,58,1,-95,1,37,1,23,1,28,1,14,1,38,1,54,1,-58,1
296,-104,1,-14,1,90,1,59,1,-97,1,38,1,25,1,31,1,16,1,44,1,60,1,-52,1
297,-108,1,-21,1,87,1,64,1,-98,1,33,1,22,1,23,1,10,1,38,1,54,1,-54,1
298,-106,1,-27,1,79,1,66,1,-93,1,26,1,18,1,11,1,2,1,25,1,40,1,-64,1
299,-99,1,-24,1,75,1,61,1,-87,1,25,1,18,1,4,1,1,1,22,1,36,1,-67,1
300,-92,1,-18,1,74,1,55,1,-83,1,28,1,18,1,4,1,2,1,26,1,41,1,-66,1
301,-89,1,-16,1,73,1,52,1,-81,1,28,1,17,1,5,1,2,1,26,1,42,1,-69,1
302,-88,1,-15,1,73,1,51,1,-81,1,29,1,15,1,6,1,1,1,23,1,38,1,-71,1
303,-86,1,-15,1,71,1,50,1,-79,1,28,1,13,1,7,1,0,1,19,1,31,1,-76,1
304,-90,1,-19,1,71,1,54,1,-81,1,26,1,13,1,11,1,0,1,18,1,28,1,-80,1
305,-86,1,-10,1,76,1,48,1,-81,1,33,1,22,1,21,1,8,1,24,1,33,1,-75,1
306,-76,1,-4,1,72,1,40,1,-74,1,34,1,27,1,24,1,14,1,30,1,40,1,-70,1
307,-81,1,-17,1,64,1,49,1,-73,1,23,1,24,1,13,1,11,1,27,1,38,1,-71,1
308,-86,1,-28,1,58,1,57,1,-72,1,15,1,23,1,4,1,6,1,23,1,34,1,-73,1
309,-80,1,-23,1,57,1,51,1,-69,1,17,1,25,1,1,1,6,1,24,1,34,1,-72,1
310,-75,1,-18,1,57,1,46,1,-66,1,19,1,24,1,2,1,5,1,23,1,34,1,-71,1
311,-72,1,-12,1,60,1,42,1,-66,1,24,1,20,1,5,1,3,1,22,1,35,1,-69,1
312,-95,1,-23,1,72,1,59,1,-84,1,24,1,9,1,7,1,0,1,21,1,33,1,-66,1
313,-110,1,-37,1,73,1,73,1,-92,1,18,1,1,1,5,1,-5,1,13,1,24,1,-74,1
314,-119,1,-43,1,76,1,81,1,-98,1,16,1,-3,1,5,1,-2,1,11,1,18,1,-81,1
315,-131,1,-55,1,76,1,93,1,-104,1,10,1,-4,1,2,1,-1,1,8,1,11,1,-88,1
316,-139,1,-64,1,75,1,101,1,-107,1,5,1,-3,1,3,1,-3,1,3,1,6,1,-92,1
317,-130,1,-61,1,69,1,95,1,-100,1,4,1,-1,1,-3,1,-2,1,1,1,8,1,-90,1
318,-116,1,-58,1,58,1,87,1,-87,1,0,1,-2,1,-14,1,-3,1,0,1,7,1,-90,1
319,-111,1,-54,1,57,1,82,1,-84,1,1,1,-1,1,-13,1,2,1,5,1,13,1,-83,1
320,-98,1,-39,1,59,1,68,1,-79,1,10,1,4,1,-3,1,10,1,15,1,26,1,-71,1
321,-88,1,-26,1,62,1,57,1,-75,1,18,1,7,1,5,1,15,1,25,1,35,1,-61,1
322,-100,1,-31,1,69,1,65,1,-85,1,19,1,2,1,5,1,13,1,24,1,33,1,-60,1
323,-111,1,-41,1,70,1,76,1,-91,1,14,1,0,1,-4,1,2,1,10,1,18,1,-67,1
324,-110,1,-44,1,66,1,77,1,-88,1,11,1,-1,1,-15,1,-7,1,-3,1,4,1,-78,1
325,-93,1,-40,1,53,1,66,1,-73,1,6,1,2,1,-15,1,-6,1,-4,1,0,1,-82,1
326,-91,1,-48,1,43,1,69,1,-67,1,-3,1,4,1,-8,1,0,1,2,1,5,1,-81,1
327,-83,1,-41,1,42,1,62,1,-63,1,0,1,9,1,7,1,13,1,16,1,19,1,-71,1
328,-84,1,-31,1,53,1,57,1,-69,1,11,1,14,1,20,1,24,1,27,1,31,1,-60,1
329,-96,1,-34,1,62,1,65,1,-79,1,14,1,13,1,14,1,27,1,28,1,32,1,-58,1
330,-90,1,-30,1,60,1,60,1,-75,1,15,1,7,1,1,1,27,1,26,1,29,1,-57,1
331,-85,1,-22,1,63,1,53,1,-74,1,20,1,6,1,1,1,36,1,29,1,28,1,-55,1
332,-93,1,-29,1,64,1,61,1,-79,1,17,1,5,1,3,1,46,1,31,1,25,1,-59,1
333,-95,1,-25,1,70,1,60,1,-83,1,22,1,10,1,9,1,61,1,38,1,27,1,-55,1
334,-91,1,-23,1,68,1,57,1,-80,1,22,1,11,1,12,1,75,1,46,1,28,1,-55,1
335,-90,1,-22,1,68,1,56,1,-79,1,23,1,10,1,13,1,88,1,56,1,34,1,-52,1
336,-105,1,-35,1,70,1,70,1,-88,1,17,1,4,1,12,1,98,1,66,1,42,1,-48,1
337,-116,1,-38,1,78,1,77,1,-97,1,20,1,-3,1,12,1,108,1,82,1,54,1,-40,1
338,-116,1,-34,1,82,1,75,1,-99,1,24,1,-15,1,12,1,114,1,97,1,66,1,-31,1
339,-110,1,-29,1,81,1,69,1,-96,1,26,1,-28,1,13,1,120,1,114,1,78,1,-22,1
340,-100,1,-16,1,84,1,58,1,-92,1,34,1,-37,1,16,1,126,1,137,1,94,1,-9,1
341,-79,1,2,1,81,1,38,1,-80,1,41,1,-46,1,17,1,128,1,163,1,116,1,9,1
342,-47,1,25,1,72,1,11,1,-59,1,48,1,-53,1,15,1,131,1,194,1,144,1,33,1
343,-28,1,38,1,66,1,-5,1,-47,1,52,1,-64,1,14,1,134,1,228,1,175,1,57,1
344,-27,1,42,1,69,1,-7,1,-48,1,55,1,-74,1,13,1,136,1,260,1,205,1,83,1
345,-25,1,48,1,73,1,-11,1,-49,1,60,1,-82,1,7,1,136,1,283,1,229,1,103,1
346,-24,1,53,1,77,1,-14,1,-50,1,65,1,-98,1,1,1,129,1,298,1,248,1,119,1
347,-31,1,48,1,79,1,-8,1,-55,1,63,1,-117,1,-11,1,109,1,299,1,257,1,128,1
348,-37,1,37,1,74,1,0,1,-55,1,55,1,-128,1,-21,1,83,1,291,1,260,1,133,1
349,-34,1,38,1,72,1,-2,1,-53,1,55,1,-129,1,-30,1,53,1,281,1,267,1,138,1
350,-32,1,46,1,78,1,-7,1,-55,1,62,1,-128,1,-48,1,12,1,264,1,273,1,143,1
351,-32,1,46,1,78,1,-7,1,-55,1,62,1,-127,1,-61,1,-30,1,242,1,273,1,140,1
352,-29,1,43,1,72,1,-7,1,-50,1,57,1,-120,1,-70,1,-65,1,216,1,265,1,133,1
353,-36,1,28,1,64,1,4,1,-50,1,46,1,-119,1,-80,1,-94,1,185,1,246,1,122,1
354,-43,1,15,1,58,1,14,1,-50,1,36,1,-115,1,-83,1,-112,1,159,1,230,1,113,1
355,-52,1,-1,1,51,1,26,1,-52,1,25,1,-110,1,-80,1,-122,1,135,1,214,1,105,1
356,-64,1,-24,1,40,1,44,1,-52,1,8,1,-102,1,-77,1,-124,1,117,1,203,1,98,1
357,-64,1,-45,1,19,1,54,1,-42,1,-13,1,-91,1,-75,1,-124,1,96,1,190,1,90,1
358,-58,1,-60,1,-2,1,59,1,-28,1,-31,1,-77,1,-73,1,-125,1,68,1,166,1,75,1
359,-57,1,-69,1,-12,1,63,1,-23,1,-41,1,-63,1,-62,1,-122,1,38,1,133,1,54,1
360,-66,1,-79,1,-13,1,72,1,-27,1,-46,1,-49,1,-48,1,-114,1,13,1,98,1,33,1
361,-67,1,-80,1,-13,1,73,1,-27,1,-47,1,-34,1,-32,1,-104,1,-5,1,67,1,15,1
362,-60,1,-85,1,-25,1,72,1,-18,1,-55,1,-28,1,-24,1,-102,1,-25,1,32,1,-9,1
363,-40,1,-90,1,-50,1,65,1,5,1,-70,1,-26,1,-33,1,-110,1,-53,1,-6,1,-35,1
364,-38,1,-98,1,-60,1,68,1,11,1,-79,1,-21,1,-40,1,-115,1,-76,1,-36,1,-55,1
365,-44,1,-106,1,-62,1,75,1,9,1,-84,1,-17,1,-42,1,-112,1,-91,1,-58,1,-68,1
366,-46,1,-111,1,-65,1,78,1,9,1,-88,1,-14,1,-41,1,-107,1,-103,1,-74,1,-83,1
367,-44,1,-105,1,-61,1,74,1,8,1,-83,1,-12,1,-34,1,-96,1,-106,1,-82,1,-92,1
368,-48,1,-93,1,-45,1,70,1,-2,1,-69,1,-9,1,-24,1,-82,1,-99,1,-79,1,-91,1
369,-74,1,-98,1,-24,1,86,1,-25,1,-61,1,-7,1,-19,1,-74,1,-100,1,-86,1,-97,1
370,-91,1,-107,1,-16,1,99,1,-38,1,-62,1,-7,1,-20,1,-73,1,-109,1,-105,1,-113,1
371,-93,1,-108,1,-15,1,100,1,-39,1,-62,1,-1,1,-20,1,-70,1,-114,1,-119,1,-123,1
372,-82,1,-110,1,-28,1,96,1,-27,1,-69,1,-1,1,-24,1,-69,1,-115,1,-125,1,-127,1
373,-86,1,-124,1,-38,1,105,1,-24,1,-81,1,-3,1,-29,1,-72,1,-116,1,-126,1,-128,1
374,-85,1,-123,1,-38,1,104,1,-24,1,-81,1,-1,1,-28,1,-68,1,-112,1,-121,1,-123,1
375,-90,1,-122,1,-32,1,106,1,-29,1,-77,1,0,1,-31,1,-69,1,-115,1,-124,1,-122,1
376,-92,1,-115,1,-23,1,103,1,-35,1,-69,1,2,1,-34,1,-67,1,-119,1,-125,1,-121,1
377,-88,1,-104,1,-16,1,96,1,-36,1,-60,1,5,1,-35,1,-63,1,-117,1,-122,1,-118,1
378,-86,1,-96,1,-10,1,91,1,-38,1,-53,1,9,1,-32,1,-57,1,-115,1,-121,1,-116,1
379,-85,1,-96,1,-11,1,90,1,-37,1,-54,1,8,1,-28,1,-54,1,-113,1,-122,1,-116,1
380,-79,1,-93,1,-14,1,86,1,-33,1,-54,1,8,1,-24,1,-50,1,-108,1,-120,1,-113,1
381,-75,1,-87,1,-12,1,81,1,-32,1,-50,1,6,1,-21,1,-47,1,-102,1,-116,1,-107,1
382,-79,1,-88,1,-9,1,83,1,-35,1,-49,1,4,1,-19,1,-48,1,-101,1,-115,1,-104,1
383,-79,1,-84,1,-5,1,81,1,-37,1,-45,1,9,1,-18,1,-46,1,-97,1,-111,1,-99,1
384,-65,1,-64,1,1,1,64,1,-33,1,-32,1,16,1,-21,1,-44,1,-94,1,-107,1,-90,1
385,-58,1,-57,1,1,1,57,1,-30,1,-28,1,12,1,-31,1,-50,1,-102,1,-112,1,-95,1
386,-40,1,-49,1,-9,1,44,1,-16,1,-29,1,11,1,-33,1,-55,1,-106,1,-115,1,-99,1
387,-31,1,-46,1,-15,1,38,1,-8,1,-31,1,8,1,-29,1,-54,1,-106,1,-113,1,-97,1
388,-31,1,-50,1,-19,1,40,1,-6,1,-35,1,3,1,-31,1,-55,1,-108,1,-112,1,-96,1
389,-36,1,-58,1,-22,1,47,1,-7,1,-40,1,-2,1,-34,1,-58,1,-110,1,-114,1,-97,1
390,-46,1,-64,1,-18,1,55,1,-14,1,-41,1,-3,1,-38,1,-61,1,-113,1,-117,1,-99,1
391,-47,1,-63,1,-16,1,55,1,-16,1,-40,1,-4,1,-41,1,-63,1,-116,1,-120,1,-100,1
392,-44,1,-57,1,-13,1,50,1,-16,1,-35,1,1,1,-41,1,-63,1,-116,1,-121,1,-98,1
393,-39,1,-53,1,-14,1,46,1,-13,1,-34,1,7,1,-41,1,-62,1,-116,1,-124,1,-96,1
394,-46,1,-59,1,-13,1,52,1,-17,1,-36,1,6,1,-42,1,-65,1,-118,1,-127,1,-97,1
395,-63,1,-70,1,-7,1,66,1,-28,1,-39,1,6,1,-38,1,-65,1,-119,1,-129,1,-98,1
396,-61,1,-66,1,-5,1,63,1,-28,1,-36,1,8,1,-29,1,-62,1,-116,1,-129,1,-96,1
397,-54,1,-62,1,-8,1,58,1,-23,1,-35,1,10,1,-24,1,-60,1,-114,1,-127,1,-95,1
398,-50,1,-58,1,-8,1,54,1,-21,1,-33,1,8,1,-24,1,-57,1,-113,1,-127,1,-93,1
399,-44,1,-55,1,-11,1,49,1,-17,1,-33,1,6,1,-29,1,-60,1,-117,1,-129,1,-94,1
400,-38,1,-55,1,-17,1,46,1,-11,1,-36,1,3,1,-35,1,-63,1,-124,1,-135,1,-96,1
401,-30,1,-53,1,-23,1,41,1,-4,1,-38,1,1,1,-40,1,-65,1,-128,1,-139,1,-96,1
402,-21,1,-50,1,-29,1,35,1,4,1,-40,1,2,1,-44,1,-66,1,-129,1,-139,1,-93,1
403,-20,1,-52,1,-32,1,36,1,6,1,-42,1,2,1,-46,1,-67,1,-131,1,-143,1,-94,1
404,-20,1,-51,1,-31,1,35,1,5,1,-41,1,4,1,-46,1,-66,1,-131,1,-144,1,-94,1
405,-21,1,-51,1,-30,1,36,1,4,1,-41,1,4,1,-47,1,-68,1,-133,1,-146,1,-95,1
406,-4,1,-35,1,-31,1,19,1,13,1,-33,1,8,1,-43,1,-63,1,-131,1,-144,1,-94,1
407,4,1,-22,1,-26,1,9,1,15,1,-24,1,10,1,-41,1,-61,1,-129,1,-141,1,-91,1
408,-6,1,-26,1,-20,1,16,1,7,1,-23,1,7,1,-42,1,-62,1,-131,1,-141,1,-92,1
409,-13,1,-29,1,-16,1,21,1,1,1,-23,1,4,1,-40,1,-62,1,-131,1,-140,1,-92,1
410,-3,1,-20,1,-17,1,11,1,7,1,-19,1,7,1,-31,1,-56,1,-125,1,-133,1,-87,1
411,0,1,-12,1,-12,1,6,1,6,1,-12,1,12,1,-19,1,-48,1,-117,1,-127,1,-81,1
412,2,1,-6,1,-8,1,2,1,5,1,-7,1,17,1,-10,1,-41,1,-110,1,-122,1,-75,1
413,10,1,2,1,-8,1,-6,1,9,1,-3,1,21,1,-6,1,-37,1,-105,1,-118,1,-70,1
414,14,1,5,1,-9,1,-9,1,12,1,-2,1,18,1,-16,1,-40,1,-108,1,-119,1,-70,1
415,-7,1,-13,1,-6,1,10,1,-1,1,-10,1,9,1,-29,1,-50,1,-119,1,-128,1,-76,1
416,-16,1,-24,1,-8,1,20,1,-4,1,-16,1,5,1,-36,1,-55,1,-129,1,-136,1,-81,1
417,-14,1,-26,1,-12,1,20,1,-1,1,-19,1,1,1,-40,1,-59,1,-136,1,-142,1,-85,1
418,-10,1,-23,1,-13,1,16,1,1,1,-18,1,1,1,-40,1,-58,1,-137,1,-143,1,-85,1
419,-8,1,-19,1,-11,1,13,1,1,1,-15,1,0,1,-39,1,-58,1,-137,1,-142,1,-85,1
420,-15,1,-26,1,-11,1,20,1,-2,1,-19,1,-2,1,-40,1,-60,1,-138,1,-144,1,-86,1
421,-17,1,-30,1,-13,1,23,1,-2,1,-22,1,-2,1,-38,1,-59,1,-137,1,-144,1,-85,1
422,-10,1,-23,1,-13,1,16,1,1,1,-18,1,1,1,-33,1,-53,1,-132,1,-140,1,-81,1
423,-6,1,-15,1,-9,1,10,1,1,1,-12,1,5,1,-28,1,-46,1,-126,1,-136,1,-76,1
424,-4,1,-9,1,-5,1,6,1,0,1,-7,1,7,1,-21,1,-39,1,-123,1,-135,1,-72,1
425,10,1,11,1,1,1,-10,1,5,1,6,1,14,1,-8,1,-26,1,-114,1,-129,1,-65,1
426,13,1,20,1,7,1,-16,1,3,1,14,1,18,1,-3,1,-17,1,-108,1,-126,1,-62,1
427,10,1,18,1,8,1,-14,1,1,1,13,1,18,1,-10,1,-16,1,-109,1,-128,1,-62,1
428,18,1,24,1,6,1,-21,1,6,1,15,1,21,1,-11,1,-14,1,-106,1,-126,1,-61,1
429,21,1,24,1,3,1,-22,1,9,1,14,1,21,1,-13,1,-14,1,-105,1,-125,1,-62,1
430,21,1,26,1,5,1,-23,1,8,1,16,1,24,1,-13,1,-7,1,-100,1,-121,1,-58,1
431,25,1,30,1,5,1,-27,1,10,1,18,1,23,1,-12,1,-1,1,-93,1,-117,1,-52,1
432,28,1,32,1,4,1,-30,1,12,1,18,1,21,1,-9,1,5,1,-88,1,-115,1,-50,1
433,19,1,23,1,4,1,-21,1,8,1,14,1,17,1,-10,1,6,1,-88,1,-117,1,-52,1
434,-1,1,4,1,5,1,-1,1,-3,1,4,1,10,1,-13,1,5,1,-91,1,-122,1,-56,1
435,-7,1,-4,1,3,1,5,1,-5,1,-1,1,8,1,-13,1,9,1,-90,1,-124,1,-58,1
436,-1,1,0,1,1,1,0,1,-1,1,0,1,10,1,-10,1,16,1,-85,1,-122,1,-58,1
437,9,1,14,1,5,1,-11,1,2,1,10,1,13,1,-7,1,23,1,-78,1,-117,1,-54,1
438,32,1,42,1,10,1,-37,1,11,1,26,1,22,1,2,1,38,1,-63,1,-105,1,-42,1
439,52,1,60,1,8,1,-56,1,22,1,34,1,29,1,10,1,49,1,-52,1,-97,1,-33,1
440,52,1,58,1,6,1,-55,1,23,1,32,1,29,1,13,1,53,1,-48,1,-96,1,-32,1
441,46,1,52,1,6,1,-49,1,20,1,29,1,29,1,14,1,56,1,-45,1,-96,1,-31,1
442,43,1,45,1,2,1,-44,1,21,1,24,1,28,1,15,1,58,1,-43,1,-97,1,-32,1
443,44,1,45,1,1,1,-44,1,22,1,23,1,28,1,17,1,60,1,-38,1,-95,1,-30,1
444,42,1,46,1,4,1,-44,1,19,1,25,1,27,1,20,1,65,1,-34,1,-94,1,-26,1
445,48,1,51,1,3,1,-49,1,23,1,27,1,27,1,24,1,69,1,-29,1,-92,1,-21,1
446,62,1,64,1,2,1,-63,1,30,1,33,1,30,1,30,1,77,1,-22,1,-85,1,-12,1
447,79,1,84,1,5,1,-81,1,37,1,45,1,36,1,40,1,90,1,-11,1,-75,1,0,1
448,89,1,94,1,5,1,-91,1,42,1,50,1,37,1,45,1,97,1,-2,1,-69,1,6,1
449,89,1,93,1,4,1,-91,1,43,1,49,1,36,1,46,1,101,1,4,1,-67,1,9,1
450,84,1,88,1,4,1,-86,1,40,1,46,1,36,1,47,1,105,1,10,1,-65,1,10,1
451,75,1,78,1,3,1,-76,1,36,1,41,1,34,1,45,1,106,1,14,1,-66,1,11,1
452,74,1,76,1,2,1,-75,1,36,1,39,1,36,1,47,1,110,1,20,1,-64,1,15,1
453,73,1,72,1,-1,1,-72,1,37,1,36,1,35,1,48,1,111,1,23,1,-65,1,17,1
454,84,1,83,1,-1,1,-83,1,43,1,41,1,37,1,53,1,117,1,31,1,-60,1,26,1
455,90,1,92,1,2,1,-91,1,44,1,47,1,39,1,55,1,121,1,38,1,-56,1,32,1
456,70,1,72,1,2,1,-71,1,34,1,37,1,30,1,48,1,115,1,33,1,-61,1,29,1
457,60,1,59,1,-1,1,-59,1,31,1,29,1,22,1,43,1,112,1,29,1,-66,1,28,1
458,70,1,71,1,1,1,-70,1,35,1,36,1,26,1,49,1,118,1,36,1,-60,1,37,1
459,87,1,87,1,0,1,-87,1,44,1,44,1,31,1,55,1,124,1,45,1,-53,1,45,1
460,93,1,93,1,0,1,-93,1,47,1,47,1,35,1,58,1,128,1,52,1,-48,1,51,1
461,91,1,88,1,-3,1,-89,1,47,1,43,1,34,1,57,1,127,1,54,1,-50,1,52,1
462,85,1,82,1,-3,1,-83,1,44,1,40,1,34,1,56,1,125,1,56,1,-50,1,53,1
463,84,1,81,1,-3,1,-82,1,44,1,39,1,34,1,56,1,125,1,59,1,-49,1,56,1
464,74,1,73,1,-1,1,-73,1,38,1,36,1,31,1,54,1,122,1,60,1,-52,1,56,1
465,78,1,72,1,-6,1,-75,1,42,1,33,1,29,1,52,1,120,1,60,1,-53,1,56,1
466,77,1,69,1,-8,1,-73,1,43,1,31,1,26,1,50,1,118,1,58,1,-54,1,54,1
467,77,1,67,1,-10,1,-72,1,44,1,29,1,23,1,47,1,114,1,55,1,-56,1,51,1
468,74,1,64,1,-10,1,-69,1,42,1,27,1,21,1,46,1,112,1,54,1,-56,1,49,1
469,80,1,72,1,-8,1,-76,1,44,1,32,1,25,1,49,1,116,1,59,1,-51,1,51,1
470,90,1,80,1,-10,1,-85,1,50,1,35,1,30,1,52,1,119,1,63,1,-45,1,54,1
471,98,1,90,1,-8,1,-94,1,53,1,41,1,34,1,56,1,121,1,67,1,-40,1,58,1
472,104,1,95,1,-9,1,-99,1,57,1,43,1,37,1,57,1,122,1,71,1,-37,1,59,1
473,95,1,84,1,-11,1,-89,1,53,1,37,1,34,1,55,1,117,1,69,1,-34,1,55,1
474,83,1,69,1,-14,1,-76,1,49,1,28,1,28,1,51,1,111,1,62,1,-32,1,50,1
475,87,1,71,1,-16,1,-79,1,52,1,28,1,29,1,51,1,108,1,59,1,-28,1,48,1
476,82,1,62,1,-20,1,-72,1,51,1,21,1,26,1,49,1,102,1,54,1,-28,1,44,1
477,81,1,59,1,-22,1,-70,1,52,1,19,1,26,1,48,1,100,1,52,1,-26,1,42,1
478,81,1,59,1,-22,1,-70,1,52,1,19,1,26,1,47,1,99,1,50,1,-25,1,39,1
479,69,1,52,1,-17,1,-60,1,43,1,18,1,26,1,45,1,96,1,48,1,-26,1,36,1
480,59,1,45,1,-14,1,-52,1,37,1,16,1,25,1,44,1,95,1,47,1,-28,1,32,1
481,50,1,38,1,-12,1,-44,1,31,1,13,1,25,1,43,1,93,1,45,1,-31,1,29,1
482,40,1,29,1,-11,1,-34,1,26,1,9,1,21,1,40,1,90,1,43,1,-34,1,27,1
483,34,1,19,1,-15,1,-26,1,25,1,2,1,17,1,37,1,86,1,41,1,-37,1,25,1
484,43,1,31,1,-12,1,-37,1,28,1,10,1,23,1,45,1,89,1,45,1,-31,1,32,1
485,51,1,41,1,-10,1,-46,1,31,1,16,1,30,1,52,1,93,1,50,1,-26,1,39,1
486,43,1,38,1,-5,1,-40,1,24,1,17,1,30,1,54,1,93,1,49,1,-27,1,40,1
487,31,1,25,1,-6,1,-28,1,19,1,10,1,26,1,45,1,85,1,41,1,-34,1,36,1
488,42,1,35,1,-7,1,-38,1,25,1,14,1,28,1,42,1,85,1,41,1,-33,1,37,1
489,51,1,41,1,-10,1,-46,1,31,1,16,1,27,1,40,1,86,1,41,1,-36,1,34,1
490,47,1,36,1,-11,1,-41,1,29,1,13,1,22,1,36,1,82,1,37,1,-42,1,27,1
491,37,1,23,1,-14,1,-30,1,26,1,5,1,15,1,29,1,75,1,30,1,-51,1,14,1
492,37,1,21,1,-16,1,-29,1,27,1,3,1,13,1,27,1,71,1,26,1,-57,1,5,1
493,46,1,36,1,-10,1,-41,1,28,1,13,1,18,1,34,1,76,1,31,1,-54,1,7,1
494,49,1,43,1,-6,1,-46,1,28,1,19,1,21,1,42,1,79,1,35,1,-51,1,13,1
495,37,1,36,1,-1,1,-36,1,19,1,18,1,20,1,47,1,79,1,34,1,-53,1,13,1
496,21,1,20,1,-1,1,-20,1,11,1,10,1,15,1,43,1,72,1,28,1,-59,1,8,1
497,25,1,22,1,-3,1,-23,1,14,1,10,1,14,1,44,1,73,1,29,1,-60,1,10,1
498,23,1,21,1,-2,1,-22,1,13,1,10,1,12,1,42,1,73,1,29,1,-59,1,11,1
499,41,1,33,1,-8,1,-37,1,25,1,13,1,13,1,42,1,76,1,30,1,-58,1,11,1
500,52,1,43,1,-9,1,-47,1,31,1,17,1,17,1,42,1,77,1,31,1,-56,1,12,1
501,68,1,58,1,-10,1,-63,1,39,1,24,1,20,1,44,1,80,1,34,1,-53,1,13,1
502,71,1,62,1,-9,1,-66,1,40,1,27,1,22,1,48,1,82,1,35,1,-54,1,11,1
503,52,1,50,1,-2,1,-51,1,27,1,24,1,19,1,48,1,79,1,31,1,-58,1,5,1
504,56,1,58,1,2,1,-57,1,27,1,30,1,21,1,50,1,80,1,33,1,-56,1,7,1
505,58,1,54,1,-4,1,-56,1,31,1,25,1,16,1,43,1,72,1,28,1,-62,1,0,1
506,48,1,38,1,-10,1,-43,1,29,1,14,1,6,1,35,1,63,1,19,1,-69,1,-8,1
507,36,1,23,1,-13,1,-29,1,25,1,5,1,0,1,32,1,57,1,16,1,-73,1,-13,1
508,27,1,15,1,-12,1,-21,1,20,1,2,1,-4,1,31,1,54,1,13,1,-76,1,-15,1
509,15,1,4,1,-11,1,-9,1,13,1,-3,1,-9,1,27,1,51,1,8,1,-81,1,-19,1
510,8,1,-1,1,-9,1,-3,1,8,1,-5,1,-9,1,29,1,51,1,8,1,-81,1,-17,1
511,19,1,12,1,-7,1,-15,1,13,1,3,1,-4,1,36,1,57,1,14,1,-75,1,-9,1
512,26,1,19,1,-7,1,-22,1,17,1,6,1,-2,1,41,1,59,1,18,1,-72,1,-5,1
513,36,1,26,1,-10,1,-31,1,23,1,8,1,0,1,46,1,61,1,20,1,-71,1,-2,1
514,47,1,37,1,-10,1,-42,1,29,1,14,1,1,1,49,1,64,1,23,1,-68,1,3,1
515,46,1,36,1,-10,1,-41,1,28,1,13,1,-1,1,48,1,61,1,21,1,-69,1,4,1
516,49,1,38,1,-11,1,-43,1,30,1,14,1,-3,1,47,1,58,1,20,1,-69,1,4,1
517,48,1,41,1,-7,1,-44,1,28,1,17,1,-3,1,49,1,58,1,23,1,-68,1,8,1
518,52,1,50,1,-2,1,-51,1,27,1,24,1,0,1,52,1,61,1,27,1,-63,1,13,1
519,54,1,49,1,-5,1,-51,1,30,1,22,1,-2,1,50,1,59,1,26,1,-65,1,12,1
520,56,1,49,1,-7,1,-52,1,32,1,21,1,-2,1,49,1,60,1,27,1,-65,1,15,1
521,59,1,54,1,-5,1,-56,1,32,1,25,1,0,1,51,1,62,1,30,1,-62,1,22,1
522,63,1,60,1,-3,1,-61,1,33,1,29,1,3,1,53,1,66,1,33,1,-59,1,29,1
523,73,1,73,1,0,1,-73,1,37,1,37,1,8,1,57,1,69,1,37,1,-53,1,36,1
524,69,1,73,1,4,1,-71,1,33,1,39,1,8,1,59,1,69,1,38,1,-50,1,41,1
525,60,1,67,1,7,1,-63,1,27,1,37,1,6,1,57,1,66,1,36,1,-51,1,41,1
526,64,1,70,1,6,1,-67,1,29,1,38,1,8,1,59,1,67,1,38,1,-48,1,43,1
527,73,1,81,1,8,1,-77,1,33,1,45,1,13,1,65,1,72,1,43,1,-43,1,48,1
528,85,1,89,1,4,1,-87,1,41,1,47,1,15,1,67,1,73,1,46,1,-40,1,52,1
529,62,1,64,1,2,1,-63,1,30,1,33,1,8,1,60,1,65,1,40,1,-47,1,47,1
530,56,1,54,1,-2,1,-55,1,29,1,26,1,5,1,57,1,62,1,37,1,-50,1,45,1
531,58,1,56,1,-2,1,-57,1,30,1,27,1,7,1,58,1,64,1,39,1,-50,1,48,1
532,50,1,50,1,0,1,-50,1,25,1,25,1,7,1,57,1,64,1,37,1,-52,1,49,1
533,44,1,49,1,5,1,-46,1,20,1,27,1,9,1,59,1,66,1,38,1,-50,1,50,1
534,35,1,41,1,6,1,-38,1,15,1,24,1,9,1,59,1,65,1,37,1,-51,1,49,1
535,28,1,33,1,5,1,-30,1,12,1,19,1,9,1,60,1,64,1,35,1,-51,1,48,1
536,30,1,28,1,-2,1,-29,1,16,1,13,1,8,1,59,1,62,1,33,1,-51,1,46,1
537,38,1,33,1,-5,1,-35,1,22,1,14,1,11,1,62,1,62,1,36,1,-49,1,47,1
538,39,1,34,1,-5,1,-36,1,22,1,15,1,14,1,65,1,61,1,37,1,-47,1,50,1
539,45,1,35,1,-10,1,-40,1,28,1,13,1,16,1,65,1,61,1,38,1,-47,1,52,1
540,54,1,38,1,-16,1,-46,1,35,1,11,1,17,1,65,1,61,1,38,1,-47,1,52,1
541,73,1,52,1,-21,1,-62,1,47,1,16,1,22,1,67,1,63,1,40,1,-44,1,58,1
542,75,1,52,1,-23,1,-63,1,49,1,15,1,22,1,65,1,63,1,39,1,-44,1,60,1
543,70,1,48,1,-22,1,-59,1,46,1,13,1,21,1,63,1,62,1,36,1,-46,1,60,1
544,73,1,52,1,-21,1,-62,1,47,1,16,1,22,1,64,1,63,1,36,1,-44,1,63,1
545,68,1,50,1,-18,1,-59,1,43,1,16,1,23,1,64,1,61,1,35,1,-45,1,64,1
546,62,1,45,1,-17,1,-53,1,40,1,14,1,25,1,67,1,59,1,35,1,-44,1,64,1
547,60,1,41,1,-19,1,-50,1,40,1,11,1,23,1,69,1,57,1,33,1,-45,1,63,1
548,66,1,43,1,-23,1,-54,1,45,1,10,1,24,1,70,1,56,1,34,1,-44,1,65,1
549,68,1,42,1,-26,1,-55,1,47,1,8,1,24,1,68,1,54,1,34,1,-43,1,66,1
550,59,1,34,1,-25,1,-46,1,42,1,5,1,21,1,62,1,50,1,29,1,-45,1,65,1
551,49,1,33,1,-16,1,-41,1,33,1,9,1,20,1,60,1,50,1,29,1,-42,1,69,1
552,55,1,39,1,-16,1,-47,1,36,1,12,1,21,1,61,1,53,1,31,1,-38,1,72,1
553,52,1,34,1,-18,1,-43,1,35,1,8,1,20,1,60,1,52,1,30,1,-39,1,70,1
554,39,1,21,1,-18,1,-30,1,29,1,2,1,16,1,56,1,48,1,26,1,-42,1,67,1
555,32,1,13,1,-19,1,-22,1,26,1,-3,1,13,1,53,1,44,1,23,1,-47,1,65,1
556,36,1,13,1,-23,1,-24,1,30,1,-5,1,13,1,51,1,41,1,21,1,-49,1,64,1
557,43,1,15,1,-28,1,-29,1,36,1,-6,1,11,1,50,1,40,1,19,1,-50,1,64,1
558,47,1,17,1,-30,1,-32,1,39,1,-6,1,9,1,51,1,39,1,19,1,-49,1,67,1
559,56,1,30,1,-26,1,-43,1,41,1,2,1,12,1,55,1,43,1,25,1,-43,1,74,1
560,67,1,42,1,-25,1,-54,1,46,1,9,1,16,1,58,1,47,1,30,1,-38,1,81,1
561,67,1,42,1,-25,1,-54,1,46,1,9,1,17,1,59,1,47,1,31,1,-36,1,85,1
562,55,1,31,1,-24,1,-43,1,40,1,4,1,15,1,57,1,45,1,29,1,-37,1,85,1
563,52,1,30,1,-22,1,-41,1,37,1,4,1,14,1,55,1,46,1,29,1,-37,1,86,1
564,62,1,38,1,-24,1,-50,1,43,1,7,1,16,1,57,1,48,1,31,1,-34,1,89,1
565,50,1,19,1,-31,1,-34,1,41,1,-6,1,7,1,48,1,39,1,23,1,-42,1,79,1
566,40,1,5,1,-35,1,-22,1,38,1,-15,1,1,1,42,1,33,1,17,1,-47,1,74,1
567,46,1,4,1,-42,1,-25,1,44,1,-19,1,0,1,42,1,31,1,15,1,-48,1,75,1
568,46,1,4,1,-42,1,-25,1,44,1,-19,1,-1,1,43,1,30,1,16,1,-48,1,76,1
569,48,1,6,1,-42,1,-27,1,45,1,-18,1,1,1,46,1,34,1,18,1,-44,1,81,1
570,47,1,11,1,-36,1,-29,1,42,1,-12,1,5,1,49,1,38,1,21,1,-41,1,85,1
571,44,1,13,1,-31,1,-28,1,38,1,-9,1,6,1,49,1,39,1,21,1,-41,1,86,1
572,53,1,18,1,-35,1,-35,1,44,1,-8,1,6,1,48,1,39,1,22,1,-41,1,87,1
573,54,1,17,1,-37,1,-35,1,46,1,-10,1,5,1,48,1,39,1,23,1,-40,1,88,1
574,48,1,17,1,-31,1,-32,1,40,1,-7,1,6,1,51,1,43,1,27,1,-36,1,91,1
575,56,1,26,1,-30,1,-41,1,43,1,-2,1,9,1,55,1,48,1,33,1,-30,1,95,1
576,64,1,34,1,-30,1,-49,1,47,1,2,1,9,1,58,1,54,1,39,1,-25,1,98,1
577,71,1,36,1,-35,1,-53,1,53,1,1,1,7,1,59,1,59,1,42,1,-23,1,96,1
578,67,1,29,1,-38,1,-48,1,53,1,-4,1,5,1,59,1,65,1,44,1,-24,1,93,1
579,62,1,29,1,-33,1,-45,1,48,1,-2,1,7,1,66,1,80,1,51,1,-19,1,94,1
580,69,1,35,1,-34,1,-52,1,52,1,1,1,11,1,73,1,98,1,61,1,-14,1,95,1
581,75,1,42,1,-33,1,-58,1,54,1,5,1,12,1,77,1,116,1,71,1,-9,1,97,1
582,85,1,56,1,-29,1,-70,1,57,1,14,1,12,1,81,1,135,1,85,1,0,1,103,1
583,92,1,68,1,-24,1,-80,1,58,1,22,1,10,1,84,1,152,1,102,1,12,1,110,1
584,96,1,69,1,-27,1,-82,1,62,1,21,1,-3,1,74,1,156,1,111,1,18,1,112,1
585,111,1,84,1,-27,1,-97,1,69,1,29,1,-11,1,71,1,163,1,132,1,34,1,121,1
586,127,1,105,1,-22,1,-116,1,75,1,42,1,-17,1,76,1,175,1,160,1,56,1,136,1
587,120,1,97,1,-23,1,-108,1,72,1,37,1,-33,1,73,1,177,1,180,1,70,1,145,1
588,122,1,96,1,-26,1,-109,1,74,1,35,1,-46,1,73,1,178,1,202,1,89,1,157,1
589,122,1,94,1,-28,1,-108,1,75,1,33,1,-62,1,70,1,178,1,224,1,107,1,170,1
590,129,1,99,1,-30,1,-114,1,80,1,35,1,-75,1,67,1,182,1,251,1,130,1,187,1
591,131,1,102,1,-29,1,-116,1,80,1,37,1,-87,1,64,1,184,1,275,1,152,1,203,1
592,137,1,105,1,-32,1,-121,1,85,1,37,1,-98,1,59,1,179,1,294,1,170,1,218,1
593,147,1,110,1,-37,1,-128,1,92,1,37,1,-105,1,53,1,170,1,309,1,189,1,231,1
594,149,1,108,1,-41,1,-128,1,95,1,34,1,-111,1,42,1,147,1,311,1,200,1,239,1
595,142,1,96,1,-46,1,-119,1,94,1,25,1,-121,1,22,1,109,1,300,1,201,1,240,1
596,136,1,89,1,-47,1,-112,1,92,1,21,1,-130,1,-1,1,62,1,281,1,200,1,241,1
597,124,1,92,1,-32,1,-108,1,78,1,30,1,-132,1,-20,1,15,1,262,1,204,1,249,1
598,113,1,90,1,-23,1,-101,1,68,1,34,1,-129,1,-32,1,-23,1,241,1,205,1,256,1
599,118,1,89,1,-29,1,-103,1,74,1,30,1,-125,1,-40,1,-53,1,215,1,200,1,254,1
600,122,1,89,1,-33,1,-105,1,78,1,28,1,-122,1,-44,1,-74,1,192,1,195,1,253,1
601,120,1,82,1,-38,1,-101,1,79,1,22,1,-116,1,-44,1,-89,1,168,1,186,1,250,1
602,119,1,74,1,-45,1,-96,1,82,1,15,1,-109,1,-42,1,-97,1,145,1,173,1,243,1
603,120,1,64,1,-56,1,-92,1,88,1,4,1,-101,1,-38,1,-101,1,126,1,160,1,233,1
604,120,1,48,1,-72,1,-84,1,96,1,-12,1,-93,1,-38,1,-104,1,102,1,139,1,217,1
605,113,1,31,1,-82,1,-72,1,98,1,-25,1,-82,1,-37,1,-106,1,76,1,114,1,198,1
606,104,1,14,1,-90,1,-59,1,97,1,-38,1,-70,1,-32,1,-108,1,51,1,85,1,175,1
607,99,1,-3,1,-102,1,-48,1,100,1,-52,1,-57,1,-25,1,-108,1,26,1,53,1,152,1
608,98,1,-18,1,-116,1,-40,1,107,1,-67,1,-46,1,-20,1,-108,1,2,1,21,1,128,1
609,93,1,-22,1,-115,1,-35,1,104,1,-68,1,-31,1,-11,1,-100,1,-15,1,-4,1,111,1
610,89,1,-25,1,-114,1,-32,1,101,1,-69,1,-16,1,-5,1,-95,1,-36,1,-29,1,96,1
611,89,1,-30,1,-119,1,-29,1,104,1,-74,1,-7,1,-4,1,-93,1,-56,1,-56,1,77,1
612,82,1,-34,1,-116,1,-24,1,99,1,-75,1,-3,1,-2,1,-90,1,-70,1,-76,1,63,1
613,80,1,-35,1,-115,1,-22,1,97,1,-75,1,0,1,0,1,-85,1,-78,1,-91,1,50,1
614,76,1,-36,1,-112,1,-20,1,94,1,-74,1,3,1,0,1,-80,1,-84,1,-102,1,40,1
615,70,1,-41,1,-111,1,-14,1,90,1,-76,1,5,1,-1,1,-78,1,-88,1,-112,1,31,1
616,69,1,-45,1,-114,1,-12,1,91,1,-79,1,4,1,-3,1,-78,1,-89,1,-119,1,22,1
617,66,1,-48,1,-114,1,-9,1,90,1,-81,1,3,1,-6,1,-78,1,-90,1,-124,1,15,1
618,63,1,-49,1,-112,1,-7,1,87,1,-80,1,3,1,-5,1,-76,1,-89,1,-126,1,12,1
619,64,1,-46,1,-110,1,-9,1,87,1,-78,1,2,1,-5,1,-74,1,-91,1,-130,1,9,1
620,60,1,-44,1,-104,1,-8,1,82,1,-74,1,2,1,-4,1,-72,1,-92,1,-132,1,7,1
621,64,1,-39,1,-103,1,-12,1,83,1,-71,1,4,1,-3,1,-68,1,-95,1,-135,1,6,1
622,68,1,-33,1,-101,1,-17,1,84,1,-67,1,5,1,-3,1,-66,1,-96,1,-136,1,8,1
623,67,1,-29,1,-96,1,-19,1,81,1,-62,1,6,1,-3,1,-65,1,-94,1,-134,1,10,1
624,60,1,-28,1,-88,1,-16,1,74,1,-58,1,10,1,0,1,-62,1,-89,1,-129,1,13,1
625,60,1,-25,1,-85,1,-17,1,72,1,-55,1,12,1,3,1,-60,1,-85,1,-126,1,16,1
626,62,1,-25,1,-87,1,-18,1,74,1,-56,1,12,1,5,1,-60,1,-83,1,-123,1,17,1
627,63,1,-24,1,-87,1,-19,1,75,1,-55,1,11,1,3,1,-61,1,-83,1,-122,1,18,1
628,61,1,-21,1,-82,1,-20,1,71,1,-51,1,11,1,4,1,-61,1,-83,1,-121,1,19,1
629,58,1,-17,1,-75,1,-20,1,66,1,-46,1,13,1,5,1,-60,1,-83,1,-118,1,23,1
630,62,1,-12,1,-74,1,-25,1,68,1,-43,1,14,1,5,1,-60,1,-84,1,-117,1,26,1
631,60,1,-11,1,-71,1,-24,1,65,1,-41,1,14,1,2,1,-61,1,-85,1,-119,1,28,1
632,65,1,-10,1,-75,1,-27,1,70,1,-42,1,11,1,-5,1,-66,1,-89,1,-124,1,26,1
633,62,1,-14,1,-76,1,-24,1,69,1,-45,1,7,1,-12,1,-71,1,-93,1,-127,1,25,1
634,57,1,-18,1,-75,1,-19,1,66,1,-46,1,4,1,-15,1,-75,1,-96,1,-129,1,23,1
635,59,1,-19,1,-78,1,-20,1,68,1,-48,1,3,1,-14,1,-77,1,-97,1,-129,1,21,1
636,61,1,-18,1,-79,1,-21,1,70,1,-48,1,3,1,-12,1,-78,1,-97,1,-129,1,20,1
637,60,1,-16,1,-76,1,-22,1,68,1,-46,1,5,1,-8,1,-75,1,-94,1,-127,1,20,1
638,60,1,-12,1,-72,1,-24,1,66,1,-42,1,7,1,-5,1,-72,1,-91,1,-125,1,22,1
639,54,1,-14,1,-68,1,-20,1,61,1,-41,1,6,1,-5,1,-73,1,-92,1,-125,1,23,1
640,55,1,-12,1,-67,1,-21,1,61,1,-39,1,5,1,-9,1,-76,1,-95,1,-125,1,23,1
641,60,1,-11,1,-71,1,-24,1,65,1,-41,1,3,1,-12,1,-79,1,-99,1,-127,1,23,1
642,58,1,-11,1,-69,1,-23,1,63,1,-40,1,2,1,-14,1,-82,1,-101,1,-128,1,22,1
643,54,1,-14,1,-68,1,-20,1,61,1,-41,1,2,1,-17,1,-83,1,-103,1,-131,1,21,1
644,51,1,-14,1,-65,1,-18,1,58,1,-39,1,3,1,-17,1,-84,1,-103,1,-130,1,21,1
645,46,1,-17,1,-63,1,-14,1,54,1,-40,1,3,1,-18,1,-85,1,-105,1,-130,1,21,1
646,34,1,-29,1,-63,1,-2,1,48,1,-46,1,1,1,-21,1,-89,1,-109,1,-134,1,17,1
647,25,1,-37,1,-62,1,6,1,43,1,-49,1,-2,1,-23,1,-93,1,-116,1,-140,1,12,1
648,28,1,-37,1,-65,1,4,1,46,1,-51,1,-4,1,-26,1,-96,1,-119,1,-142,1,11,1
649,30,1,-35,1,-65,1,2,1,47,1,-50,1,-5,1,-27,1,-96,1,-119,1,-142,1,13,1
650,26,1,-38,1,-64,1,6,1,45,1,-51,1,-6,1,-29,1,-99,1,-121,1,-142,1,13,1
651,16,1,-48,1,-64,1,16,1,40,1,-56,1,-9,1,-33,1,-103,1,-127,1,-146,1,10,1
652,5,1,-57,1,-62,1,26,1,33,1,-59,1,-12,1,-37,1,-109,1,-133,1,-153,1,8,1
653,3,1,-61,1,-64,1,29,1,33,1,-62,1,-14,1,-39,1,-111,1,-135,1,-155,1,9,1
654,1,1,-61,1,-62,1,30,1,31,1,-61,1,-14,1,-40,1,-113,1,-136,1,-152,1,10,1
655,-9,1,-67,1,-58,1,38,1,24,1,-63,1,-17,1,-46,1,-116,1,-141,1,-153,1,9,1
656,-14,1,-75,1,-61,1,44,1,23,1,-68,1,-20,1,-51,1,-118,1,-144,1,-156,1,5,1
657,-19,1,-80,1,-61,1,49,1,21,1,-71,1,-23,1,-53,1,-119,1,-144,1,-157,1,4,1
658,-29,1,-85,1,-56,1,57,1,13,1,-71,1,-25,1,-53,1,-119,1,-141,1,-156,1,5,1
659,-30,1,-80,1,-50,1,55,1,10,1,-65,1,-21,1,-48,1,-113,1,-136,1,-151,1,8,1
660,-29,1,-77,1,-48,1,53,1,9,1,-63,1,-21,1,-47,1,-113,1,-139,1,-152,1,8,1
661,-26,1,-78,1,-52,1,52,1,13,1,-65,1,-23,1,-48,1,-117,1,-145,1,-158,1,4,1
662,-21,1,-72,1,-51,1,46,1,15,1,-62,1,-22,1,-48,1,-116,1,-144,1,-157,1,3,1
663,-22,1,-67,1,-45,1,44,1,11,1,-56,1,-19,1,-46,1,-113,1,-142,1,-155,1,5,1
664,-18,1,-67,1,-49,1,42,1,15,1,-58,1,-22,1,-49,1,-115,1,-146,1,-157,1,2,1
665,-20,1,-64,1,-44,1,42,1,12,1,-54,1,-21,1,-48,1,-112,1,-143,1,-153,1,6,1
666,-21,1,-57,1,-36,1,39,1,7,1,-47,1,-17,1,-45,1,-104,1,-134,1,-144,1,13,1
667,-14,1,-52,1,-38,1,33,1,12,1,-45,1,-16,1,-46,1,-100,1,-129,1,-141,1,16,1
668,-8,1,-48,1,-40,1,28,1,16,1,-44,1,-16,1,-48,1,-98,1,-127,1,-139,1,16,1
669,-4,1,-44,1,-40,1,24,1,18,1,-42,1,-15,1,-45,1,-95,1,-126,1,-139,1,16,1
670,-3,1,-43,1,-40,1,23,1,18,1,-42,1,-13,1,-43,1,-95,1,-129,1,-138,1,16,1
671,-7,1,-48,1,-41,1,27,1,17,1,-45,1,-14,1,-43,1,-95,1,-133,1,-140,1,14,1
672,-14,1,-51,1,-37,1,32,1,11,1,-44,1,-13,1,-40,1,-93,1,-131,1,-139,1,15,1
673,-12,1,-45,1,-33,1,28,1,10,1,-39,1,-11,1,-35,1,-85,1,-125,1,-135,1,18,1
674,-8,1,-41,1,-33,1,24,1,12,1,-37,1,-11,1,-38,1,-81,1,-122,1,-134,1,19,1
675,-10,1,-38,1,-28,1,24,1,9,1,-33,1,-10,1,-41,1,-76,1,-119,1,-132,1,21,1
676,-7,1,-33,1,-26,1,20,1,9,1,-30,1,-8,1,-42,1,-72,1,-115,1,-129,1,24,1
677,-13,1,-37,1,-24,1,25,1,5,1,-31,1,-9,1,-43,1,-69,1,-113,1,-127,1,22,1
678,-12,1,-33,1,-21,1,22,1,4,1,-27,1,-7,1,-41,1,-64,1,-107,1,-124,1,24,1
679,-8,1,-32,1,-24,1,20,1,8,1,-28,1,-7,1,-38,1,-58,1,-104,1,-122,1,24,1
680,-8,1,-31,1,-23,1,19,1,7,1,-27,1,-6,1,-37,1,-55,1,-102,1,-123,1,25,1
681,-7,1,-29,1,-22,1,18,1,7,1,-26,1,-3,1,-31,1,-50,1,-100,1,-121,1,24,1
682,-5,1,-22,1,-17,1,13,1,6,1,-20,1,0,1,-23,1,-41,1,-95,1,-118,1,26,1
683,-4,1,-17,1,-13,1,10,1,4,1,-15,1,4,1,-15,1,-32,1,-91,1,-114,1,32,1
684,-5,1,-16,1,-11,1,10,1,3,1,-14,1,5,1,-11,1,-26,1,-87,1,-111,1,38,1
685,-7,1,-18,1,-11,1,12,1,2,1,-15,1,1,1,-14,1,-21,1,-84,1,-111,1,37,1
686,-9,1,-20,1,-11,1,14,1,1,1,-16,1,-1,1,-17,1,-17,1,-80,1,-111,1,37,1
687,-9,1,-20,1,-11,1,14,1,1,1,-16,1,0,1,-15,1,-13,1,-74,1,-106,1,38,1
688,-10,1,-16,1,-6,1,13,1,-2,1,-11,1,2,1,-12,1,-11,1,-70,1,-102,1,41,1
689,-9,1,-15,1,-6,1,12,1,-2,1,-11,1,3,1,-13,1,-8,1,-63,1,-97,1,42,1
690,-4,1,-15,1,-11,1,9,1,3,1,-13,1,1,1,-13,1,-5,1,-58,1,-96,1,42,1
691,0,1,-15,1,-15,1,7,1,7,1,-15,1,0,1,-10,1,0,1,-54,1,-94,1,43,1
692,-7,1,-16,1,-9,1,11,1,1,1,-13,1,-1,1,-6,1,7,1,-48,1,-88,1,46,1
693,-13,1,-19,1,-6,1,16,1,-4,1,-13,1,-1,1,-5,1,11,1,-42,1,-84,1,49,1
694,-13,1,-20,1,-7,1,16,1,-3,1,-14,1,-4,1,-3,1,14,1,-37,1,-83,1,48,1
695,-16,1,-19,1,-3,1,17,1,-7,1,-11,1,-2,1,2,1,22,1,-30,1,-80,1,51,1
696,-18,1,-18,1,0,1,18,1,-9,1,-9,1,0,1,9,1,31,1,-22,1,-75,1,54,1
697,-21,1,-17,1,4,1,19,1,-13,1,-7,1,2,1,15,1,39,1,-15,1,-67,1,57,1
698,-16,1,-14,1,2,1,15,1,-9,1,-6,1,1,1,15,1,43,1,-8,1,-59,1,59,1
699,-10,1,-14,1,-4,1,12,1,-3,1,-9,1,0,1,14,1,41,1,-3,1,-55,1,60,1
700,-9,1,-15,1,-6,1,12,1,-2,1,-11,1,-1,1,13,1,40,1,-1,1,-53,1,60,1
701,-13,1,-19,1,-6,1,16,1,-4,1,-13,1,-3,1,13,1,40,1,0,1,-52,1,60,1
702,-12,1,-16,1,-4,1,14,1,-4,1,-10,1,-4,1,15,1,41,1,3,1,-48,1,64,1
703,-6,1,-13,1,-7,1,9,1,0,1,-10,1,-5,1,17,1,44,1,8,1,-44,1,68,1
704,-7,1,-10,1,-3,1,8,1,-2,1,-7,1,-5,1,18,1,49,1,14,1,-40,1,71,1
705,-5,1,-8,1,-3,1,6,1,-1,1,-6,1,-6,1,17,1,51,1,20,1,-37,1,73,1
706,-5,1,-8,1,-3,1,6,1,-1,1,-6,1,-8,1,15,1,51,1,22,1,-34,1,76,1
707,-6,1,-8,1,-2,1,7,1,-2,1,-5,1,-7,1,15,1,52,1,22,1,-32,1,78,1
708,-4,1,-7,1,-3,1,5,1,-1,1,-5,1,-7,1,17,1,53,1,25,1,-30,1,78,1
709,-4,1,-7,1,-3,1,5,1,-1,1,-5,1,-5,1,21,1,54,1,30,1,-29,1,77,1
710,-3,1,-7,1,-4,1,5,1,0,1,-6,1,-6,1,24,1,55,1,34,1,-24,1,78,1
711,-4,1,-6,1,-2,1,5,1,-1,1,-4,1,-6,1,25,1,53,1,36,1,-19,1,81,1
712,-2,1,-6,1,-4,1,4,1,1,1,-5,1,-6,1,24,1,54,1,37,1,-19,1,81,1
713,0,1,-6,1,-6,1,3,1,3,1,-6,1,-8,1,22,1,53,1,34,1,-18,1,83,1
714,0,1,-6,1,-6,1,3,1,3,1,-6,1,-9,1,21,1,52,1,31,1,-17,1,83,1
715,2,1,-3,1,-5,1,0,1,3,1,-4,1,-8,1,22,1,52,1,37,1,-16,1,84,1
716,6,1,-1,1,-7,1,-2,1,6,1,-4,1,-9,1,19,1,51,1,42,1,-15,1,86,1
717,9,1,0,1,-9,1,-4,1,9,1,-4,1,-9,1,17,1,51,1,45,1,-16,1,88,1
718,11,1,2,1,-9,1,-6,1,10,1,-3,1,-7,1,17,1,51,1,49,1,-10,1,91,1
719,9,1,4,1,-5,1,-6,1,7,1,0,1,-4,1,18,1,50,1,51,1,-3,1,94,1
720,13,1,7,1,-6,1,-10,1,10,1,1,1,-3,1,18,1,49,1,50,1,0,1,96,1
721,18,1,9,1,-9,1,-13,1,14,1,0,1,-2,1,18,1,46,1,49,1,1,1,96,1
722,20,1,12,1,-8,1,-16,1,14,1,2,1,-2,1,19,1,46,1,48,1,1,1,96,1
723,18,1,11,1,-7,1,-14,1,13,1,2,1,-3,1,19,1,45,1,48,1,0,1,94,1
724,20,1,10,1,-10,1,-15,1,15,1,0,1,-5,1,18,1,43,1,48,1,-1,1,93,1
725,20,1,11,1,-9,1,-15,1,15,1,1,1,-2,1,15,1,43,1,51,1,2,1,92,1
726,17,1,13,1,-4,1,-15,1,11,1,5,1,0,1,14,1,46,1,53,1,4,1,92,1
727,17,1,13,1,-4,1,-15,1,11,1,5,1,1,1,16,1,45,1,51,1,5,1,91,1
728,18,1,12,1,-6,1,-15,1,12,1,3,1,0,1,16,1,42,1,48,1,5,1,89,1
729,20,1,13,1,-7,1,-16,1,14,1,3,1,-1,1,13,1,39,1,44,1,6,1,88,1
730,22,1,17,1,-5,1,-19,1,14,1,6,1,0,1,12,1,39,1,45,1,12,1,91,1
731,23,1,20,1,-3,1,-21,1,13,1,9,1,1,1,13,1,40,1,47,1,14,1,94,1
732,23,1,21,1,-2,1,-22,1,13,1,10,1,1,1,13,1,42,1,48,1,13,1,95,1
733,20,1,19,1,-1,1,-19,1,11,1,9,1,1,1,12,1,42,1,48,1,11,1,94,1
734,15,1,18,1,3,1,-16,1,6,1,11,1,0,1,13,1,44,1,51,1,12,1,95,1
735,17,1,21,1,4,1,-19,1,7,1,13,1,0,1,14,1,44,1,53,1,14,1,96,1
736,14,1,19,1,5,1,-16,1,5,1,12,1,0,1,14,1,44,1,54,1,13,1,96,1
737,11,1,17,1,6,1,-14,1,3,1,12,1,0,1,13,1,43,1,53,1,13,1,96,1
738,9,1,15,1,6,1,-12,1,2,1,11,1,-2,1,12,1,39,1,50,1,13,1,92,1
739,8,1,13,1,5,1,-10,1,2,1,9,1,-3,1,9,1,36,1,44,1,13,1,91,1
740,16,1,19,1,3,1,-17,1,7,1,11,1,-1,1,12,1,38,1,39,1,14,1,92,1
741,19,1,22,1,3,1,-20,1,8,1,13,1,1,1,14,1,39,1,38,1,14,1,92,1
742,16,1,21,1,5,1,-18,1,6,1,13,1,1,1,16,1,38,1,38,1,12,1,90,1
743,9,1,17,1,8,1,-13,1,1,1,13,1,0,1,15,1,37,1,40,1,14,1,90,1
744,5,1,14,1,9,1,-9,1,-2,1,12,1,-2,1,13,1,36,1,44,1,17,1,89,1
745,0,1,11,1,11,1,-5,1,-5,1,11,1,-3,1,12,1,36,1,45,1,17,1,87,1
746,-1,1,10,1,11,1,-4,1,-6,1,10,1,-6,1,11,1,36,1,41,1,16,1,85,1
747,-2,1,11,1,13,1,-4,1,-7,1,12,1,-4,1,14,1,36,1,40,1,17,1,83,1
748,-2,1,9,1,11,1,-3,1,-6,1,10,1,-3,1,16,1,37,1,42,1,17,1,82,1
749,-5,1,7,1,12,1,-1,1,-8,1,9,1,-5,1,14,1,34,1,43,1,17,1,79,1
750,-3,1,8,1,11,1,-2,1,-7,1,9,1,-8,1,9,1,31,1,44,1,17,1,78,1
751,-1,1,7,1,8,1,-3,1,-4,1,7,1,-10,1,4,1,28,1,39,1,13,1,75,1
752,4,1,7,1,3,1,-5,1,1,1,5,1,-12,1,-2,1,26,1,34,1,10,1,74,1
753,1,1,2,1,1,1,-1,1,0,1,2,1,-15,1,-4,1,21,1,30,1,10,1,73,1
754,-2,1,0,1,2,1,1,1,-2,1,1,1,-14,1,-3,1,22,1,31,1,11,1,76,1
755,-3,1,-1,1,2,1,2,1,-3,1,0,1,-14,1,-1,1,23,1,29,1,12,1,77,1
756,-4,1,0,1,4,1,2,1,-4,1,2,1,-14,1,-2,1,21,1,28,1,11,1,77,1
757,-6,1,0,1,6,1,3,1,-6,1,3,1,-13,1,0,1,22,1,35,1,12,1,77,1
758,-5,1,1,1,6,1,2,1,-5,1,3,1,-13,1,-2,1,25,1,39,1,14,1,74,1
759,-3,1,4,1,7,1,0,1,-5,1,5,1,-14,1,-5,1,21,1,38,1,15,1,71,1
760,-2,1,5,1,7,1,-1,1,-4,1,6,1,-13,1,-5,1,18,1,37,1,17,1,67,1
761,-1,1,5,1,6,1,-2,1,-3,1,5,1,-14,1,-4,1,17,1,36,1,15,1,66,1
762,1,1,4,1,3,1,-2,1,-1,1,4,1,-16,1,-5,1,18,1,36,1,17,1,67,1
763,-2,1,3,1,5,1,0,1,-3,1,4,1,-18,1,-2,1,21,1,37,1,23,1,67,1
764,-8,1,-1,1,7,1,4,1,-8,1,3,1,-17,1,0,1,25,1,37,1,28,1,69,1
765,-15,1,-3,1,12,1,9,1,-14,1,4,1,-17,1,0,1,27,1,36,1,27,1,69,1
766,-20,1,-2,1,18,1,11,1,-19,1,8,1,-15,1,0,1,27,1,37,1,30,1,70,1
767,-15,1,-1,1,14,1,8,1,-15,1,6,1,-14,1,0,1,26,1,39,1,31,1,69,1
768,-14,1,-3,1,11,1,8,1,-13,1,4,1,-12,1,2,1,24,1,40,1,34,1,70,1
769,-16,1,-3,1,13,1,9,1,-15,1,5,1,-10,1,5,1,23,1,39,1,35,1,72,1
770,-19,1,-3,1,16,1,11,1,-18,1,6,1,-10,1,6,1,26,1,36,1,31,1,71,1
771,-17,1,-5,1,12,1,11,1,-15,1,3,1,-10,1,4,1,25,1,33,1,28,1,67,1
772,-18,1,-8,1,10,1,13,1,-14,1,1,1,-11,1,4,1,24,1,33,1,26,1,65,1
773,-25,1,-10,1,15,1,17,1,-20,1,2,1,-10,1,6,1,26,1,38,1,30,1,65,1
774,-25,1,-12,1,13,1,18,1,-19,1,0,1,-10,1,9,1,29,1,42,1,33,1,62,1
775,-24,1,-12,1,12,1,18,1,-18,1,0,1,-9,1,12,1,30,1,41,1,33,1,60,1
776,-20,1,-14,1,6,1,17,1,-13,1,-4,1,-9,1,12,1,30,1,36,1,32,1,59,1
777,-19,1,-16,1,3,1,17,1,-11,1,-7,1,-10,1,9,1,31,1,33,1,29,1,60,1
778,-21,1,-19,1,2,1,20,1,-12,1,-9,1,-8,1,9,1,30,1,36,1,29,1,63,1
779,-21,1,-21,1,0,1,21,1,-11,1,-11,1,-5,1,12,1,31,1,43,1,32,1,64,1
780,-23,1,-22,1,1,1,22,1,-12,1,-11,1,-4,1,16,1,30,1,46,1,34,1,62,1
781,-24,1,-23,1,1,1,23,1,-13,1,-11,1,-3,1,16,1,29,1,48,1,36,1,59,1
782,-27,1,-24,1,3,1,25,1,-15,1,-11,1,-3,1,17,1,30,1,50,1,38,1,56,1
783,-28,1,-26,1,2,1,27,1,-15,1,-12,1,-3,1,15,1,30,1,46,1,34,1,53,1
784,-32,1,-32,1,0,1,32,1,-16,1,-16,1,-5,1,13,1,25,1,38,1,30,1,48,1
785,-33,1,-34,1,-1,1,33,1,-16,1,-18,1,-7,1,12,1,21,1,35,1,28,1,46,1
786,-31,1,-35,1,-4,1,33,1,-14,1,-20,1,-7,1,13,1,19,1,32,1,27,1,45,1
787,-32,1,-38,1,-6,1,35,1,-13,1,-22,1,-5,1,15,1,19,1,29,1,26,1,46,1
788,-34,1,-40,1,-6,1,37,1,-14,1,-23,1,-5,1,17,1,21,1,26,1,26,1,43,1
789,-35,1,-41,1,-6,1,38,1,-15,1,-24,1,-4,1,20,1,22,1,27,1,30,1,45,1
790,-37,1,-41,1,-4,1,39,1,-17,1,-23,1,-5,1,21,1,22,1,33,1,35,1,47,1
791,-35,1,-42,1,-7,1,38,1,-14,1,-25,1,-7,1,15,1,20,1,34,1,32,1,45,1
792,-30,1,-38,1,-8,1,34,1,-11,1,-23,1,-7,1,13,1,19,1,33,1,32,1,42,1
793,-27,1,-37,1,-10,1,32,1,-9,1,-24,1,-6,1,10,1,16,1,28,1,31,1,39,1
794,-28,1,-39,1,-11,1,33,1,-9,1,-25,1,-3,1,6,1,14,1,24,1,27,1,36,1
795,-22,1,-34,1,-12,1,28,1,-5,1,-23,1,0,1,7,1,15,1,23,1,28,1,36,1
796,-16,1,-26,1,-10,1,21,1,-3,1,-18,1,1,1,11,1,18,1,25,1,31,1,38,1
797,-19,1,-25,1,-6,1,22,1,-7,1,-16,1,3,1,13,1,20,1,30,1,35,1,40,1
798,-32,1,-34,1,-2,1,33,1,-15,1,-18,1,2,1,13,1,20,1,29,1,36,1,39,1
799,-33,1,-38,1,-5,1,35,1,-14,1,-22,1,1,1,11,1,16,1,23,1,34,1,36,1
800,-30,1,-38,1,-8,1,34,1,-11,1,-23,1,-1,1,9,1,15,1,23,1,32,1,37,1
801,-28,1,-40,1,-12,1,34,1,-8,1,-26,1,-4,1,5,1,15,1,23,1,30,1,35,1
802,-24,1,-41,1,-17,1,32,1,-4,1,-29,1,-5,1,6,1,16,1,23,1,29,1,33,1
803,-24,1,-38,1,-14,1,31,1,-5,1,-26,1,-3,1,9,1,17,1,23,1,32,1,34,1
804,-25,1,-36,1,-11,1,30,1,-7,1,-24,1,-1,1,9,1,14,1,20,1,30,1,32,1
805,-29,1,-37,1,-8,1,33,1,-11,1,-23,1,-1,1,9,1,12,1,21,1,30,1,31,1
806,-25,1,-30,1,-5,1,27,1,-10,1,-18,1,4,1,12,1,17,1,30,1,39,1,36,1
807,-25,1,-30,1,-5,1,27,1,-10,1,-18,1,4,1,13,1,19,1,36,1,44,1,36,1
808,-27,1,-33,1,-6,1,30,1,-11,1,-20,1,3,1,13,1,21,1,36,1,45,1,35,1
809,-26,1,-33,1,-7,1,29,1,-10,1,-20,1,2,1,17,1,20,1,36,1,45,1,35,1
810,-25,1,-32,1,-7,1,28,1,-9,1,-20,1,4,1,15,1,22,1,34,1,44,1,33,1
811,-23,1,-32,1,-9,1,27,1,-7,1,-21,1,4,1,8,1,21,1,28,1,42,1,27,1
812,-23,1,-36,1,-13,1,29,1,-5,1,-25,1,-1,1,3,1,18,1,22,1,37,1,19,1
813,-26,1,-36,1,-10,1,31,1,-8,1,-23,1,-1,1,6,1,16,1,19,1,35,1,17,1
814,-28,1,-32,1,-4,1,30,1,-12,1,-18,1,2,1,9,1,18,1,19,1,36,1,18,1
815,-27,1,-30,1,-3,1,28,1,-12,1,-17,1,3,1,11,1,18,1,18,1,36,1,19,1
816,-25,1,-30,1,-5,1,27,1,-10,1,-18,1,2,1,11,1,17,1,20,1,39,1,19,1
817,-22,1,-32,1,-10,1,27,1,-6,1,-21,1,1,1,6,1,17,1,22,1,40,1,21,1
818,-21,1,-30,1,-9,1,25,1,-6,1,-20,1,1,1,4,1,23,1,20,1,40,1,22,1
819,-18,1,-30,1,-12,1,24,1,-3,1,-21,1,2,1,4,1,32,1,21,1,42,1,23,1
820,-15,1,-28,1,-13,1,21,1,-1,1,-21,1,2,1,9,1,43,1,29,1,48,1,24,1
821,-12,1,-25,1,-13,1,18,1,0,1,-19,1,4,1,16,1,55,1,43,1,57,1,26,1
822,-20,1,-23,1,-3,1,21,1,-9,1,-13,1,9,1,26,1,73,1,58,1,67,1,30,1
823,-25,1,-21,1,4,1,23,1,-15,1,-9,1,11,1,32,1,88,1,68,1,73,1,31,1
824,-25,1,-17,1,8,1,21,1,-17,1,-5,1,9,1,35,1,102,1,75,1,80,1,34,1
825,-20,1,-10,1,10,1,15,1,-15,1,0,1,5,1,36,1,114,1,86,1,89,1,39,1
826,-16,1,0,1,16,1,8,1,-16,1,8,1,0,1,37,1,126,1,105,1,101,1,45,1
827,-14,1,8,1,22,1,3,1,-18,1,15,1,-8,1,39,1,139,1,127,1,114,1,55,1
828,-7,1,15,1,22,1,-4,1,-14,1,18,1,-18,1,40,1,153,1,150,1,133,1,66,1
829,1,1,18,1,17,1,-9,1,-8,1,18,1,-32,1,38,1,160,1,171,1,152,1,76,1
830,8,1,23,1,15,1,-15,1,-3,1,19,1,-48,1,39,1,166,1,193,1,173,1,88,1
831,16,1,29,1,13,1,-22,1,2,1,21,1,-66,1,39,1,173,1,218,1,197,1,103,1
832,26,1,34,1,8,1,-30,1,9,1,21,1,-83,1,36,1,177,1,245,1,219,1,120,1
833,35,1,36,1,1,1,-35,1,17,1,19,1,-99,1,32,1,176,1,265,1,238,1,133,1
834,44,1,40,1,-4,1,-42,1,24,1,18,1,-111,1,28,1,172,1,280,1,254,1,146,1
835,50,1,48,1,-2,1,-49,1,26,1,23,1,-117,1,26,1,164,1,292,1,270,1,162,1
836,54,1,49,1,-5,1,-51,1,30,1,22,1,-121,1,18,1,143,1,289,1,279,1,168,1
837,54,1,45,1,-9,1,-49,1,32,1,18,1,-124,1,0,1,111,1,279,1,283,1,172,1
838,50,1,42,1,-8,1,-46,1,29,1,17,1,-127,1,-18,1,71,1,267,1,286,1,173,1
839,44,1,44,1,0,1,-44,1,22,1,22,1,-131,1,-41,1,21,1,246,1,287,1,177,1
840,37,1,39,1,2,1,-38,1,18,1,21,1,-132,1,-60,1,-23,1,220,1,288,1,177,1
841,33,1,35,1,2,1,-34,1,16,1,19,1,-128,1,-70,1,-56,1,199,1,285,1,171,1
842,30,1,31,1,1,1,-30,1,15,1,16,1,-124,1,-75,1,-79,1,181,1,283,1,164,1
843,31,1,27,1,-4,1,-29,1,18,1,12,1,-117,1,-75,1,-92,1,162,1,275,1,158,1
844,26,1,14,1,-12,1,-20,1,19,1,1,1,-110,1,-72,1,-102,1,140,1,262,1,151,1
845,20,1,0,1,-20,1,-10,1,20,1,-10,1,-100,1,-67,1,-108,1,120,1,247,1,141,1
846,19,1,-12,1,-31,1,-3,1,25,1,-21,1,-90,1,-61,1,-109,1,98,1,226,1,126,1
847,16,1,-29,1,-45,1,6,1,30,1,-37,1,-79,1,-56,1,-111,1,68,1,198,1,105,1
848,3,1,-47,1,-50,1,22,1,26,1,-48,1,-63,1,-51,1,-115,1,37,1,169,1,83,1
849,-5,1,-63,1,-58,1,34,1,26,1,-61,1,-49,1,-44,1,-116,1,9,1,143,1,60,1
850,-12,1,-80,1,-68,1,46,1,28,1,-74,1,-42,1,-38,1,-117,1,-21,1,111,1,34,1
851,-17,1,-92,1,-75,1,54,1,29,1,-84,1,-37,1,-36,1,-116,1,-46,1,78,1,12,1
852,-20,1,-94,1,-74,1,57,1,27,1,-84,1,-27,1,-28,1,-109,1,-61,1,53,1,-6,1
853,-22,1,-94,1,-72,1,58,1,25,1,-83,1,-19,1,-21,1,-102,1,-67,1,32,1,-20,1
854,-25,1,-96,1,-71,1,60,1,23,1,-84,1,-12,1,-19,1,-100,1,-73,1,14,1,-33,1
855,-30,1,-103,1,-73,1,66,1,21,1,-88,1,-7,1,-19,1,-96,1,-82,1,-1,1,-45,1
856,-35,1,-109,1,-74,1,72,1,19,1,-92,1,-3,1,-19,1,-96,1,-91,1,-14,1,-57,1
857,-30,1,-105,1,-75,1,67,1,22,1,-90,1,2,1,-18,1,-92,1,-94,1,-19,1,-66,1
858,-31,1,-102,1,-71,1,66,1,20,1,-87,1,6,1,-20,1,-86,1,-96,1,-24,1,-74,1
859,-33,1,-104,1,-71,1,68,1,19,1,-88,1,7,1,-23,1,-85,1,-103,1,-30,1,-83,1
860,-35,1,-104,1,-69,1,69,1,17,1,-87,1,5,1,-25,1,-83,1,-111,1,-35,1,-89,1
861,-36,1,-104,1,-68,1,70,1,16,1,-86,1,3,1,-26,1,-84,1,-116,1,-38,1,-95,1
862,-38,1,-103,1,-65,1,70,1,13,1,-84,1,3,1,-27,1,-82,1,-117,1,-42,1,-98,1
863,-42,1,-104,1,-62,1,73,1,10,1,-83,1,4,1,-25,1,-78,1,-114,1,-42,1,-99,1
864,-43,1,-99,1,-56,1,71,1,6,1,-78,1,7,1,-22,1,-75,1,-108,1,-38,1,-98,1
865,-39,1,-94,1,-55,1,66,1,8,1,-75,1,9,1,-19,1,-72,1,-106,1,-36,1,-99,1
866,-41,1,-92,1,-51,1,66,1,5,1,-72,1,11,1,-20,1,-71,1,-109,1,-34,1,-101,1
867,-45,1,-90,1,-45,1,67,1,0,1,-68,1,14,1,-21,1,-70,1,-109,1,-31,1,-100,1
868,-44,1,-88,1,-44,1,66,1,0,1,-66,1,16,1,-21,1,-70,1,-110,1,-28,1,-100,1
869,-44,1,-84,1,-40,1,64,1,-2,1,-62,1,15,1,-22,1,-70,1,-109,1,-27,1,-102,1
870,-43,1,-81,1,-38,1,62,1,-3,1,-60,1,13,1,-24,1,-69,1,-107,1,-26,1,-103,1
871,-38,1,-78,1,-40,1,58,1,1,1,-59,1,11,1,-24,1,-69,1,-107,1,-24,1,-102,1
872,-34,1,-75,1,-41,1,54,1,3,1,-58,1,11,1,-25,1,-72,1,-106,1,-24,1,-101,1
873,-37,1,-76,1,-39,1,56,1,1,1,-58,1,9,1,-26,1,-75,1,-111,1,-26,1,-102,1
874,-34,1,-75,1,-41,1,54,1,3,1,-58,1,8,1,-28,1,-77,1,-116,1,-28,1,-105,1
875,-34,1,-74,1,-40,1,54,1,3,1,-57,1,8,1,-30,1,-79,1,-118,1,-25,1,-105,1
876,-37,1,-72,1,-35,1,54,1,-1,1,-54,1,10,1,-28,1,-79,1,-118,1,-23,1,-106,1
877,-39,1,-71,1,-32,1,55,1,-4,1,-52,1,11,1,-29,1,-78,1,-119,1,-24,1,-107,1
878,-38,1,-72,1,-34,1,55,1,-2,1,-53,1,11,1,-29,1,-80,1,-120,1,-25,1,-109,1
879,-36,1,-69,1,-33,1,52,1,-2,1,-51,1,12,1,-27,1,-81,1,-122,1,-25,1,-110,1
880,-34,1,-66,1,-32,1,50,1,-1,1,-49,1,10,1,-26,1,-84,1,-128,1,-29,1,-112,1
881,-34,1,-66,1,-32,1,50,1,-1,1,-49,1,10,1,-27,1,-85,1,-124,1,-29,1,-112,1
882,-34,1,-64,1,-30,1,49,1,-2,1,-47,1,10,1,-29,1,-86,1,-120,1,-31,1,-111,1
883,-30,1,-64,1,-34,1,47,1,2,1,-49,1,7,1,-33,1,-91,1,-129,1,-41,1,-116,1
884,-29,1,-65,1,-36,1,47,1,3,1,-51,1,6,1,-35,1,-97,1,-133,1,-46,1,-118,1
885,-33,1,-65,1,-32,1,49,1,-1,1,-49,1,6,1,-37,1,-99,1,-133,1,-44,1,-119,1
886,-31,1,-62,1,-31,1,46,1,0,1,-47,1,6,1,-39,1,-99,1,-132,1,-39,1,-119,1
887,-30,1,-58,1,-28,1,44,1,-1,1,-43,1,9,1,-38,1,-103,1,-134,1,-36,1,-119,1
888,-24,1,-52,1,-28,1,38,1,2,1,-40,1,13,1,-34,1,-101,1,-133,1,-32,1,-119,1
889,-25,1,-52,1,-27,1,38,1,1,1,-40,1,15,1,-32,1,-99,1,-128,1,-33,1,-121,1
890,-27,1,-54,1,-27,1,40,1,0,1,-41,1,16,1,-31,1,-99,1,-126,1,-29,1,-122,1
891,-27,1,-52,1,-25,1,39,1,-1,1,-39,1,16,1,-30,1,-99,1,-122,1,-22,1,-120,1
892,-25,1,-52,1,-27,1,38,1,1,1,-40,1,14,1,-32,1,-101,1,-121,1,-19,1,-123,1
893,-24,1,-53,1,-29,1,38,1,2,1,-41,1,10,1,-36,1,-103,1,-124,1,-20,1,-125,1
894,-26,1,-53,1,-27,1,39,1,0,1,-40,1,10,1,-37,1,-105,1,-126,1,-18,1,-126,1
895,-27,1,-51,1,-24,1,39,1,-2,1,-38,1,10,1,-34,1,-107,1,-128,1,-15,1,-125,1
896,-30,1,-50,1,-20,1,40,1,-5,1,-35,1,11,1,-32,1,-108,1,-130,1,-15,1,-128,1
897,-26,1,-45,1,-19,1,35,1,-4,1,-32,1,12,1,-32,1,-111,1,-132,1,-16,1,-132,1
898,-24,1,-45,1,-21,1,34,1,-2,1,-33,1,11,1,-38,1,-116,1,-136,1,-20,1,-136,1
899,-21,1,-48,1,-27,1,34,1,3,1,-38,1,7,1,-47,1,-122,1,-142,1,-25,1,-141,1
900,-16,1,-47,1,-31,1,31,1,7,1,-39,1,7,1,-51,1,-126,1,-144,1,-27,1,-144,1
901,-13,1,-48,1,-35,1,30,1,11,1,-42,1,8,1,-48,1,-125,1,-145,1,-29,1,-147,1
902,-19,1,-50,1,-31,1,34,1,6,1,-41,1,10,1,-44,1,-124,1,-144,1,-29,1,-147,1
903,-30,1,-49,1,-19,1,39,1,-6,1,-34,1,14,1,-37,1,-119,1,-140,1,-24,1,-144,1
904,-37,1,-45,1,-8,1,41,1,-15,1,-27,1,16,1,-33,1,-116,1,-138,1,-19,1,-141,1
905,-32,1,-43,1,-11,1,37,1,-11,1,-27,1,14,1,-39,1,-119,1,-141,1,-19,1,-143,1
906,-30,1,-39,1,-9,1,34,1,-11,1,-24,1,13,1,-42,1,-120,1,-142,1,-17,1,-142,1
907,-30,1,-36,1,-6,1,33,1,-12,1,-21,1,13,1,-42,1,-121,1,-141,1,-16,1,-142,1
908,-29,1,-33,1,-4,1,31,1,-13,1,-19,1,17,1,-40,1,-119,1,-140,1,-16,1,-143,1
909,-32,1,-31,1,1,1,31,1,-17,1,-15,1,21,1,-35,1,-114,1,-136,1,-14,1,-143,1
910,-31,1,-29,1,2,1,30,1,-17,1,-14,1,25,1,-31,1,-110,1,-134,1,-15,1,-145,1
911,-29,1,-28,1,1,1,28,1,-15,1,-14,1,26,1,-26,1,-105,1,-132,1,-17,1,-147,1
912,-28,1,-27,1,1,1,27,1,-15,1,-13,1,25,1,-22,1,-101,1,-131,1,-18,1,-149,1
913,-32,1,-31,1,1,1,31,1,-17,1,-15,1,20,1,-21,1,-98,1,-132,1,-19,1,-151,1
914,-35,1,-31,1,4,1,33,1,-20,1,-14,1,18,1,-21,1,-95,1,-131,1,-17,1,-150,1
915,-34,1,-31,1,3,1,32,1,-19,1,-14,1,16,1,-23,1,-94,1,-130,1,-15,1,-148,1
916,-35,1,-25,1,10,1,30,1,-23,1,-8,1,17,1,-27,1,-91,1,-128,1,-12,1,-145,1
917,-29,1,-19,1,10,1,24,1,-20,1,-5,1,15,1,-35,1,-91,1,-127,1,-10,1,-142,1
918,-25,1,-13,1,12,1,19,1,-19,1,-1,1,13,1,-40,1,-91,1,-124,1,-8,1,-141,1
919,-24,1,-8,1,16,1,16,1,-20,1,4,1,17,1,-39,1,-86,1,-121,1,-6,1,-140,1
920,-25,1,-6,1,19,1,15,1,-22,1,6,1,19,1,-36,1,-81,1,-120,1,-7,1,-142,1
921,-30,1,-11,1,19,1,20,1,-25,1,4,1,19,1,-34,1,-77,1,-120,1,-10,1,-145,1
922,-29,1,-9,1,20,1,19,1,-25,1,5,1,20,1,-32,1,-70,1,-116,1,-8,1,-145,1
923,-21,1,3,1,24,1,9,1,-22,1,13,1,24,1,-27,1,-60,1,-107,1,3,1,-135,1
924,-14,1,15,1,29,1,0,1,-21,1,22,1,27,1,-24,1,-51,1,-97,1,14,1,-127,1
925,-15,1,21,1,36,1,-3,1,-25,1,28,1,22,1,-24,1,-46,1,-91,1,20,1,-121,1
926,-17,1,21,1,38,1,-2,1,-27,1,29,1,18,1,-22,1,-43,1,-87,1,21,1,-120,1
927,-19,1,18,1,37,1,0,1,-28,1,27,1,18,1,-18,1,-37,1,-86,1,15,1,-123,1
928,-24,1,17,1,41,1,3,1,-32,1,29,1,22,1,-11,1,-30,1,-80,1,13,1,-124,1
929,-24,1,23,1,47,1,0,1,-35,1,35,1,29,1,-3,1,-19,1,-71,1,17,1,-119,1
930,-23,1,26,1,49,1,-1,1,-36,1,37,1,30,1,2,1,-10,1,-61,1,24,1,-114,1
931,-22,1,28,1,50,1,-3,1,-36,1,39,1,27,1,0,1,-6,1,-56,1,30,1,-108,1
932,-23,1,29,1,52,1,-3,1,-37,1,40,1,24,1,-3,1,-1,1,-52,1,33,1,-106,1
933,-25,1,32,1,57,1,-3,1,-41,1,44,1,23,1,-2,1,4,1,-46,1,37,1,-102,1
934,-26,1,37,1,63,1,-5,1,-44,1,50,1,24,1,2,1,9,1,-40,1,43,1,-97,1
935,-23,1,41,1,64,1,-9,1,-43,1,52,1,22,1,2,1,12,1,-35,1,47,1,-93,1
936,-22,1,41,1,63,1,-9,1,-42,1,52,1,20,1,-1,1,14,1,-32,1,48,1,-91,1
937,-21,1,44,1,65,1,-11,1,-43,1,54,1,19,1,-3,1,14,1,-29,1,48,1,-90,1
938,-21,1,45,1,66,1,-12,1,-43,1,55,1,18,1,-4,1,18,1,-24,1,49,1,-90,1
939,-19,1,43,1,62,1,-12,1,-40,1,52,1,15,1,-5,1,19,1,-21,1,49,1,-87,1
940,-18,1,40,1,58,1,-11,1,-38,1,49,1,14,1,-6,1,20,1,-18,1,50,1,-85,1
941,-17,1,38,1,55,1,-10,1,-36,1,46,1,17,1,-6,1,22,1,-12,1,51,1,-84,1
942,-14,1,39,1,53,1,-12,1,-33,1,46,1,19,1,-6,1,26,1,-11,1,51,1,-83,1
943,-13,1,39,1,52,1,-13,1,-32,1,45,1,18,1,-8,1,28,1,-8,1,53,1,-81,1
944,-11,1,39,1,50,1,-14,1,-30,1,44,1,16,1,-8,1,30,1,-1,1,59,1,-79,1
945,-11,1,41,1,52,1,-15,1,-31,1,46,1,15,1,-6,1,34,1,4,1,65,1,-76,1
946,-13,1,41,1,54,1,-14,1,-33,1,47,1,13,1,-2,1,37,1,9,1,69,1,-75,1
947,-15,1,39,1,54,1,-12,1,-34,1,46,1,15,1,0,1,40,1,14,1,71,1,-73,1
948,-15,1,41,1,56,1,-13,1,-35,1,48,1,20,1,5,1,46,1,24,1,79,1,-66,1
949,-18,1,37,1,55,1,-9,1,-36,1,46,1,24,1,7,1,49,1,32,1,82,1,-62,1
950,-10,1,40,1,50,1,-15,1,-30,1,45,1,30,1,7,1,51,1,38,1,86,1,-56,1
951,-1,1,39,1,40,1,-19,1,-20,1,39,1,33,1,8,1,52,1,39,1,85,1,-55,1
952,-6,1,34,1,40,1,-14,1,-23,1,37,1,35,1,13,1,53,1,42,1,85,1,-54,1
953,-17,1,27,1,44,1,-5,1,-30,1,35,1,36,1,16,1,56,1,44,1,85,1,-54,1
954,-19,1,22,1,41,1,-1,1,-30,1,31,1,34,1,13,1,55,1,42,1,83,1,-55,1
955,-13,1,23,1,36,1,-5,1,-24,1,29,1,34,1,7,1,52,1,42,1,84,1,-53,1
956,-12,1,20,1,32,1,-4,1,-22,1,26,1,33,1,0,1,49,1,42,1,88,1,-49,1
957,-5,1,27,1,32,1,-11,1,-18,1,29,1,33,1,-2,1,47,1,46,1,93,1,-45,1
958,-11,1,27,1,38,1,-8,1,-24,1,32,1,28,1,-3,1,44,1,48,1,94,1,-45,1
959,-8,1,27,1,35,1,-9,1,-21,1,31,1,25,1,-4,1,40,1,45,1,88,1,-50,1
960,-7,1,23,1,30,1,-8,1,-18,1,26,1,24,1,-6,1,35,1,41,1,83,1,-54,1
961,-7,1,21,1,28,1,-7,1,-17,1,24,1,24,1,-8,1,31,1,41,1,82,1,-54,1
962,-6,1,21,1,27,1,-7,1,-16,1,24,1,26,1,-9,1,29,1,42,1,85,1,-50,1
963,-6,1,23,1,29,1,-8,1,-17,1,26,1,30,1,-5,1,30,1,45,1,90,1,-45,1
964,-8,1,22,1,30,1,-7,1,-19,1,26,1,30,1,-6,1,30,1,44,1,91,1,-44,1
965,-4,1,22,1,26,1,-9,1,-15,1,24,1,29,1,-11,1,24,1,40,1,90,1,-45,1
966,-3,1,21,1,24,1,-9,1,-13,1,22,1,27,1,-17,1,18,1,36,1,86,1,-48,1
967,-2,1,21,1,23,1,-9,1,-12,1,22,1,26,1,-21,1,13,1,31,1,79,1,-51,1
968,-2,1,19,1,21,1,-8,1,-11,1,20,1,24,1,-19,1,13,1,30,1,75,1,-53,1
969,-8,1,15,1,23,1,-3,1,-15,1,19,1,25,1,-14,1,14,1,31,1,75,1,-52,1
970,-11,1,9,1,20,1,1,1,-15,1,14,1,26,1,-10,1,14,1,34,1,74,1,-53,1
971,-14,1,6,1,20,1,4,1,-17,1,13,1,27,1,-10,1,16,1,38,1,76,1,-51,1
972,-13,1,5,1,18,1,4,1,-15,1,11,1,28,1,-10,1,15,1,38,1,76,1,-50,1
973,-5,1,5,1,10,1,0,1,-7,1,7,1,25,1,-10,1,12,1,34,1,73,1,-53,1
974,-6,1,3,1,9,1,1,1,-7,1,6,1,24,1,-11,1,8,1,32,1,72,1,-54,1
975,-6,1,2,1,8,1,2,1,-7,1,5,1,21,1,-17,1,5,1,29,1,70,1,-56,1
976,-7,1,0,1,7,1,3,1,-7,1,3,1,19,1,-21,1,2,1,25,1,66,1,-60,1
977,-7,1,0,1,7,1,3,1,-7,1,3,1,17,1,-20,1,0,1,23,1,66,1,-62,1
978,-11,1,-1,1,10,1,6,1,-11,1,4,1,17,1,-17,1,0,1,24,1,68,1,-60,1
979,-14,1,-1,1,13,1,7,1,-14,1,6,1,19,1,-16,1,0,1,25,1,70,1,-57,1
980,-15,1,0,1,15,1,7,1,-15,1,7,1,23,1,-14,1,4,1,30,1,73,1,-54,1
981,-10,1,7,1,17,1,1,1,-13,1,12,1,25,1,-13,1,4,1,30,1,70,1,-55,1
982,-7,1,11,1,18,1,-2,1,-12,1,14,1,26,1,-13,1,2,1,26,1,63,1,-60,1
983,-7,1,10,1,17,1,-1,1,-12,1,13,1,27,1,-10,1,0,1,23,1,57,1,-64,1
984,-12,1,5,1,17,1,3,1,-14,1,11,1,26,1,-9,1,-1,1,23,1,55,1,-68,1
985,-10,1,2,1,12,1,4,1,-11,1,7,1,26,1,-10,1,-1,1,23,1,56,1,-66,1
986,0,1,2,1,2,1,-1,1,-1,1,2,1,25,1,-12,1,0,1,23,1,58,1,-64,1
987,2,1,1,1,-1,1,-1,1,2,1,0,1,24,1,-7,1,2,1,24,1,58,1,-66,1
988,0,1,2,1,2,1,-1,1,-1,1,2,1,28,1,1,1,4,1,25,1,58,1,-66,1
989,1,1,3,1,2,1,-2,1,0,1,3,1,30,1,3,1,4,1,25,1,59,1,-66,1
990,-1,1,6,1,7,1,-2,1,-4,1,6,1,31,1,-1,1,2,1,27,1,62,1,-64,1
991,2,1,10,1,8,1,-6,1,-3,1,9,1,30,1,-15,1,-1,1,25,1,62,1,-65,1
992,8,1,15,1,7,1,-11,1,1,1,11,1,28,1,-26,1,-5,1,22,1,59,1,-67,1
993,8,1,19,1,11,1,-13,1,-1,1,15,1,27,1,-29,1,-5,1,21,1,58,1,-66,1
994,8,1,20,1,12,1,-14,1,-2,1,16,1,25,1,-32,1,-4,1,22,1,59,1,-66,1
995,7,1,18,1,11,1,-12,1,-2,1,15,1,23,1,-31,1,-4,1,23,1,60,1,-64,1
996,5,1,18,1,13,1,-11,1,-4,1,16,1,24,1,-28,1,-4,1,24,1,60,1,-63,1
997,4,1,18,1,14,1,-11,1,-5,1,16,1,26,1,-29,1,-3,1,25,1,59,1,-62,1
998,5,1,19,1,14,1,-12,1,-4,1,17,1,27,1,-28,1,-1,1,26,1,58,1,-60,1
999,7,1,20,1,13,1,-13,1,-3,1,17,1,27,1,-23,1,2,1,28,1,55,1,-65,1
1000,6,1,19,1,13,1,-12,1,-3,1,16,1,25,1,-21,1,8,1,31,1,51,1,-70,1
1001,-1,1,13,1,14,1,-6,1,-7,1,13,1,20,1,-22,1,17,1,35,1,50,1,-72,1
1002,5,1,17,1,12,1,-11,1,-3,1,15,1,18,1,-20,1,32,1,42,1,54,1,-73,1
1003,12,1,20,1,8,1,-16,1,2,1,14,1,21,1,-14,1,52,1,54,1,63,1,-68,1
1004,14,1,25,1,11,1,-19,1,2,1,18,1,22,1,-4,1,76,1,71,1,75,1,-59,1
1005,19,1,34,1,15,1,-26,1,2,1,25,1,22,1,1,1,96,1,89,1,88,1,-48,1
1006,24,1,42,1,18,1,-33,1,3,1,30,1,20,1,2,1,108,1,105,1,99,1,-39,1
1007,13,1,45,1,32,1,-29,1,-9,1,39,1,13,1,4,1,117,1,123,1,115,1,-26,1
1008,14,1,51,1,37,1,-32,1,-11,1,44,1,1,1,-2,1,120,1,139,1,126,1,-15,1
1009,19,1,57,1,38,1,-38,1,-9,1,48,1,-14,1,-16,1,114,1,149,1,132,1,-10,1
1010,29,1,66,1,37,1,-47,1,-4,1,52,1,-26,1,-24,1,109,1,160,1,140,1,-3,1
1011,35,1,69,1,34,1,-52,1,1,1,52,1,-40,1,-29,1,105,1,173,1,148,1,4,1
1012,41,1,67,1,26,1,-54,1,8,1,47,1,-55,1,-33,1,98,1,185,1,157,1,8,1
1013,55,1,68,1,13,1,-61,1,21,1,41,1,-65,1,-32,1,94,1,200,1,168,1,15,1
1014,60,1,68,1,8,1,-64,1,26,1,38,1,-72,1,-29,1,93,1,220,1,180,1,23,1
1015,64,1,68,1,4,1,-66,1,30,1,36,1,-79,1,-26,1,91,1,241,1,198,1,36,1
1016,75,1,70,1,-5,1,-72,1,40,1,33,1,-89,1,-25,1,85,1,262,1,218,1,53,1
1017,85,1,68,1,-17,1,-76,1,51,1,26,1,-96,1,-29,1,72,1,277,1,234,1,67,1
1018,86,1,64,1,-22,1,-75,1,54,1,21,1,-104,1,-33,1,57,1,284,1,245,1,77,1
1019,81,1,64,1,-17,1,-72,1,49,1,24,1,-111,1,-35,1,34,1,282,1,250,1,86,1
1020,78,1,68,1,-10,1,-73,1,44,1,29,1,-116,1,-41,1,6,1,272,1,253,1,92,1
1021,71,1,74,1,3,1,-72,1,34,1,39,1,-121,1,-51,1,-24,1,258,1,258,1,96,1
1022,64,1,85,1,21,1,-74,1,22,1,53,1,-128,1,-63,1,-59,1,242,1,263,1,100,1
1023,66,1,92,1,26,1,-79,1,20,1,59,1,-138,1,-89,1,-99,1,216,1,261,1,100,1
1024,68,1,96,1,28,1,-82,1,20,1,62,1,-141,1,-109,1,-133,1,185,1,251,1,98,1
1025,68,1,90,1,22,1,-79,1,23,1,56,1,-137,1,-118,1,-157,1,155,1,240,1,93,1
1026,63,1,79,1,16,1,-71,1,24,1,48,1,-128,1,-117,1,-170,1,130,1,228,1,91,1
1027,58,1,70,1,12,1,-64,1,23,1,41,1,-120,1,-109,1,-174,1,112,1,219,1,88,1
1028,52,1,61,1,9,1,-56,1,22,1,35,1,-109,1,-95,1,-171,1,98,1,210,1,84,1
1029,39,1,50,1,11,1,-44,1,14,1,31,1,-93,1,-77,1,-166,1,81,1,195,1,73,1
1030,32,1,31,1,-1,1,-31,1,17,1,15,1,-78,1,-70,1,-165,1,57,1,170,1,50,1
1031,38,1,11,1,-27,1,-24,1,33,1,-8,1,-67,1,-72,1,-168,1,29,1,143,1,24,1
1032,39,1,-8,1,-47,1,-15,1,43,1,-27,1,-58,1,-77,1,-169,1,6,1,119,1,3,1
1033,28,1,-30,1,-58,1,1,1,43,1,-44,1,-50,1,-74,1,-169,1,-16,1,94,1,-16,1
1034,22,1,-47,1,-69,1,12,1,45,1,-58,1,-42,1,-71,1,-168,1,-38,1,67,1,-36,1
1035,23,1,-54,1,-77,1,15,1,50,1,-65,1,-31,1,-63,1,-164,1,-58,1,39,1,-54,1
1036,19,1,-55,1,-74,1,18,1,46,1,-64,1,-18,1,-56,1,-159,1,-77,1,12,1,-72,1
1037,12,1,-60,1,-72,1,24,1,42,1,-66,1,-10,1,-56,1,-158,1,-94,1,-13,1,-90,1
1038,-6,1,-74,1,-68,1,40,1,31,1,-71,1,-9,1,-61,1,-159,1,-113,1,-36,1,-111,1
1039,-19,1,-84,1,-65,1,51,1,23,1,-75,1,-9,1,-63,1,-161,1,-125,1,-51,1,-126,1
1040,-15,1,-80,1,-65,1,47,1,25,1,-73,1,-7,1,-59,1,-158,1,-129,1,-58,1,-134,1
1041,-9,1,-75,1,-66,1,42,1,28,1,-71,1,-4,1,-48,1,-153,1,-131,1,-65,1,-143,1
1042,-8,1,-73,1,-65,1,40,1,28,1,-69,1,0,1,-36,1,-146,1,-132,1,-71,1,-151,1
1043,-12,1,-75,1,-63,1,43,1,25,1,-69,1,2,1,-25,1,-139,1,-130,1,-75,1,-155,1
1044,-28,1,-89,1,-61,1,58,1,16,1,-75,1,1,1,-21,1,-135,1,-130,1,-81,1,-164,1
1045,-41,1,-101,1,-60,1,71,1,9,1,-81,1,0,1,-24,1,-135,1,-135,1,-89,1,-173,1
1046,-52,1,-105,1,-53,1,78,1,0,1,-79,1,0,1,-28,1,-135,1,-139,1,-95,1,-177,1
1047,-58,1,-99,1,-41,1,78,1,-9,1,-70,1,1,1,-26,1,-131,1,-137,1,-93,1,-176,1
1048,-52,1,-89,1,-37,1,70,1,-8,1,-63,1,2,1,-25,1,-129,1,-137,1,-90,1,-172,1
1049,-43,1,-81,1,-38,1,62,1,-3,1,-60,1,0,1,-28,1,-129,1,-137,1,-88,1,-173,1
1050,-38,1,-77,1,-39,1,57,1,0,1,-58,1,-2,1,-26,1,-129,1,-135,1,-85,1,-175,1
1051,-38,1,-76,1,-38,1,57,1,0,1,-57,1,-3,1,-23,1,-127,1,-133,1,-84,1,-177,1
1052,-45,1,-76,1,-31,1,60,1,-7,1,-54,1,-3,1,-22,1,-126,1,-132,1,-84,1,-178,1
1053,-47,1,-75,1,-28,1,61,1,-10,1,-52,1,-2,1,-22,1,-125,1,-134,1,-86,1,-179,1
1054,-44,1,-71,1,-27,1,57,1,-9,1,-49,1,2,1,-19,1,-121,1,-134,1,-88,1,-178,1
1055,-42,1,-65,1,-23,1,53,1,-10,1,-44,1,5,1,-15,1,-116,1,-131,1,-86,1,-173,1
1056,-45,1,-68,1,-23,1,56,1,-11,1,-46,1,5,1,-20,1,-118,1,-132,1,-87,1,-171,1
1057,-49,1,-68,1,-19,1,58,1,-15,1,-44,1,4,1,-25,1,-119,1,-134,1,-89,1,-171,1
1058,-44,1,-62,1,-18,1,53,1,-13,1,-40,1,6,1,-24,1,-119,1,-132,1,-86,1,-168,1
1059,-42,1,-61,1,-19,1,51,1,-12,1,-40,1,3,1,-22,1,-121,1,-133,1,-84,1,-168,1
1060,-35,1,-59,1,-24,1,47,1,-6,1,-42,1,1,1,-20,1,-122,1,-134,1,-82,1,-167,1
1061,-28,1,-57,1,-29,1,42,1,0,1,-43,1,0,1,-17,1,-123,1,-135,1,-82,1,-168,1
1062,-28,1,-55,1,-27,1,41,1,-1,1,-41,1,0,1,-13,1,-124,1,-136,1,-83,1,-168,1
1063,-36,1,-59,1,-23,1,47,1,-7,1,-41,1,1,1,-11,1,-123,1,-139,1,-85,1,-167,1
1064,-41,1,-62,1,-21,1,51,1,-10,1,-42,1,2,1,-14,1,-125,1,-141,1,-87,1,-167,1
1065,-48,1,-70,1,-22,1,59,1,-13,1,-46,1,-2,1,-23,1,-130,1,-146,1,-89,1,-169,1
1066,-53,1,-74,1,-21,1,63,1,-16,1,-48,1,-4,1,-28,1,-133,1,-146,1,-88,1,-167,1
1067,-52,1,-72,1,-20,1,62,1,-16,1,-46,1,-5,1,-27,1,-135,1,-144,1,-82,1,-161,1
1068,-49,1,-67,1,-18,1,58,1,-16,1,-43,1,-6,1,-30,1,-137,1,-142,1,-78,1,-159,1
1069,-49,1,-61,1,-12,1,55,1,-19,1,-37,1,-5,1,-24,1,-137,1,-147,1,-84,1,-163,1
1070,-52,1,-61,1,-9,1,56,1,-22,1,-35,1,-6,1,-20,1,-137,1,-154,1,-93,1,-171,1
1071,-54,1,-60,1,-6,1,57,1,-24,1,-33,1,-6,1,-14,1,-133,1,-155,1,-98,1,-176,1
1072,-53,1,-59,1,-6,1,56,1,-24,1,-33,1,-3,1,-7,1,-129,1,-154,1,-100,1,-180,1
1073,-58,1,-68,1,-10,1,63,1,-24,1,-39,1,-5,1,-12,1,-134,1,-158,1,-105,1,-185,1
1074,-67,1,-79,1,-12,1,73,1,-28,1,-46,1,-10,1,-21,1,-140,1,-162,1,-109,1,-185,1
1075,-63,1,-77,1,-14,1,70,1,-25,1,-46,1,-9,1,-26,1,-141,1,-162,1,-106,1,-181,1
1076,-49,1,-65,1,-16,1,57,1,-17,1,-41,1,-5,1,-29,1,-140,1,-158,1,-99,1,-174,1
1077,-63,1,-75,1,-12,1,69,1,-26,1,-44,1,-11,1,-40,1,-149,1,-163,1,-100,1,-175,1
1078,-68,1,-79,1,-11,1,73,1,-29,1,-45,1,-14,1,-44,1,-153,1,-169,1,-103,1,-177,1
1079,-69,1,-81,1,-12,1,75,1,-29,1,-47,1,-18,1,-41,1,-155,1,-176,1,-108,1,-181,1
1080,-67,1,-85,1,-18,1,76,1,-25,1,-52,1,-20,1,-37,1,-155,1,-181,1,-116,1,-188,1
1081,-59,1,-86,1,-27,1,72,1,-16,1,-57,1,-18,1,-30,1,-152,1,-182,1,-119,1,-189,1
1082,-67,1,-87,1,-20,1,77,1,-24,1,-54,1,-12,1,-25,1,-146,1,-177,1,-111,1,-179,1
1083,-73,1,-83,1,-10,1,78,1,-32,1,-47,1,-7,1,-21,1,-140,1,-169,1,-101,1,-169,1
1084,-73,1,-74,1,-1,1,73,1,-36,1,-38,1,-6,1,-21,1,-136,1,-163,1,-95,1,-164,1
1085,-72,1,-65,1,7,1,68,1,-40,1,-29,1,-5,1,-18,1,-136,1,-163,1,-97,1,-163,1
1086,-72,1,-65,1,7,1,68,1,-40,1,-29,1,-7,1,-18,1,-134,1,-167,1,-104,1,-168,1
1087,-77,1,-74,1,3,1,75,1,-40,1,-36,1,-8,1,-18,1,-130,1,-168,1,-108,1,-170,1
1088,-84,1,-81,1,3,1,82,1,-44,1,-39,1,-4,1,-12,1,-123,1,-165,1,-105,1,-165,1
1089,-89,1,-83,1,6,1,86,1,-48,1,-39,1,-4,1,-8,1,-118,1,-159,1,-98,1,-156,1
1090,-87,1,-76,1,11,1,81,1,-49,1,-33,1,-3,1,-4,1,-113,1,-155,1,-92,1,-150,1
1091,-85,1,-69,1,16,1,77,1,-51,1,-27,1,-4,1,-2,1,-109,1,-155,1,-91,1,-152,1
1092,-88,1,-69,1,19,1,78,1,-54,1,-25,1,-6,1,-4,1,-108,1,-157,1,-97,1,-162,1
1093,-93,1,-72,1,21,1,82,1,-57,1,-26,1,-7,1,-5,1,-108,1,-156,1,-101,1,-167,1
1094,-88,1,-69,1,19,1,78,1,-54,1,-25,1,-3,1,-3,1,-103,1,-155,1,-102,1,-165,1
1095,-86,1,-70,1,16,1,78,1,-51,1,-27,1,1,1,-1,1,-94,1,-151,1,-97,1,-159,1
1096,-89,1,-70,1,19,1,79,1,-54,1,-26,1,4,1,-3,1,-88,1,-147,1,-92,1,-155,1
1097,-89,1,-65,1,24,1,77,1,-57,1,-21,1,7,1,0,1,-81,1,-142,1,-88,1,-150,1
1098,-93,1,-66,1,27,1,79,1,-60,1,-20,1,5,1,-2,1,-77,1,-140,1,-86,1,-148,1
1099,-86,1,-60,1,26,1,73,1,-56,1,-17,1,-2,1,-5,1,-78,1,-140,1,-87,1,-147,1
1100,-72,1,-52,1,20,1,62,1,-46,1,-16,1,-5,1,-4,1,-76,1,-138,1,-85,1,-145,1
1101,-77,1,-52,1,25,1,64,1,-51,1,-14,1,-5,1,-3,1,-73,1,-136,1,-87,1,-149,1
1102,-84,1,-56,1,28,1,70,1,-56,1,-14,1,-3,1,-3,1,-68,1,-133,1,-87,1,-156,1
1103,-80,1,-53,1,27,1,66,1,-54,1,-13,1,0,1,-1,1,-63,1,-125,1,-82,1,-157,1
1104,-77,1,-47,1,30,1,62,1,-54,1,-9,1,8,1,5,1,-53,1,-114,1,-73,1,-154,1
1105,-72,1,-36,1,36,1,54,1,-54,1,0,1,17,1,14,1,-42,1,-102,1,-64,1,-147,1
1106,-78,1,-34,1,44,1,56,1,-61,1,5,1,21,1,21,1,-30,1,-93,1,-58,1,-143,1
1107,-80,1,-37,1,43,1,58,1,-62,1,3,1,15,1,20,1,-24,1,-90,1,-58,1,-142,1
1108,-76,1,-44,1,32,1,60,1,-54,1,-6,1,6,1,14,1,-27,1,-95,1,-66,1,-149,1
1109,-72,1,-45,1,27,1,58,1,-50,1,-9,1,1,1,17,1,-27,1,-97,1,-72,1,-155,1
1110,-76,1,-47,1,29,1,61,1,-53,1,-9,1,1,1,21,1,-24,1,-90,1,-68,1,-154,1
1111,-79,1,-46,1,33,1,62,1,-56,1,-7,1,4,1,25,1,-19,1,-77,1,-55,1,-147,1
1112,-86,1,-47,1,39,1,66,1,-63,1,-4,1,6,1,29,1,-13,1,-63,1,-41,1,-139,1
1113,-97,1,-54,1,43,1,75,1,-70,1,-6,1,3,1,26,1,-9,1,-58,1,-37,1,-138,1
1114,-93,1,-49,1,44,1,71,1,-69,1,-3,1,0,1,19,1,-8,1,-57,1,-38,1,-139,1
1115,-88,1,-46,1,42,1,67,1,-65,1,-2,1,-2,1,16,1,-7,1,-56,1,-41,1,-141,1
1116,-88,1,-44,1,44,1,66,1,-66,1,0,1,-1,1,20,1,-1,1,-51,1,-40,1,-136,1
1117,-91,1,-46,1,45,1,68,1,-68,1,-1,1,0,1,24,1,5,1,-44,1,-34,1,-129,1
1118,-96,1,-51,1,45,1,73,1,-71,1,-3,1,0,1,29,1,8,1,-37,1,-25,1,-124,1
1119,-92,1,-45,1,47,1,68,1,-70,1,1,1,1,1,36,1,15,1,-25,1,-12,1,-114,1
1120,-76,1,-34,1,42,1,55,1,-59,1,4,1,1,1,37,1,21,1,-18,1,-5,1,-107,1
1121,-62,1,-28,1,34,1,45,1,-48,1,3,1,-2,1,35,1,19,1,-16,1,-5,1,-106,1
1122,-63,1,-25,1,38,1,44,1,-51,1,6,1,-1,1,38,1,19,1,-11,1,-1,1,-102,1
1123,-74,1,-27,1,47,1,50,1,-61,1,10,1,0,1,42,1,23,1,-2,1,9,1,-95,1
1124,-84,1,-29,1,55,1,56,1,-70,1,13,1,2,1,42,1,24,1,2,1,15,1,-91,1
1125,-75,1,-20,1,55,1,47,1,-65,1,17,1,2,1,38,1,23,1,4,1,18,1,-86,1
1126,-64,1,-13,1,51,1,38,1,-58,1,19,1,1,1,34,1,22,1,6,1,19,1,-85,1
1127,-56,1,-10,1,46,1,33,1,-51,1,18,1,0,1,35,1,19,1,4,1,14,1,-89,1
1128,-44,1,-5,1,39,1,24,1,-42,1,17,1,-3,1,31,1,18,1,4,1,13,1,-89,1
1129,-43,1,-6,1,37,1,24,1,-40,1,15,1,-5,1,29,1,19,1,8,1,18,1,-84,1
1130,-46,1,-9,1,37,1,27,1,-42,1,14,1,-2,1,30,1,21,1,14,1,25,1,-76,1
1131,-54,1,-16,1,38,1,35,1,-46,1,11,1,-2,1,34,1,22,1,19,1,31,1,-71,1
1132,-53,1,-14,1,39,1,33,1,-46,1,12,1,-3,1,36,1,25,1,23,1,35,1,-68,1
1133,-58,1,-17,1,41,1,37,1,-50,1,12,1,-10,1,36,1,23,1,25,1,36,1,-69,1
1134,-65,1,-24,1,41,1,44,1,-53,1,8,1,-17,1,33,1,18,1,25,1,38,1,-69,1
1135,-69,1,-18,1,51,1,43,1,-60,1,16,1,-9,1,43,1,21,1,31,1,46,1,-63,1
1136,-61,1,-7,1,54,1,34,1,-58,1,23,1,-3,1,48,1,25,1,32,1,48,1,-60,1
1137,-55,1,-8,1,47,1,31,1,-51,1,19,1,-5,1,41,1,22,1,29,1,45,1,-60,1
1138,-63,1,-20,1,43,1,41,1,-53,1,11,1,-10,1,31,1,17,1,25,1,41,1,-65,1
1139,-64,1,-29,1,35,1,46,1,-50,1,3,1,-14,1,19,1,9,1,19,1,36,1,-68,1
1140,-50,1,-26,1,24,1,38,1,-37,1,-1,1,-16,1,10,1,3,1,13,1,32,1,-70,1
1141,-49,1,-26,1,23,1,37,1,-36,1,-2,1,-16,1,13,1,2,1,13,1,31,1,-71,1
1142,-56,1,-21,1,35,1,38,1,-46,1,7,1,-11,1,23,1,8,1,18,1,34,1,-71,1
1143,-66,1,-20,1,46,1,43,1,-56,1,13,1,-8,1,31,1,14,1,24,1,41,1,-66,1
1144,-68,1,-13,1,55,1,40,1,-62,1,21,1,-3,1,38,1,19,1,33,1,53,1,-59,1
1145,-54,1,-5,1,49,1,29,1,-52,1,22,1,-3,1,27,1,16,1,36,1,60,1,-55,1
1146,-42,1,-1,1,41,1,21,1,-42,1,20,1,-1,1,16,1,10,1,29,1,56,1,-57,1
1147,-41,1,-6,1,35,1,23,1,-38,1,14,1,2,1,11,1,2,1,18,1,42,1,-66,1
1148,-50,1,-15,1,35,1,32,1,-43,1,10,1,4,1,14,1,2,1,13,1,34,1,-72,1
1149,-55,1,-24,1,31,1,39,1,-43,1,3,1,2,1,17,1,1,1,11,1,32,1,-75,1
1150,-43,1,-17,1,26,1,30,1,-35,1,4,1,2,1,25,1,6,1,17,1,40,1,-67,1
1151,-43,1,-16,1,27,1,29,1,-35,1,5,1,-1,1,28,1,8,1,18,1,40,1,-66,1
1152,-46,1,-23,1,23,1,34,1,-35,1,0,1,-8,1,24,1,4,1,12,1,32,1,-72,1
1153,-47,1,-26,1,21,1,36,1,-34,1,-3,1,-9,1,23,1,2,1,9,1,30,1,-73,1
1154,-50,1,-25,1,25,1,37,1,-38,1,0,1,-5,1,27,1,10,1,15,1,38,1,-66,1
1155,-51,1,-23,1,28,1,37,1,-40,1,2,1,-3,1,29,1,17,1,22,1,47,1,-60,1
1156,-48,1,-19,1,29,1,33,1,-39,1,5,1,-4,1,31,1,19,1,26,1,51,1,-57,1
1157,-46,1,-11,1,35,1,28,1,-41,1,12,1,-1,1,34,1,25,1,29,1,55,1,-51,1
1158,-42,1,-3,1,39,1,22,1,-41,1,18,1,5,1,33,1,31,1,30,1,58,1,-45,1
1159,-38,1,5,1,43,1,16,1,-40,1,24,1,11,1,37,1,37,1,32,1,59,1,-41,1
1160,-41,1,2,1,43,1,19,1,-42,1,22,1,13,1,38,1,35,1,26,1,51,1,-47,1
1161,-49,1,-2,1,47,1,25,1,-48,1,22,1,9,1,41,1,35,1,24,1,48,1,-54,1
1162,-59,1,-9,1,50,1,34,1,-55,1,20,1,2,1,45,1,38,1,29,1,51,1,-53,1
1163,-66,1,-14,1,52,1,40,1,-59,1,19,1,-3,1,45,1,38,1,32,1,57,1,-49,1
1164,-60,1,-18,1,42,1,39,1,-51,1,12,1,-6,1,31,1,29,1,24,1,52,1,-51,1
1165,-50,1,-17,1,33,1,33,1,-42,1,8,1,-6,1,20,1,21,1,15,1,45,1,-54,1
1166,-45,1,-16,1,29,1,30,1,-37,1,6,1,-4,1,16,1,20,1,12,1,43,1,-53,1
1167,-51,1,-23,1,28,1,37,1,-40,1,2,1,-4,1,14,1,18,1,8,1,41,1,-53,1
1168,-41,1,-12,1,29,1,26,1,-35,1,8,1,-4,1,23,1,25,1,15,1,47,1,-47,1
1169,-41,1,-9,1,32,1,25,1,-37,1,11,1,-8,1,25,1,27,1,18,1,47,1,-48,1
1170,-43,1,-13,1,30,1,28,1,-37,1,8,1,-13,1,25,1,27,1,16,1,43,1,-55,1
1171,-46,1,-19,1,27,1,32,1,-37,1,4,1,-15,1,24,1,24,1,14,1,40,1,-59,1
1172,-39,1,-14,1,25,1,26,1,-32,1,5,1,-12,1,24,1,27,1,17,1,44,1,-55,1
1173,-44,1,-13,1,31,1,28,1,-38,1,9,1,-8,1,25,1,28,1,20,1,47,1,-52,1
1174,-45,1,-15,1,30,1,30,1,-38,1,7,1,-8,1,24,1,24,1,17,1,40,1,-62,1
1175,-40,1,-14,1,26,1,27,1,-33,1,6,1,-8,1,24,1,22,1,13,1,30,1,-76,1
1176,-36,1,-12,1,24,1,24,1,-30,1,6,1,-5,1,26,1,24,1,14,1,30,1,-77,1
1177,-35,1,-10,1,25,1,22,1,-30,1,7,1,-3,1,25,1,25,1,18,1,38,1,-69,1
1178,-32,1,-12,1,20,1,22,1,-26,1,4,1,-4,1,19,1,25,1,17,1,43,1,-65,1
1179,-33,1,-16,1,17,1,24,1,-25,1,0,1,-7,1,19,1,24,1,15,1,44,1,-62,1
1180,-33,1,-12,1,21,1,22,1,-27,1,4,1,-4,1,23,1,27,1,16,1,45,1,-60,1
1181,-36,1,-12,1,24,1,24,1,-30,1,6,1,-4,1,21,1,29,1,16,1,43,1,-61,1
1182,-37,1,-12,1,25,1,24,1,-31,1,6,1,-2,1,17,1,29,1,16,1,43,1,-62,1
1183,-37,1,-9,1,28,1,23,1,-33,1,9,1,2,1,17,1,29,1,19,1,45,1,-57,1
1184,-38,1,-4,1,34,1,21,1,-36,1,15,1,4,1,18,1,30,1,22,1,48,1,-55,1
1185,-35,1,-3,1,32,1,19,1,-34,1,14,1,1,1,16,1,27,1,21,1,47,1,-56,1
1186,-37,1,-6,1,31,1,21,1,-34,1,12,1,0,1,17,1,26,1,19,1,46,1,-57,1
1187,-38,1,-5,1,33,1,21,1,-36,1,14,1,0,1,22,1,30,1,23,1,50,1,-52,1
1188,-33,1,1,1,34,1,16,1,-33,1,17,1,3,1,27,1,35,1,28,1,57,1,-46,1
1189,-34,1,0,1,34,1,17,1,-34,1,17,1,3,1,31,1,37,1,30,1,63,1,-41,1
1190,-31,1,1,1,32,1,15,1,-31,1,16,1,3,1,29,1,37,1,30,1,65,1,-38,1
1191,-26,1,2,1,28,1,12,1,-27,1,15,1,1,1,26,1,36,1,25,1,61,1,-40,1
1192,-27,1,1,1,28,1,13,1,-27,1,14,1,1,1,17,1,33,1,20,1,53,1,-48,1
1193,-21,1,2,1,23,1,9,1,-22,1,12,1,1,1,14,1,30,1,18,1,48,1,-53,1
1194,-22,1,1,1,23,1,10,1,-22,1,12,1,2,1,17,1,32,1,21,1,52,1,-49,1
1195,-26,1,-2,1,24,1,14,1,-25,1,11,1,0,1,17,1,36,1,26,1,58,1,-43,1
1196,-32,1,-10,1,22,1,21,1,-27,1,6,1,-2,1,12,1,32,1,22,1,54,1,-46,1
1197,-29,1,-12,1,17,1,20,1,-23,1,2,1,-3,1,8,1,29,1,16,1,47,1,-50,1
1198,-18,1,3,1,21,1,7,1,-19,1,12,1,4,1,17,1,33,1,19,1,50,1,-45,1
1199,-20,1,7,1,27,1,6,1,-23,1,17,1,3,1,21,1,34,1,20,1,51,1,-43,1
1200,-19,1,9,1,28,1,5,1,-23,1,18,1,1,1,23,1,37,1,21,1,53,1,-40,1
1201,-16,1,12,1,28,1,2,1,-22,1,20,1,2,1,26,1,41,1,26,1,60,1,-36,1
1202,-13,1,16,1,29,1,-1,1,-21,1,22,1,3,1,25,1,44,1,32,1,68,1,-31,1
1203,-18,1,17,1,35,1,0,1,-26,1,26,1,3,1,26,1,46,1,36,1,71,1,-30,1
1204,-22,1,11,1,33,1,5,1,-27,1,22,1,1,1,23,1,44,1,32,1,66,1,-33,1
1205,-17,1,8,1,25,1,4,1,-21,1,16,1,-1,1,19,1,41,1,26,1,60,1,-36,1
1206,-11,1,7,1,18,1,2,1,-14,1,12,1,-3,1,18,1,37,1,23,1,56,1,-37,1
1207,-8,1,10,1,18,1,-1,1,-13,1,14,1,1,1,20,1,39,1,23,1,56,1,-33,1
1208,-8,1,12,1,20,1,-2,1,-14,1,16,1,6,1,25,1,41,1,24,1,56,1,-31,1
1209,-14,1,5,1,19,1,4,1,-16,1,12,1,9,1,24,1,38,1,23,1,55,1,-34,1
1210,-10,1,11,1,21,1,0,1,-15,1,16,1,12,1,24,1,39,1,25,1,58,1,-33,1
1211,-13,1,10,1,23,1,1,1,-18,1,16,1,12,1,24,1,39,1,26,1,60,1,-33,1
1212,-6,1,17,1,23,1,-5,1,-14,1,20,1,12,1,22,1,40,1,28,1,64,1,-30,1
1213,-2,1,21,1,23,1,-9,1,-12,1,22,1,9,1,20,1,39,1,28,1,66,1,-27,1
1214,-5,1,16,1,21,1,-5,1,-13,1,18,1,3,1,19,1,39,1,27,1,66,1,-25,1
1215,-6,1,15,1,21,1,-4,1,-13,1,18,1,1,1,19,1,39,1,24,1,63,1,-24,1
1216,-9,1,14,1,23,1,-2,1,-16,1,18,1,3,1,21,1,40,1,23,1,59,1,-25,1
1217,-12,1,12,1,24,1,0,1,-18,1,18,1,3,1,23,1,40,1,22,1,55,1,-25,1
1218,-11,1,11,1,22,1,0,1,-16,1,16,1,7,1,26,1,42,1,22,1,53,1,-26,1
1219,-3,1,11,1,14,1,-4,1,-8,1,12,1,10,1,25,1,41,1,21,1,52,1,-27,1
1220,0,1,9,1,9,1,-4,1,-4,1,9,1,10,1,22,1,39,1,18,1,50,1,-28,1
1221,-1,1,0,1,1,1,0,1,-1,1,0,1,6,1,18,1,34,1,14,1,45,1,-34,1
1222,-1,1,0,1,1,1,0,1,-1,1,0,1,5,1,17,1,35,1,15,1,46,1,-37,1
1223,0,1,2,1,2,1,-1,1,-1,1,2,1,7,1,19,1,37,1,18,1,48,1,-36,1
1224,-3,1,4,1,7,1,0,1,-5,1,5,1,9,1,22,1,39,1,21,1,51,1,-33,1
1225,-3,1,8,1,11,1,-2,1,-7,1,9,1,10,1,23,1,42,1,24,1,56,1,-30,1
1226,-3,1,14,1,17,1,-5,1,-10,1,15,1,12,1,27,1,47,1,29,1,62,1,-24,1
1227,0,1,20,1,20,1,-10,1,-10,1,20,1,14,1,29,1,49,1,32,1,65,1,-20,1
1228,5,1,21,1,16,1,-13,1,-5,1,19,1,13,1,26,1,46,1,30,1,62,1,-22,1
1229,2,1,21,1,19,1,-11,1,-8,1,20,1,12,1,27,1,46,1,30,1,62,1,-21,1
1230,0,1,22,1,22,1,-11,1,-11,1,22,1,13,1,29,1,47,1,31,1,63,1,-20,1
1231,6,1,24,1,18,1,-15,1,-6,1,21,1,14,1,28,1,46,1,29,1,62,1,-21,1
1232,10,1,26,1,16,1,-18,1,-3,1,21,1,13,1,25,1,46,1,29,1,62,1,-22,1
1233,9,1,27,1,18,1,-18,1,-4,1,23,1,12,1,25,1,48,1,29,1,61,1,-21,1
1234,7,1,27,1,20,1,-17,1,-6,1,24,1,11,1,27,1,51,1,32,1,62,1,-19,1
1235,5,1,28,1,23,1,-16,1,-9,1,26,1,11,1,28,1,54,1,33,1,63,1,-17,1
1236,5,1,30,1,25,1,-17,1,-10,1,28,1,10,1,26,1,54,1,34,1,64,1,-15,1
1237,8,1,30,1,22,1,-19,1,-7,1,26,1,6,1,18,1,51,1,31,1,62,1,-16,1
1238,10,1,33,1,23,1,-21,1,-6,1,28,1,4,1,16,1,49,1,30,1,62,1,-16,1
1239,13,1,35,1,22,1,-24,1,-4,1,29,1,5,1,17,1,48,1,30,1,62,1,-16,1
1240,15,1,36,1,21,1,-25,1,-3,1,29,1,5,1,18,1,45,1,29,1,61,1,-16,1
1241,15,1,37,1,22,1,-26,1,-3,1,30,1,6,1,15,1,43,1,29,1,60,1,-16,1
1242,15,1,37,1,22,1,-26,1,-3,1,30,1,7,1,15,1,46,1,30,1,62,1,-14,1
1243,16,1,39,1,23,1,-27,1,-3,1,31,1,6,1,17,1,50,1,32,1,63,1,-12,1
1244,15,1,41,1,26,1,-28,1,-5,1,34,1,6,1,19,1,50,1,33,1,64,1,-10,1
1245,15,1,44,1,29,1,-29,1,-7,1,37,1,6,1,22,1,52,1,33,1,64,1,-9,1
1246,16,1,47,1,31,1,-31,1,-7,1,39,1,6,1,21,1,51,1,31,1,63,1,-10,1
1247,19,1,49,1,30,1,-34,1,-5,1,40,1,6,1,20,1,52,1,31,1,65,1,-9,1
1248,23,1,51,1,28,1,-37,1,-2,1,40,1,6,1,18,1,52,1,31,1,65,1,-8,1
1249,25,1,52,1,27,1,-38,1,-1,1,40,1,6,1,19,1,52,1,31,1,66,1,-7,1
1250,25,1,52,1,27,1,-38,1,-1,1,40,1,5,1,21,1,53,1,32,1,66,1,-5,1
1251,26,1,52,1,26,1,-39,1,0,1,39,1,5,1,22,1,52,1,31,1,65,1,-4,1
1252,28,1,53,1,25,1,-40,1,2,1,39,1,4,1,21,1,51,1,31,1,64,1,-3,1
1253,29,1,53,1,24,1,-41,1,3,1,39,1,2,1,20,1,48,1,30,1,63,1,-3,1
1254,30,1,53,1,23,1,-41,1,4,1,38,1,1,1,20,1,46,1,29,1,62,1,-3,1
1255,32,1,54,1,22,1,-43,1,5,1,38,1,0,1,18,1,46,1,28,1,60,1,-2,1
1256,34,1,54,1,20,1,-44,1,7,1,37,1,-1,1,18,1,47,1,28,1,60,1,-2,1
1257,36,1,55,1,19,1,-45,1,9,1,37,1,-1,1,18,1,47,1,28,1,59,1,-3,1
1258,38,1,55,1,17,1,-46,1,11,1,36,1,-1,1,20,1,47,1,28,1,60,1,-2,1
1259,39,1,56,1,17,1,-47,1,11,1,37,1,-1,1,19,1,47,1,29,1,60,1,-2,1
1260,36,1,55,1,19,1,-45,1,9,1,37,1,0,1,20,1,47,1,30,1,61,1,0,1
1261,33,1,56,1,23,1,-44,1,5,1,40,1,2,1,19,1,48,1,32,1,63,1,1,1
1262,32,1,57,1,25,1,-44,1,4,1,41,1,3,1,18,1,49,1,32,1,63,1,2,1
1263,32,1,58,1,26,1,-45,1,3,1,42,1,3,1,17,1,49,1,32,1,63,1,4,1
1264,30,1,58,1,28,1,-44,1,1,1,43,1,4,1,18,1,51,1,33,1,65,1,6,1
1265,31,1,60,1,29,1,-45,1,1,1,45,1,5,1,19,1,51,1,33,1,66,1,7,1
1266,35,1,63,1,28,1,-49,1,4,1,46,1,5,1,18,1,51,1,33,1,65,1,7,1
1267,30,1,62,1,32,1,-46,1,-1,1,47,1,7,1,18,1,52,1,34,1,67,1,11,1
1268,26,1,61,1,35,1,-43,1,-4,1,48,1,10,1,16,1,51,1,36,1,67,1,14,1
1269,31,1,62,1,31,1,-46,1,0,1,47,1,12,1,12,1,49,1,35,1,65,1,15,1
1270,34,1,65,1,31,1,-49,1,2,1,48,1,15,1,13,1,48,1,37,1,66,1,18,1
1271,38,1,64,1,26,1,-51,1,6,1,45,1,17,1,13,1,48,1,38,1,64,1,19,1
1272,36,1,61,1,25,1,-48,1,6,1,43,1,16,1,13,1,51,1,38,1,62,1,18,1
1273,36,1,59,1,23,1,-47,1,7,1,41,1,15,1,12,1,51,1,37,1,57,1,17,1
1274,36,1,60,1,24,1,-48,1,6,1,42,1,18,1,12,1,53,1,38,1,56,1,18,1
1275,37,1,60,1,23,1,-48,1,7,1,42,1,19,1,12,1,53,1,38,1,55,1,18,1
1276,39,1,60,1,21,1,-49,1,9,1,41,1,21,1,14,1,53,1,37,1,53,1,18,1
1277,40,1,60,1,20,1,-50,1,10,1,40,1,23,1,17,1,53,1,38,1,51,1,20,1
1278,41,1,59,1,18,1,-50,1,12,1,39,1,25,1,19,1,54,1,38,1,47,1,19,1
1279,41,1,56,1,15,1,-48,1,13,1,36,1,27,1,19,1,57,1,38,1,42,1,17,1
1280,43,1,54,1,11,1,-48,1,16,1,33,1,27,1,19,1,58,1,39,1,37,1,16,1
1281,44,1,52,1,8,1,-48,1,18,1,30,1,29,1,22,1,59,1,40,1,33,1,16,1
1282,44,1,51,1,7,1,-47,1,19,1,29,1,30,1,24,1,61,1,41,1,28,1,17,1
1283,44,1,51,1,7,1,-47,1,19,1,29,1,32,1,25,1,62,1,42,1,23,1,16,1
1284,41,1,46,1,5,1,-43,1,18,1,26,1,30,1,22,1,60,1,39,1,15,1,14,1
1285,40,1,44,1,4,1,-42,1,18,1,24,1,30,1,21,1,56,1,38,1,9,1,12,1
1286,40,1,43,1,3,1,-41,1,19,1,23,1,31,1,22,1,55,1,38,1,5,1,12,1
1287,39,1,42,1,3,1,-40,1,18,1,23,1,32,1,23,1,56,1,37,1,-1,1,12,1
1288,39,1,40,1,1,1,-39,1,19,1,21,1,34,1,25,1,55,1,35,1,-8,1,12,1
1289,38,1,38,1,0,1,-38,1,19,1,19,1,33,1,27,1,54,1,32,1,-14,1,12,1
1290,38,1,34,1,-4,1,-36,1,21,1,15,1,30,1,24,1,53,1,31,1,-20,1,11,1
1291,37,1,30,1,-7,1,-33,1,22,1,12,1,29,1,22,1,52,1,29,1,-26,1,11,1
1292,37,1,29,1,-8,1,-33,1,23,1,11,1,29,1,23,1,50,1,28,1,-29,1,11,1
1293,35,1,29,1,-6,1,-32,1,21,1,12,1,30,1,24,1,51,1,29,1,-32,1,12,1
1294,35,1,28,1,-7,1,-31,1,21,1,11,1,30,1,23,1,50,1,30,1,-36,1,11,1
1295,37,1,27,1,-10,1,-32,1,24,1,9,1,29,1,24,1,50,1,29,1,-41,1,10,1
1296,35,1,26,1,-9,1,-30,1,22,1,9,1,28,1,26,1,50,1,29,1,-46,1,11,1
1297,33,1,25,1,-8,1,-29,1,21,1,9,1,27,1,29,1,49,1,29,1,-49,1,10,1
1298,28,1,25,1,-3,1,-26,1,16,1,11,1,29,1,31,1,50,1,31,1,-49,1,12,1
1299,29,1,27,1,-2,1,-28,1,16,1,13,1,32,1,31,1,51,1,32,1,-49,1,14,1
1300,32,1,28,1,-4,1,-30,1,18,1,12,1,33,1,29,1,51,1,32,1,-50,1,15,1
1301,38,1,26,1,-12,1,-32,1,25,1,7,1,31,1,27,1,48,1,30,1,-54,1,14,1
1302,37,1,25,1,-12,1,-31,1,25,1,7,1,31,1,27,1,48,1,30,1,-55,1,14,1
1303,33,1,24,1,-9,1,-28,1,21,1,8,1,33,1,28,1,48,1,31,1,-55,1,16,1
1304,24,1,22,1,-2,1,-23,1,13,1,10,1,34,1,30,1,48,1,31,1,-57,1,18,1
1305,21,1,22,1,1,1,-21,1,10,1,12,1,34,1,31,1,47,1,29,1,-60,1,17,1
1306,15,1,23,1,8,1,-19,1,4,1,16,1,35,1,34,1,48,1,31,1,-62,1,18,1
1307,18,1,21,1,3,1,-19,1,8,1,12,1,33,1,34,1,46,1,31,1,-64,1,17,1
1308,21,1,20,1,-1,1,-20,1,11,1,10,1,30,1,33,1,44,1,30,1,-67,1,16,1
1309,23,1,18,1,-5,1,-20,1,14,1,7,1,30,1,30,1,42,1,29,1,-68,1,15,1
1310,26,1,18,1,-8,1,-22,1,17,1,5,1,31,1,27,1,41,1,29,1,-69,1,15,1
1311,28,1,19,1,-9,1,-23,1,19,1,5,1,31,1,26,1,41,1,29,1,-69,1,16,1
1312,27,1,18,1,-9,1,-22,1,18,1,5,1,31,1,24,1,38,1,28,1,-70,1,16,1
1313,25,1,19,1,-6,1,-22,1,16,1,7,1,30,1,24,1,38,1,28,1,-70,1,17,1
1314,23,1,20,1,-3,1,-21,1,13,1,9,1,31,1,25,1,39,1,31,1,-69,1,19,1
1315,24,1,21,1,-3,1,-22,1,14,1,9,1,29,1,22,1,39,1,31,1,-70,1,20,1
1316,24,1,22,1,-2,1,-23,1,13,1,10,1,26,1,21,1,41,1,31,1,-70,1,21,1
1317,24,1,19,1,-5,1,-21,1,15,1,7,1,25,1,24,1,49,1,35,1,-70,1,22,1
1318,21,1,14,1,-7,1,-17,1,14,1,4,1,25,1,28,1,60,1,40,1,-69,1,23,1
1319,25,1,15,1,-10,1,-20,1,18,1,3,1,26,1,31,1,73,1,47,1,-67,1,27,1
1320,29,1,18,1,-11,1,-23,1,20,1,4,1,30,1,36,1,90,1,57,1,-62,1,31,1
1321,29,1,22,1,-7,1,-25,1,18,1,8,1,30,1,40,1,105,1,64,1,-59,1,33,1
1322,26,1,27,1,1,1,-26,1,13,1,14,1,29,1,44,1,118,1,74,1,-55,1,37,1
1323,26,1,31,1,5,1,-28,1,11,1,18,1,27,1,48,1,131,1,87,1,-46,1,44,1
1324,26,1,37,1,11,1,-31,1,8,1,24,1,21,1,49,1,140,1,102,1,-36,1,54,1
1325,28,1,43,1,15,1,-35,1,7,1,29,1,12,1,49,1,146,1,119,1,-24,1,64,1
1326,31,1,46,1,15,1,-38,1,8,1,31,1,0,1,46,1,152,1,139,1,-10,1,76,1
1327,40,1,50,1,10,1,-45,1,15,1,30,1,-14,1,45,1,157,1,160,1,5,1,89,1
1328,49,1,58,1,9,1,-53,1,20,1,34,1,-27,1,47,1,160,1,185,1,24,1,104,1
1329,59,1,68,1,9,1,-63,1,25,1,39,1,-39,1,51,1,164,1,213,1,47,1,123,1
1330,68,1,76,1,8,1,-72,1,30,1,42,1,-52,1,52,1,167,1,241,1,71,1,141,1
1331,78,1,83,1,5,1,-80,1,37,1,44,1,-65,1,49,1,169,1,267,1,95,1,159,1
1332,85,1,87,1,2,1,-86,1,42,1,45,1,-77,1,42,1,164,1,288,1,117,1,174,1
1333,82,1,88,1,6,1,-85,1,38,1,47,1,-88,1,35,1,154,1,302,1,135,1,189,1
1334,78,1,86,1,8,1,-82,1,35,1,47,1,-97,1,26,1,136,1,308,1,147,1,200,1
1335,77,1,83,1,6,1,-80,1,36,1,45,1,-104,1,14,1,106,1,303,1,154,1,208,1
1336,72,1,83,1,11,1,-77,1,31,1,47,1,-111,1,-1,1,68,1,289,1,157,1,215,1
1337,67,1,83,1,16,1,-75,1,26,1,50,1,-119,1,-23,1,19,1,266,1,156,1,220,1
1338,64,1,78,1,14,1,-71,1,25,1,46,1,-122,1,-39,1,-24,1,240,1,153,1,221,1
1339,63,1,69,1,6,1,-66,1,29,1,38,1,-118,1,-48,1,-55,1,214,1,148,1,219,1
1340,56,1,61,1,5,1,-58,1,26,1,33,1,-114,1,-55,1,-78,1,190,1,144,1,220,1
1341,49,1,51,1,2,1,-50,1,24,1,27,1,-108,1,-57,1,-93,1,169,1,138,1,218,1
1342,46,1,42,1,-4,1,-44,1,25,1,19,1,-101,1,-55,1,-102,1,149,1,128,1,213,1
1343,45,1,27,1,-18,1,-36,1,32,1,5,1,-94,1,-52,1,-108,1,129,1,113,1,202,1
1344,39,1,11,1,-28,1,-25,1,34,1,-8,1,-80,1,-42,1,-107,1,110,1,95,1,190,1
1345,35,1,-3,1,-38,1,-16,1,36,1,-20,1,-66,1,-34,1,-109,1,83,1,66,1,170,1
1346,30,1,-19,1,-49,1,-5,1,39,1,-34,1,-50,1,-27,1,-111,1,53,1,33,1,148,1
1347,31,1,-35,1,-66,1,2,1,48,1,-50,1,-38,1,-26,1,-113,1,20,1,-3,1,122,1
1348,28,1,-49,1,-77,1,10,1,52,1,-63,1,-28,1,-24,1,-112,1,-7,1,-36,1,99,1
1349,24,1,-59,1,-83,1,17,1,53,1,-71,1,-21,1,-23,1,-113,1,-34,1,-68,1,77,1
1350,15,1,-69,1,-84,1,27,1,49,1,-76,1,-15,1,-23,1,-113,1,-58,1,-98,1,54,1
1351,7,1,-77,1,-84,1,35,1,45,1,-80,1,-10,1,-21,1,-111,1,-76,1,-122,1,36,1
1352,0,1,-81,1,-81,1,40,1,40,1,-81,1,-6,1,-20,1,-107,1,-88,1,-140,1,22,1
1353,-4,1,-84,1,-80,1,44,1,38,1,-82,1,-4,1,-19,1,-105,1,-97,1,-154,1,9,1
1354,-8,1,-88,1,-80,1,48,1,36,1,-84,1,-1,1,-17,1,-101,1,-102,1,-165,1,0,1
1355,-10,1,-88,1,-78,1,49,1,34,1,-83,1,2,1,-14,1,-96,1,-105,1,-172,1,-6,1
1356,-11,1,-87,1,-76,1,49,1,32,1,-82,1,5,1,-13,1,-92,1,-107,1,-177,1,-12,1
1357,-12,1,-85,1,-73,1,48,1,30,1,-79,1,8,1,-11,1,-89,1,-109,1,-183,1,-15,1
1358,-14,1,-83,1,-69,1,48,1,27,1,-76,1,10,1,-7,1,-85,1,-110,1,-185,1,-17,1
1359,-16,1,-82,1,-66,1,49,1,25,1,-74,1,11,1,-4,1,-81,1,-109,1,-187,1,-17,1
1360,-14,1,-80,1,-66,1,47,1,26,1,-73,1,12,1,-1,1,-79,1,-109,1,-186,1,-17,1
1361,-14,1,-77,1,-63,1,45,1,24,1,-70,1,12,1,-1,1,-78,1,-107,1,-185,1,-16,1
1362,-19,1,-74,1,-55,1,46,1,18,1,-65,1,12,1,-1,1,-75,1,-105,1,-183,1,-14,1
1363,-20,1,-71,1,-51,1,45,1,15,1,-61,1,13,1,-1,1,-73,1,-103,1,-181,1,-12,1
1364,-18,1,-68,1,-50,1,43,1,16,1,-59,1,13,1,-1,1,-70,1,-102,1,-178,1,-10,1
1365,-15,1,-66,1,-51,1,40,1,18,1,-59,1,10,1,-2,1,-70,1,-103,1,-178,1,-11,1
1366,-16,1,-64,1,-48,1,40,1,16,1,-56,1,10,1,0,1,-68,1,-104,1,-176,1,-8,1
1367,-15,1,-61,1,-46,1,38,1,15,1,-54,1,11,1,2,1,-67,1,-106,1,-176,1,-6,1
1368,-12,1,-58,1,-46,1,35,1,17,1,-52,1,10,1,0,1,-68,1,-105,1,-176,1,-5,1
1369,-10,1,-57,1,-47,1,33,1,18,1,-52,1,8,1,-4,1,-69,1,-104,1,-176,1,-4,1
1370,-10,1,-57,1,-47,1,33,1,18,1,-52,1,7,1,-9,1,-71,1,-105,1,-176,1,-3,1
1371,-13,1,-58,1,-45,1,35,1,16,1,-52,1,8,1,-9,1,-70,1,-105,1,-174,1,-1,1
1372,-17,1,-57,1,-40,1,37,1,11,1,-49,1,9,1,-8,1,-69,1,-105,1,-171,1,1,1
1373,-16,1,-58,1,-42,1,37,1,13,1,-50,1,9,1,-9,1,-69,1,-106,1,-171,1,2,1
1374,-18,1,-59,1,-41,1,38,1,11,1,-50,1,8,1,-11,1,-69,1,-107,1,-169,1,4,1
1375,-17,1,-59,1,-42,1,38,1,12,1,-51,1,6,1,-11,1,-70,1,-107,1,-169,1,5,1
1376,-14,1,-59,1,-45,1,36,1,15,1,-52,1,3,1,-13,1,-73,1,-110,1,-170,1,5,1
1377,-15,1,-60,1,-45,1,37,1,15,1,-53,1,1,1,-15,1,-76,1,-113,1,-171,1,5,1
1378,-20,1,-61,1,-41,1,40,1,10,1,-51,1,1,1,-13,1,-77,1,-114,1,-172,1,5,1
1379,-22,1,-61,1,-39,1,41,1,8,1,-50,1,0,1,-11,1,-78,1,-115,1,-172,1,6,1
1380,-20,1,-61,1,-41,1,40,1,10,1,-51,1,0,1,-13,1,-80,1,-117,1,-172,1,7,1
1381,-20,1,-61,1,-41,1,40,1,10,1,-51,1,0,1,-16,1,-82,1,-119,1,-173,1,8,1
1382,-20,1,-61,1,-41,1,40,1,10,1,-51,1,1,1,-17,1,-83,1,-120,1,-172,1,8,1
1383,-19,1,-62,1,-43,1,40,1,12,1,-53,1,0,1,-19,1,-84,1,-123,1,-172,1,8,1
1384,-19,1,-64,1,-45,1,41,1,13,1,-55,1,-1,1,-20,1,-85,1,-124,1,-170,1,8,1
1385,-21,1,-65,1,-44,1,43,1,11,1,-55,1,-1,1,-20,1,-86,1,-124,1,-170,1,10,1
1386,-19,1,-63,1,-44,1,41,1,12,1,-54,1,-1,1,-21,1,-88,1,-125,1,-169,1,11,1
1387,-18,1,-60,1,-42,1,39,1,12,1,-51,1,-1,1,-18,1,-89,1,-124,1,-168,1,14,1
1388,-19,1,-59,1,-40,1,39,1,10,1,-50,1,-3,1,-18,1,-90,1,-124,1,-168,1,15,1
1389,-22,1,-59,1,-37,1,40,1,7,1,-48,1,-4,1,-18,1,-92,1,-125,1,-168,1,16,1
1390,-22,1,-60,1,-38,1,41,1,8,1,-49,1,-6,1,-19,1,-95,1,-127,1,-168,1,17,1
1391,-25,1,-62,1,-37,1,43,1,6,1,-50,1,-6,1,-19,1,-95,1,-127,1,-167,1,17,1
1392,-26,1,-61,1,-35,1,43,1,4,1,-48,1,-7,1,-18,1,-92,1,-126,1,-165,1,19,1
1393,-27,1,-61,1,-34,1,44,1,3,1,-48,1,-9,1,-19,1,-91,1,-127,1,-165,1,19,1
1394,-27,1,-61,1,-34,1,44,1,3,1,-48,1,-9,1,-21,1,-91,1,-126,1,-164,1,20,1
1395,-24,1,-61,1,-37,1,42,1,6,1,-49,1,-10,1,-28,1,-95,1,-129,1,-166,1,20,1
1396,-19,1,-59,1,-40,1,39,1,10,1,-50,1,-9,1,-32,1,-98,1,-131,1,-167,1,20,1
1397,-18,1,-55,1,-37,1,36,1,9,1,-46,1,-7,1,-31,1,-97,1,-130,1,-167,1,24,1
1398,-18,1,-54,1,-36,1,36,1,9,1,-45,1,-7,1,-27,1,-98,1,-130,1,-168,1,27,1
1399,-23,1,-54,1,-31,1,38,1,4,1,-43,1,-6,1,-26,1,-98,1,-130,1,-168,1,27,1
1400,-29,1,-55,1,-26,1,42,1,-2,1,-41,1,-6,1,-26,1,-98,1,-130,1,-169,1,28,1
1401,-26,1,-53,1,-27,1,39,1,0,1,-40,1,-7,1,-25,1,-98,1,-131,1,-169,1,29,1
1402,-24,1,-51,1,-27,1,37,1,1,1,-39,1,-7,1,-27,1,-97,1,-131,1,-167,1,29,1
1403,-23,1,-51,1,-28,1,37,1,2,1,-40,1,-8,1,-31,1,-97,1,-132,1,-170,1,29,1
1404,-19,1,-49,1,-30,1,34,1,5,1,-40,1,-6,1,-33,1,-95,1,-131,1,-169,1,30,1
1405,-19,1,-51,1,-32,1,35,1,6,1,-42,1,-6,1,-35,1,-96,1,-131,1,-170,1,31,1
1406,-19,1,-49,1,-30,1,34,1,5,1,-40,1,-6,1,-36,1,-94,1,-130,1,-170,1,31,1
1407,-22,1,-48,1,-26,1,35,1,2,1,-37,1,-6,1,-32,1,-91,1,-128,1,-170,1,33,1
1408,-27,1,-49,1,-22,1,38,1,-3,1,-36,1,-7,1,-28,1,-88,1,-126,1,-169,1,36,1
1409,-29,1,-50,1,-21,1,39,1,-4,1,-36,1,-6,1,-26,1,-85,1,-123,1,-168,1,37,1
1410,-30,1,-48,1,-18,1,39,1,-6,1,-33,1,-6,1,-26,1,-84,1,-123,1,-167,1,36,1
1411,-30,1,-45,1,-15,1,37,1,-8,1,-30,1,-6,1,-27,1,-83,1,-124,1,-168,1,35,1
1412,-28,1,-43,1,-15,1,35,1,-7,1,-29,1,-5,1,-28,1,-81,1,-124,1,-168,1,35,1
1413,-23,1,-39,1,-16,1,31,1,-4,1,-28,1,-5,1,-29,1,-78,1,-124,1,-167,1,37,1
1414,-20,1,-37,1,-17,1,28,1,-2,1,-27,1,-5,1,-27,1,-74,1,-122,1,-165,1,38,1
1415,-20,1,-36,1,-16,1,28,1,-2,1,-26,1,-4,1,-24,1,-70,1,-118,1,-163,1,40,1
1416,-22,1,-36,1,-14,1,29,1,-4,1,-25,1,-2,1,-21,1,-64,1,-114,1,-160,1,41,1
1417,-24,1,-35,1,-11,1,29,1,-7,1,-23,1,-1,1,-21,1,-60,1,-110,1,-158,1,42,1
1418,-21,1,-33,1,-12,1,27,1,-5,1,-23,1,-1,1,-25,1,-58,1,-109,1,-158,1,42,1
1419,-23,1,-32,1,-9,1,27,1,-7,1,-21,1,0,1,-26,1,-53,1,-106,1,-156,1,42,1
1420,-27,1,-32,1,-5,1,29,1,-11,1,-19,1,0,1,-25,1,-49,1,-104,1,-154,1,43,1
1421,-29,1,-30,1,-1,1,29,1,-14,1,-16,1,2,1,-24,1,-45,1,-102,1,-152,1,43,1
1422,-29,1,-28,1,1,1,28,1,-15,1,-14,1,4,1,-21,1,-39,1,-98,1,-151,1,46,1
1423,-27,1,-27,1,0,1,27,1,-14,1,-14,1,5,1,-18,1,-35,1,-95,1,-149,1,48,1
1424,-24,1,-25,1,-1,1,24,1,-12,1,-13,1,6,1,-16,1,-30,1,-92,1,-148,1,50,1
1425,-22,1,-23,1,-1,1,22,1,-11,1,-12,1,7,1,-14,1,-24,1,-87,1,-145,1,51,1
1426,-26,1,-22,1,4,1,24,1,-15,1,-9,1,9,1,-13,1,-19,1,-81,1,-141,1,54,1
1427,-29,1,-20,1,9,1,24,1,-19,1,-6,1,10,1,-12,1,-15,1,-77,1,-138,1,57,1
1428,-25,1,-18,1,7,1,21,1,-16,1,-6,1,10,1,-14,1,-13,1,-75,1,-135,1,57,1
1429,-23,1,-17,1,6,1,20,1,-15,1,-6,1,9,1,-14,1,-10,1,-73,1,-132,1,57,1
1430,-23,1,-19,1,4,1,21,1,-14,1,-8,1,9,1,-11,1,-3,1,-67,1,-129,1,58,1
1431,-23,1,-17,1,6,1,20,1,-15,1,-6,1,11,1,-6,1,4,1,-62,1,-126,1,60,1
1432,-23,1,-14,1,9,1,18,1,-16,1,-3,1,12,1,1,1,11,1,-54,1,-122,1,64,1
1433,-22,1,-13,1,9,1,17,1,-16,1,-2,1,13,1,5,1,17,1,-49,1,-119,1,66,1
1434,-25,1,-14,1,11,1,19,1,-18,1,-2,1,13,1,6,1,21,1,-44,1,-117,1,68,1
1435,-25,1,-13,1,12,1,19,1,-19,1,-1,1,12,1,5,1,25,1,-40,1,-114,1,71,1
1436,-27,1,-11,1,16,1,19,1,-22,1,2,1,12,1,4,1,29,1,-35,1,-111,1,73,1
1437,-27,1,-10,1,17,1,18,1,-22,1,3,1,13,1,4,1,32,1,-31,1,-106,1,74,1
1438,-27,1,-7,1,20,1,17,1,-24,1,6,1,14,1,6,1,37,1,-26,1,-102,1,76,1
1439,-24,1,-7,1,17,1,15,1,-21,1,5,1,15,1,7,1,40,1,-23,1,-99,1,77,1
1440,-21,1,-6,1,15,1,13,1,-18,1,4,1,16,1,10,1,45,1,-19,1,-97,1,78,1
1441,-18,1,-5,1,13,1,11,1,-16,1,4,1,15,1,13,1,50,1,-13,1,-95,1,80,1
1442,-13,1,-2,1,11,1,7,1,-12,1,4,1,14,1,16,1,55,1,-7,1,-91,1,83,1
1443,-13,1,-2,1,11,1,7,1,-12,1,4,1,14,1,17,1,60,1,-2,1,-88,1,86,1
1444,-8,1,-2,1,6,1,5,1,-7,1,2,1,13,1,14,1,63,1,1,1,-86,1,88,1
1445,-7,1,1,1,8,1,3,1,-7,1,4,1,14,1,12,1,65,1,6,1,-84,1,90,1
1446,-7,1,2,1,9,1,2,1,-8,1,5,1,12,1,10,1,67,1,10,1,-81,1,91,1
1447,-10,1,1,1,11,1,4,1,-10,1,6,1,11,1,8,1,67,1,13,1,-78,1,92,1
1448,-10,1,0,1,10,1,5,1,-10,1,5,1,9,1,7,1,68,1,18,1,-75,1,93,1
1449,-13,1,0,1,13,1,6,1,-13,1,6,1,8,1,9,1,71,1,23,1,-71,1,95,1
1450,-16,1,0,1,16,1,8,1,-16,1,8,1,8,1,10,1,74,1,26,1,-69,1,96,1
1451,-13,1,-1,1,12,1,7,1,-13,1,5,1,6,1,10,1,73,1,26,1,-69,1,95,1
1452,-9,1,3,1,12,1,3,1,-10,1,7,1,7,1,14,1,75,1,29,1,-67,1,99,1
1453,-7,1,5,1,12,1,1,1,-9,1,8,1,7,1,16,1,77,1,32,1,-64,1,101,1
1454,-8,1,4,1,12,1,2,1,-10,1,8,1,6,1,18,1,77,1,36,1,-61,1,103,1
1455,-7,1,5,1,12,1,1,1,-9,1,8,1,5,1,19,1,77,1,40,1,-58,1,106,1
1456,-9,1,6,1,15,1,1,1,-12,1,10,1,6,1,21,1,79,1,44,1,-54,1,108,1
1457,-16,1,3,1,19,1,6,1,-17,1,11,1,6,1,26,1,82,1,48,1,-50,1,109,1
1458,-17,1,2,1,19,1,7,1,-18,1,10,1,5,1,26,1,82,1,49,1,-49,1,108,1
1459,-16,1,1,1,17,1,7,1,-16,1,9,1,3,1,23,1,81,1,50,1,-48,1,108,1
1460,-18,1,0,1,18,1,9,1,-18,1,9,1,0,1,21,1,79,1,49,1,-49,1,107,1
1461,-14,1,-1,1,13,1,7,1,-14,1,6,1,-3,1,16,1,76,1,47,1,-52,1,106,1
1462,-9,1,3,1,12,1,3,1,-10,1,7,1,-2,1,17,1,75,1,48,1,-52,1,108,1
1463,-6,1,5,1,11,1,0,1,-8,1,8,1,-2,1,18,1,73,1,48,1,-52,1,109,1
1464,-4,1,7,1,11,1,-1,1,-7,1,9,1,-3,1,19,1,72,1,48,1,-52,1,110,1
1465,-7,1,7,1,14,1,0,1,-10,1,10,1,-4,1,21,1,73,1,50,1,-51,1,110,1
1466,-8,1,5,1,13,1,1,1,-10,1,9,1,-4,1,19,1,71,1,50,1,-51,1,111,1
1467,-9,1,5,1,14,1,2,1,-11,1,9,1,-6,1,17,1,69,1,49,1,-51,1,110,1
1468,-8,1,5,1,13,1,1,1,-10,1,9,1,-7,1,16,1,67,1,47,1,-51,1,109,1
1469,-4,1,5,1,9,1,0,1,-6,1,7,1,-9,1,12,1,66,1,46,1,-52,1,108,1
1470,-2,1,5,1,7,1,-1,1,-4,1,6,1,-10,1,11,1,65,1,44,1,-53,1,107,1
1471,-3,1,5,1,8,1,-1,1,-5,1,6,1,-10,1,12,1,65,1,44,1,-52,1,107,1
1472,-8,1,5,1,13,1,1,1,-10,1,9,1,-8,1,14,1,66,1,46,1,-50,1,110,1
1473,-8,1,5,1,13,1,1,1,-10,1,9,1,-7,1,16,1,65,1,47,1,-49,1,111,1
1474,-8,1,5,1,13,1,1,1,-10,1,9,1,-7,1,16,1,63,1,47,1,-49,1,110,1
1475,-9,1,5,1,14,1,2,1,-11,1,9,1,-7,1,15,1,61,1,46,1,-49,1,109,1
1476,-8,1,5,1,13,1,1,1,-10,1,9,1,-8,1,13,1,59,1,46,1,-49,1,108,1
1477,-6,1,4,1,10,1,1,1,-8,1,7,1,-10,1,8,1,56,1,45,1,-49,1,107,1
1478,-5,1,4,1,9,1,0,1,-7,1,6,1,-11,1,8,1,57,1,45,1,-48,1,106,1
1479,-6,1,5,1,11,1,0,1,-8,1,8,1,-9,1,8,1,57,1,44,1,-48,1,106,1
1480,-8,1,9,1,17,1,0,1,-12,1,13,1,-7,1,9,1,58,1,44,1,-48,1,107,1
1481,-7,1,11,1,18,1,-2,1,-12,1,14,1,-6,1,9,1,59,1,44,1,-48,1,107,1
1482,-6,1,13,1,19,1,-3,1,-12,1,16,1,-5,1,9,1,59,1,44,1,-47,1,107,1
1483,-5,1,11,1,16,1,-3,1,-10,1,13,1,-5,1,5,1,58,1,42,1,-47,1,108,1
1484,-4,1,11,1,15,1,-3,1,-9,1,13,1,-4,1,4,1,58,1,42,1,-46,1,109,1
1485,0,1,13,1,13,1,-6,1,-6,1,13,1,-1,1,5,1,60,1,45,1,-44,1,110,1
1486,-2,1,14,1,16,1,-6,1,-9,1,15,1,-1,1,6,1,61,1,48,1,-43,1,110,1
1487,-1,1,16,1,17,1,-7,1,-9,1,16,1,-2,1,7,1,61,1,49,1,-43,1,109,1
1488,-1,1,17,1,18,1,-8,1,-9,1,17,1,-5,1,5,1,61,1,48,1,-43,1,108,1
1489,-1,1,19,1,20,1,-9,1,-10,1,19,1,-7,1,3,1,59,1,47,1,-45,1,107,1
1490,-1,1,20,1,21,1,-9,1,-11,1,20,1,-7,1,2,1,60,1,48,1,-44,1,107,1
1491,-5,1,19,1,24,1,-7,1,-14,1,21,1,-7,1,0,1,60,1,49,1,-44,1,107,1
1492,-7,1,19,1,26,1,-6,1,-16,1,22,1,-5,1,0,1,61,1,49,1,-43,1,107,1
1493,-9,1,18,1,27,1,-4,1,-18,1,22,1,-4,1,1,1,62,1,48,1,-43,1,107,1
1494,-13,1,18,1,31,1,-2,1,-22,1,24,1,-1,1,3,1,63,1,51,1,-41,1,109,1
1495,-14,1,18,1,32,1,-2,1,-23,1,25,1,0,1,2,1,62,1,51,1,-41,1,111,1
1496,-7,1,16,1,23,1,-4,1,-15,1,19,1,-2,1,-4,1,59,1,48,1,-44,1,108,1
1497,-8,1,12,1,20,1,-2,1,-14,1,16,1,-4,1,-2,1,57,1,48,1,-45,1,106,1
1498,-8,1,11,1,19,1,-1,1,-13,1,15,1,-4,1,2,1,58,1,48,1,-44,1,107,1
1499,-11,1,11,1,22,1,0,1,-16,1,16,1,-4,1,5,1,59,1,49,1,-44,1,106,1
1500,-9,1,9,1,18,1,0,1,-13,1,13,1,-5,1,1,1,57,1,48,1,-44,1,104,1
1501,-7,1,7,1,14,1,0,1,-10,1,10,1,-4,1,-4,1,55,1,47,1,-44,1,105,1
1502,-5,1,11,1,16,1,-3,1,-10,1,13,1,-3,1,-6,1,55,1,46,1,-44,1,105,1
1503,-3,1,11,1,14,1,-4,1,-8,1,12,1,-6,1,-10,1,54,1,44,1,-45,1,104,1
1504,-2,1,10,1,12,1,-4,1,-7,1,11,1,-9,1,-14,1,52,1,43,1,-44,1,104,1
1505,-1,1,9,1,10,1,-4,1,-5,1,9,1,-10,1,-17,1,51,1,43,1,-43,1,105,1
1506,-2,1,10,1,12,1,-4,1,-7,1,11,1,-10,1,-17,1,51,1,44,1,-42,1,105,1
1507,-2,1,12,1,14,1,-5,1,-8,1,13,1,-10,1,-16,1,53,1,46,1,-39,1,108,1
1508,-4,1,13,1,17,1,-4,1,-10,1,15,1,-9,1,-14,1,54,1,46,1,-38,1,109,1
1509,-4,1,15,1,19,1,-5,1,-11,1,17,1,-8,1,-12,1,54,1,47,1,-36,1,109,1
1510,-5,1,17,1,22,1,-6,1,-13,1,19,1,-6,1,-12,1,56,1,49,1,-34,1,112,1
1511,-10,1,14,1,24,1,-2,1,-17,1,19,1,-6,1,-12,1,57,1,50,1,-34,1,112,1
1512,-12,1,11,1,23,1,0,1,-17,1,17,1,-6,1,-13,1,56,1,50,1,-34,1,110,1
1513,-9,1,11,1,20,1,-1,1,-14,1,15,1,-7,1,-14,1,56,1,49,1,-35,1,111,1
1514,-6,1,11,1,17,1,-2,1,-11,1,14,1,-6,1,-14,1,56,1,50,1,-33,1,111,1
1515,-1,1,13,1,14,1,-6,1,-7,1,13,1,-5,1,-13,1,56,1,50,1,-32,1,112,1
1516,0,1,13,1,13,1,-6,1,-6,1,13,1,-4,1,-14,1,55,1,50,1,-32,1,112,1
1517,-3,1,11,1,14,1,-4,1,-8,1,12,1,-3,1,-13,1,55,1,51,1,-31,1,113,1
1518,-5,1,11,1,16,1,-3,1,-10,1,13,1,-3,1,-12,1,56,1,51,1,-31,1,113,1
1519,-4,1,12,1,16,1,-4,1,-10,1,14,1,-1,1,-10,1,57,1,51,1,-31,1,114,1
1520,-2,1,15,1,17,1,-6,1,-9,1,16,1,0,1,-10,1,58,1,51,1,-30,1,114,1
1521,-5,1,14,1,19,1,-4,1,-12,1,16,1,1,1,-7,1,59,1,54,1,-30,1,114,1
1522,-5,1,12,1,17,1,-3,1,-11,1,14,1,2,1,-5,1,61,1,55,1,-30,1,115,1
1523,-4,1,11,1,15,1,-3,1,-9,1,13,1,3,1,-6,1,61,1,54,1,-33,1,113,1
1524,-2,1,8,1,10,1,-3,1,-6,1,9,1,3,1,-6,1,62,1,53,1,-33,1,112,1
1525,-4,1,4,1,8,1,0,1,-6,1,6,1,3,1,-5,1,62,1,54,1,-34,1,109,1
1526,-2,1,-1,1,1,1,1,1,-2,1,0,1,3,1,-9,1,60,1,52,1,-35,1,105,1
1527,-3,1,-3,1,0,1,3,1,-2,1,-2,1,4,1,-9,1,59,1,51,1,-36,1,104,1
1528,-5,1,-7,1,-2,1,6,1,-2,1,-5,1,5,1,-7,1,58,1,51,1,-35,1,104,1
1529,-8,1,-10,1,-2,1,9,1,-3,1,-6,1,4,1,-6,1,56,1,50,1,-39,1,102,1
1530,-10,1,-11,1,-1,1,10,1,-5,1,-6,1,5,1,-4,1,55,1,48,1,-43,1,101,1
1531,-13,1,-10,1,3,1,11,1,-8,1,-4,1,6,1,-4,1,54,1,47,1,-43,1,101,1
1532,-11,1,-8,1,3,1,9,1,-7,1,-3,1,6,1,-3,1,55,1,46,1,-41,1,101,1
1533,-13,1,-10,1,3,1,11,1,-8,1,-4,1,6,1,-3,1,55,1,44,1,-41,1,101,1
1534,-18,1,-15,1,3,1,16,1,-11,1,-6,1,6,1,-5,1,55,1,41,1,-39,1,101,1
1535,-21,1,-19,1,2,1,20,1,-12,1,-9,1,7,1,-5,1,52,1,39,1,-39,1,101,1
1536,-19,1,-20,1,-1,1,19,1,-9,1,-11,1,8,1,-4,1,50,1,37,1,-39,1,100,1
1537,-17,1,-19,1,-2,1,18,1,-8,1,-11,1,6,1,-6,1,46,1,34,1,-40,1,99,1
1538,-12,1,-18,1,-6,1,15,1,-3,1,-12,1,6,1,-8,1,44,1,34,1,-40,1,99,1
1539,-13,1,-18,1,-5,1,15,1,-4,1,-12,1,5,1,-7,1,45,1,34,1,-41,1,97,1
1540,-16,1,-18,1,-2,1,17,1,-7,1,-10,1,6,1,-5,1,47,1,36,1,-43,1,96,1
1541,-16,1,-18,1,-2,1,17,1,-7,1,-10,1,6,1,-6,1,47,1,38,1,-42,1,97,1
1542,-16,1,-18,1,-2,1,17,1,-7,1,-10,1,3,1,-10,1,47,1,36,1,-42,1,97,1
1543,-14,1,-18,1,-4,1,16,1,-5,1,-11,1,2,1,-12,1,46,1,33,1,-42,1,97,1
1544,-10,1,-18,1,-8,1,14,1,-1,1,-13,1,0,1,-15,1,43,1,33,1,-41,1,97,1
1545,-9,1,-18,1,-9,1,13,1,0,1,-14,1,1,1,-14,1,42,1,34,1,-40,1,96,1
1546,-5,1,-18,1,-13,1,11,1,4,1,-16,1,0,1,-12,1,41,1,32,1,-44,1,95,1
1547,-6,1,-20,1,-14,1,13,1,4,1,-17,1,-1,1,-11,1,37,1,28,1,-44,1,94,1
1548,-13,1,-23,1,-10,1,18,1,-2,1,-17,1,1,1,-6,1,37,1,28,1,-43,1,96,1
1549,-20,1,-21,1,-1,1,20,1,-10,1,-11,1,6,1,0,1,40,1,33,1,-41,1,99,1
1550,-23,1,-19,1,4,1,21,1,-14,1,-8,1,7,1,0,1,42,1,35,1,-38,1,99,1
1551,-25,1,-19,1,6,1,22,1,-16,1,-7,1,7,1,-3,1,42,1,35,1,-37,1,98,1
1552,-26,1,-19,1,7,1,22,1,-17,1,-6,1,7,1,-6,1,42,1,37,1,-37,1,97,1
1553,-22,1,-19,1,3,1,20,1,-13,1,-8,1,4,1,-9,1,41,1,37,1,-39,1,96,1
1554,-17,1,-21,1,-4,1,19,1,-7,1,-13,1,0,1,-9,1,38,1,34,1,-40,1,96,1
1555,-13,1,-21,1,-8,1,17,1,-3,1,-15,1,-1,1,-7,1,35,1,31,1,-41,1,95,1
1556,-11,1,-20,1,-9,1,15,1,-1,1,-15,1,0,1,-6,1,35,1,31,1,-39,1,96,1
1557,-15,1,-20,1,-5,1,17,1,-5,1,-13,1,0,1,-4,1,36,1,32,1,-37,1,98,1
1558,-13,1,-19,1,-6,1,16,1,-4,1,-13,1,0,1,-4,1,36,1,33,1,-35,1,97,1
1559,-12,1,-16,1,-4,1,14,1,-4,1,-10,1,0,1,-4,1,36,1,34,1,-34,1,96,1
1560,-9,1,-14,1,-5,1,11,1,-2,1,-10,1,1,1,-2,1,36,1,36,1,-32,1,97,1
1561,-10,1,-14,1,-4,1,12,1,-3,1,-9,1,0,1,0,1,38,1,38,1,-33,1,96,1
1562,-15,1,-15,1,0,1,15,1,-8,1,-8,1,0,1,-2,1,39,1,40,1,-32,1,97,1
1563,-14,1,-16,1,-2,1,15,1,-6,1,-9,1,-2,1,-6,1,39,1,39,1,-32,1,98,1
1564,-10,1,-14,1,-4,1,12,1,-3,1,-9,1,-3,1,-5,1,44,1,38,1,-29,1,101,1
1565,-6,1,-12,1,-6,1,9,1,0,1,-9,1,-3,1,0,1,53,1,41,1,-27,1,102,1
1566,-4,1,-11,1,-7,1,7,1,1,1,-9,1,-4,1,5,1,64,1,45,1,-25,1,102,1
1567,-4,1,-10,1,-6,1,7,1,1,1,-8,1,-4,1,9,1,75,1,52,1,-25,1,102,1
1568,-5,1,-9,1,-4,1,7,1,-1,1,-7,1,-4,1,10,1,88,1,62,1,-22,1,103,1
1569,-6,1,-6,1,0,1,6,1,-3,1,-3,1,-6,1,12,1,101,1,72,1,-16,1,106,1
1570,-2,1,1,1,3,1,0,1,-2,1,2,1,-10,1,17,1,115,1,85,1,-4,1,110,1
1571,5,1,12,1,7,1,-8,1,-1,1,10,1,-15,1,18,1,129,1,101,1,10,1,117,1
1572,11,1,19,1,8,1,-15,1,2,1,14,1,-23,1,18,1,139,1,116,1,21,1,126,1
1573,15,1,24,1,9,1,-19,1,3,1,17,1,-31,1,19,1,150,1,137,1,33,1,136,1
1574,20,1,28,1,8,1,-24,1,6,1,18,1,-40,1,19,1,160,1,158,1,49,1,146,1
1575,26,1,32,1,6,1,-29,1,10,1,19,1,-53,1,20,1,165,1,178,1,67,1,156,1
1576,33,1,36,1,3,1,-34,1,15,1,20,1,-67,1,21,1,169,1,201,1,89,1,168,1
1577,37,1,38,1,1,1,-37,1,18,1,20,1,-78,1,23,1,174,1,229,1,113,1,185,1
1578,43,1,42,1,-1,1,-42,1,22,1,21,1,-89,1,23,1,177,1,257,1,136,1,203,1
1579,55,1,47,1,-8,1,-51,1,32,1,20,1,-102,1,19,1,174,1,278,1,159,1,219,1
1580,67,1,51,1,-16,1,-59,1,42,1,18,1,-115,1,13,1,165,1,295,1,178,1,230,1
1581,71,1,52,1,-19,1,-61,1,45,1,17,1,-124,1,6,1,150,1,304,1,192,1,239,1
1582,66,1,53,1,-13,1,-59,1,40,1,20,1,-126,1,2,1,127,1,301,1,202,1,247,1
1583,51,1,51,1,0,1,-51,1,26,1,26,1,-127,1,-5,1,96,1,291,1,209,1,255,1
1584,46,1,51,1,5,1,-48,1,21,1,28,1,-134,1,-26,1,52,1,270,1,206,1,257,1
1585,40,1,55,1,15,1,-47,1,13,1,35,1,-140,1,-50,1,3,1,246,1,205,1,261,1
1586,34,1,61,1,27,1,-47,1,4,1,44,1,-144,1,-72,1,-41,1,215,1,202,1,265,1
1587,33,1,64,1,31,1,-48,1,1,1,48,1,-147,1,-89,1,-79,1,183,1,194,1,265,1
1588,30,1,59,1,29,1,-44,1,1,1,44,1,-145,1,-97,1,-104,1,156,1,188,1,263,1
1589,28,1,50,1,22,1,-39,1,3,1,36,1,-139,1,-99,1,-121,1,137,1,180,1,258,1
1590,23,1,40,1,17,1,-31,1,3,1,29,1,-133,1,-100,1,-133,1,116,1,172,1,251,1
1591,23,1,31,1,8,1,-27,1,8,1,20,1,-128,1,-97,1,-139,1,96,1,161,1,240,1
1592,22,1,23,1,1,1,-22,1,11,1,12,1,-118,1,-86,1,-139,1,75,1,147,1,228,1
1593,16,1,11,1,-5,1,-13,1,11,1,3,1,-104,1,-74,1,-132,1,53,1,127,1,214,1
1594,13,1,-4,1,-17,1,-4,1,15,1,-10,1,-90,1,-63,1,-124,1,35,1,105,1,196,1
1595,10,1,-20,1,-30,1,5,1,20,1,-25,1,-75,1,-54,1,-119,1,17,1,78,1,177,1
1596,12,1,-34,1,-46,1,11,1,29,1,-40,1,-63,1,-51,1,-116,1,-5,1,49,1,155,1
1597,7,1,-50,1,-57,1,21,1,32,1,-53,1,-51,1,-47,1,-110,1,-24,1,19,1,133,1
1598,0,1,-65,1,-65,1,32,1,32,1,-65,1,-43,1,-45,1,-107,1,-40,1,-5,1,111,1
1599,-4,1,-76,1,-72,1,40,1,34,1,-74,1,-36,1,-44,1,-106,1,-54,1,-28,1,93,1
1600,-13,1,-84,1,-71,1,48,1,29,1,-78,1,-27,1,-40,1,-104,1,-67,1,-50,1,72,1
1601,-20,1,-89,1,-69,1,54,1,24,1,-79,1,-20,1,-36,1,-98,1,-75,1,-64,1,57,1
1602,-26,1,-92,1,-66,1,59,1,20,1,-79,1,-16,1,-33,1,-92,1,-81,1,-73,1,43,1
1603,-30,1,-94,1,-64,1,62,1,17,1,-79,1,-12,1,-29,1,-87,1,-87,1,-81,1,35,1
1604,-30,1,-91,1,-61,1,60,1,15,1,-76,1,-7,1,-19,1,-81,1,-90,1,-85,1,29,1
1605,-29,1,-90,1,-61,1,59,1,16,1,-76,1,-3,1,-17,1,-77,1,-90,1,-91,1,22,1
1606,-27,1,-92,1,-65,1,59,1,19,1,-79,1,0,1,-17,1,-75,1,-91,1,-98,1,16,1
1607,-28,1,-94,1,-66,1,61,1,19,1,-80,1,3,1,-18,1,-75,1,-93,1,-104,1,12,1
1608,-28,1,-97,1,-69,1,62,1,20,1,-83,1,3,1,-24,1,-76,1,-97,1,-107,1,8,1
1609,-30,1,-97,1,-67,1,63,1,18,1,-82,1,3,1,-28,1,-76,1,-99,1,-106,1,7,1
1610,-32,1,-95,1,-63,1,63,1,15,1,-79,1,6,1,-27,1,-73,1,-101,1,-108,1,4,1
1611,-33,1,-92,1,-59,1,62,1,13,1,-76,1,8,1,-27,1,-71,1,-101,1,-108,1,3,1
1612,-32,1,-90,1,-58,1,61,1,13,1,-74,1,5,1,-31,1,-74,1,-108,1,-110,1,-1,1
1613,-31,1,-87,1,-56,1,59,1,12,1,-72,1,3,1,-29,1,-71,1,-106,1,-106,1,-2,1
1614,-35,1,-85,1,-50,1,60,1,7,1,-68,1,5,1,-23,1,-65,1,-96,1,-100,1,-1,1
1615,-36,1,-84,1,-48,1,60,1,6,1,-66,1,7,1,-22,1,-64,1,-88,1,-93,1,0,1
1616,-33,1,-82,1,-49,1,57,1,8,1,-66,1,9,1,-20,1,-63,1,-87,1,-91,1,1,1
1617,-32,1,-80,1,-48,1,56,1,8,1,-64,1,9,1,-20,1,-62,1,-90,1,-89,1,2,1
1618,-35,1,-78,1,-43,1,56,1,4,1,-61,1,9,1,-18,1,-61,1,-89,1,-86,1,3,1
1619,-38,1,-79,1,-41,1,58,1,1,1,-60,1,5,1,-21,1,-66,1,-94,1,-88,1,0,1
1620,-39,1,-79,1,-40,1,59,1,0,1,-60,1,1,1,-24,1,-70,1,-99,1,-88,1,0,1
1621,-39,1,-77,1,-38,1,58,1,-1,1,-58,1,1,1,-21,1,-71,1,-104,1,-85,1,3,1
1622,-42,1,-74,1,-32,1,58,1,-5,1,-53,1,2,1,-16,1,-67,1,-101,1,-79,1,3,1
1623,-48,1,-74,1,-26,1,61,1,-11,1,-50,1,1,1,-14,1,-68,1,-99,1,-76,1,2,1
1624,-44,1,-74,1,-30,1,59,1,-7,1,-52,1,-1,1,-15,1,-71,1,-100,1,-77,1,0,1
1625,-39,1,-74,1,-35,1,56,1,-2,1,-55,1,-3,1,-18,1,-76,1,-102,1,-82,1,-2,1
1626,-35,1,-73,1,-38,1,54,1,1,1,-56,1,-3,1,-18,1,-81,1,-103,1,-86,1,-2,1
1627,-29,1,-71,1,-42,1,50,1,6,1,-57,1,-4,1,-23,1,-85,1,-104,1,-87,1,-3,1
1628,-28,1,-69,1,-41,1,48,1,6,1,-55,1,-4,1,-27,1,-85,1,-104,1,-85,1,-2,1
1629,-28,1,-68,1,-40,1,48,1,6,1,-54,1,-5,1,-28,1,-84,1,-104,1,-82,1,-3,1
1630,-31,1,-70,1,-39,1,50,1,4,1,-55,1,-5,1,-30,1,-85,1,-106,1,-83,1,-5,1
1631,-33,1,-71,1,-38,1,52,1,2,1,-55,1,-5,1,-31,1,-86,1,-110,1,-84,1,-8,1
1632,-37,1,-72,1,-35,1,54,1,-1,1,-54,1,-4,1,-31,1,-87,1,-112,1,-82,1,-11,1
1633,-42,1,-72,1,-30,1,57,1,-6,1,-51,1,-5,1,-31,1,-90,1,-113,1,-79,1,-13,1
1634,-40,1,-72,1,-32,1,56,1,-4,1,-52,1,-6,1,-29,1,-91,1,-115,1,-77,1,-15,1
1635,-37,1,-72,1,-35,1,54,1,-1,1,-54,1,-4,1,-25,1,-91,1,-115,1,-77,1,-17,1
1636,-37,1,-72,1,-35,1,54,1,-1,1,-54,1,-2,1,-27,1,-93,1,-115,1,-78,1,-18,1
1637,-38,1,-72,1,-34,1,55,1,-2,1,-53,1,-1,1,-30,1,-94,1,-115,1,-78,1,-17,1
1638,-39,1,-72,1,-33,1,55,1,-3,1,-53,1,0,1,-31,1,-93,1,-117,1,-77,1,-15,1
1639,-40,1,-73,1,-33,1,56,1,-4,1,-53,1,-3,1,-34,1,-93,1,-119,1,-76,1,-16,1
1640,-41,1,-74,1,-33,1,57,1,-4,1,-54,1,-7,1,-37,1,-94,1,-124,1,-76,1,-19,1
1641,-43,1,-73,1,-30,1,58,1,-7,1,-52,1,-8,1,-35,1,-96,1,-128,1,-79,1,-23,1
1642,-43,1,-71,1,-28,1,57,1,-8,1,-50,1,-9,1,-36,1,-99,1,-129,1,-79,1,-23,1
1643,-44,1,-70,1,-26,1,57,1,-9,1,-48,1,-8,1,-36,1,-102,1,-129,1,-79,1,-24,1
1644,-44,1,-71,1,-27,1,57,1,-9,1,-49,1,-7,1,-37,1,-103,1,-131,1,-82,1,-25,1
1645,-45,1,-72,1,-27,1,58,1,-9,1,-50,1,-5,1,-34,1,-103,1,-132,1,-82,1,-26,1
1646,-46,1,-72,1,-26,1,59,1,-10,1,-49,1,-4,1,-30,1,-101,1,-130,1,-80,1,-26,1
1647,-47,1,-71,1,-24,1,59,1,-12,1,-48,1,-4,1,-27,1,-101,1,-130,1,-79,1,-26,1
1648,-45,1,-70,1,-25,1,57,1,-10,1,-48,1,-4,1,-27,1,-100,1,-132,1,-80,1,-29,1
1649,-46,1,-68,1,-22,1,57,1,-12,1,-45,1,-1,1,-25,1,-98,1,-133,1,-81,1,-31,1
1650,-46,1,-67,1,-21,1,56,1,-13,1,-44,1,1,1,-29,1,-99,1,-133,1,-81,1,-34,1
1651,-45,1,-66,1,-21,1,55,1,-12,1,-44,1,0,1,-31,1,-101,1,-133,1,-80,1,-38,1
1652,-49,1,-66,1,-17,1,57,1,-16,1,-42,1,-1,1,-32,1,-99,1,-135,1,-76,1,-35,1
1653,-44,1,-66,1,-22,1,55,1,-11,1,-44,1,-2,1,-37,1,-99,1,-141,1,-74,1,-36,1
1654,-42,1,-65,1,-23,1,53,1,-10,1,-44,1,-2,1,-36,1,-96,1,-141,1,-70,1,-38,1
1655,-39,1,-62,1,-23,1,50,1,-8,1,-43,1,-2,1,-37,1,-97,1,-139,1,-66,1,-39,1
1656,-42,1,-60,1,-18,1,51,1,-12,1,-39,1,-1,1,-36,1,-95,1,-136,1,-64,1,-39,1
1657,-45,1,-61,1,-16,1,53,1,-15,1,-39,1,1,1,-36,1,-91,1,-133,1,-67,1,-43,1
1658,-43,1,-61,1,-18,1,52,1,-13,1,-40,1,0,1,-39,1,-91,1,-132,1,-69,1,-46,1
1659,-43,1,-61,1,-18,1,52,1,-13,1,-40,1,1,1,-39,1,-88,1,-132,1,-69,1,-45,1
1660,-46,1,-59,1,-13,1,52,1,-17,1,-36,1,3,1,-37,1,-83,1,-132,1,-68,1,-44,1
1661,-47,1,-58,1,-11,1,52,1,-18,1,-35,1,6,1,-34,1,-80,1,-132,1,-67,1,-45,1
1662,-47,1,-57,1,-10,1,52,1,-19,1,-34,1,8,1,-31,1,-75,1,-128,1,-63,1,-44,1
1663,-45,1,-55,1,-10,1,50,1,-18,1,-33,1,9,1,-27,1,-71,1,-122,1,-59,1,-46,1
1664,-45,1,-53,1,-8,1,49,1,-19,1,-31,1,7,1,-23,1,-68,1,-123,1,-60,1,-51,1
1665,-45,1,-50,1,-5,1,47,1,-20,1,-28,1,11,1,-20,1,-63,1,-121,1,-57,1,-57,1
1666,-46,1,-49,1,-3,1,47,1,-22,1,-26,1,13,1,-16,1,-57,1,-115,1,-52,1,-57,1
1667,-46,1,-47,1,-1,1,46,1,-23,1,-24,1,15,1,-14,1,-51,1,-109,1,-47,1,-57,1
1668,-49,1,-46,1,3,1,47,1,-26,1,-22,1,16,1,-10,1,-44,1,-102,1,-39,1,-55,1
1669,-50,1,-46,1,4,1,48,1,-27,1,-21,1,15,1,-11,1,-42,1,-99,1,-35,1,-55,1
1670,-45,1,-43,1,2,1,44,1,-24,1,-21,1,14,1,-14,1,-39,1,-98,1,-33,1,-53,1
1671,-45,1,-40,1,5,1,42,1,-25,1,-18,1,16,1,-13,1,-34,1,-94,1,-32,1,-53,1
1672,-43,1,-39,1,4,1,41,1,-24,1,-18,1,18,1,-9,1,-28,1,-90,1,-32,1,-52,1
1673,-42,1,-38,1,4,1,40,1,-23,1,-17,1,22,1,-3,1,-20,1,-85,1,-33,1,-51,1
1674,-42,1,-38,1,4,1,40,1,-23,1,-17,1,25,1,6,1,-12,1,-79,1,-29,1,-50,1
1675,-46,1,-38,1,8,1,42,1,-27,1,-15,1,27,1,16,1,-4,1,-73,1,-21,1,-47,1
1676,-48,1,-37,1,11,1,42,1,-30,1,-13,1,26,1,23,1,2,1,-66,1,-12,1,-48,1
1677,-47,1,-37,1,10,1,42,1,-29,1,-14,1,23,1,21,1,4,1,-61,1,-10,1,-49,1
1678,-40,1,-35,1,5,1,37,1,-23,1,-15,1,19,1,13,1,5,1,-57,1,-7,1,-47,1
1679,-37,1,-31,1,6,1,34,1,-22,1,-13,1,21,1,14,1,8,1,-51,1,-2,1,-44,1
1680,-38,1,-27,1,11,1,32,1,-25,1,-8,1,25,1,25,1,16,1,-44,1,4,1,-40,1
1681,-41,1,-24,1,17,1,32,1,-29,1,-4,1,28,1,29,1,23,1,-38,1,8,1,-37,1
1682,-37,1,-22,1,15,1,29,1,-26,1,-4,1,29,1,23,1,26,1,-35,1,12,1,-37,1
1683,-33,1,-22,1,11,1,27,1,-22,1,-6,1,29,1,16,1,25,1,-39,1,16,1,-38,1
1684,-29,1,-24,1,5,1,26,1,-17,1,-10,1,29,1,14,1,25,1,-44,1,16,1,-41,1
1685,-30,1,-26,1,4,1,28,1,-17,1,-11,1,26,1,14,1,25,1,-41,1,16,1,-42,1
1686,-25,1,-25,1,0,1,25,1,-13,1,-13,1,20,1,13,1,26,1,-35,1,17,1,-43,1
1687,-23,1,-23,1,0,1,23,1,-12,1,-12,1,17,1,15,1,30,1,-24,1,24,1,-39,1
1688,-22,1,-19,1,3,1,20,1,-13,1,-8,1,17,1,16,1,32,1,-18,1,26,1,-37,1
1689,-22,1,-17,1,5,1,19,1,-14,1,-6,1,17,1,15,1,30,1,-17,1,27,1,-36,1
1690,-29,1,-16,1,13,1,22,1,-21,1,-2,1,20,1,16,1,34,1,-11,1,34,1,-33,1
1691,-31,1,-15,1,16,1,23,1,-24,1,0,1,20,1,18,1,37,1,-5,1,40,1,-29,1
1692,-26,1,-14,1,12,1,20,1,-19,1,-1,1,18,1,19,1,37,1,0,1,40,1,-31,1
1693,-25,1,-15,1,10,1,20,1,-18,1,-3,1,17,1,24,1,40,1,10,1,41,1,-31,1
1694,-24,1,-14,1,10,1,19,1,-17,1,-2,1,17,1,26,1,41,1,14,1,45,1,-31,1
1695,-24,1,-12,1,12,1,18,1,-18,1,0,1,20,1,27,1,43,1,18,1,53,1,-31,1
1696,-21,1,-9,1,12,1,15,1,-17,1,1,1,22,1,28,1,45,1,23,1,60,1,-31,1
1697,-17,1,-9,1,8,1,13,1,-13,1,-1,1,19,1,25,1,45,1,25,1,65,1,-30,1
1698,-21,1,-10,1,11,1,15,1,-16,1,0,1,19,1,25,1,47,1,29,1,69,1,-29,1
1699,-25,1,-11,1,14,1,18,1,-20,1,1,1,17,1,25,1,45,1,30,1,72,1,-29,1
1700,-25,1,-9,1,16,1,17,1,-21,1,3,1,16,1,24,1,43,1,30,1,73,1,-29,1
1701,-24,1,-7,1,17,1,15,1,-21,1,5,1,16,1,24,1,42,1,29,1,72,1,-32,1
1702,-22,1,-5,1,17,1,13,1,-20,1,6,1,16,1,23,1,41,1,31,1,77,1,-32,1
1703,-22,1,-7,1,15,1,14,1,-19,1,4,1,12,1,22,1,38,1,33,1,80,1,-34,1
1704,-19,1,-10,1,9,1,14,1,-14,1,-1,1,7,1,21,1,36,1,34,1,82,1,-35,1
1705,-19,1,-12,1,7,1,15,1,-13,1,-3,1,5,1,22,1,35,1,34,1,86,1,-35,1
1706,-22,1,-13,1,9,1,17,1,-16,1,-2,1,5,1,23,1,35,1,35,1,88,1,-34,1
1707,-23,1,-12,1,11,1,17,1,-17,1,-1,1,7,1,24,1,34,1,35,1,88,1,-34,1
1708,-25,1,-12,1,13,1,18,1,-19,1,0,1,8,1,21,1,34,1,34,1,87,1,-36,1
1709,-29,1,-12,1,17,1,20,1,-23,1,2,1,9,1,22,1,34,1,33,1,85,1,-38,1
1710,-31,1,-10,1,21,1,20,1,-26,1,5,1,10,1,25,1,34,1,33,1,85,1,-40,1
1711,-30,1,-11,1,19,1,20,1,-25,1,4,1,9,1,25,1,32,1,33,1,85,1,-41,1
1712,-30,1,-11,1,19,1,20,1,-25,1,4,1,8,1,24,1,30,1,33,1,88,1,-43,1
1713,-27,1,-10,1,17,1,18,1,-22,1,3,1,6,1,24,1,26,1,33,1,91,1,-42,1
1714,-24,1,-10,1,14,1,17,1,-19,1,2,1,5,1,23,1,23,1,31,1,91,1,-45,1
1715,-22,1,-11,1,11,1,16,1,-17,1,0,1,4,1,23,1,22,1,31,1,91,1,-46,1
1716,-22,1,-11,1,11,1,16,1,-17,1,0,1,4,1,23,1,20,1,32,1,93,1,-46,1
1717,-23,1,-11,1,12,1,17,1,-18,1,0,1,2,1,18,1,18,1,32,1,96,1,-45,1
1718,-26,1,-10,1,16,1,18,1,-21,1,3,1,2,1,11,1,15,1,31,1,99,1,-44,1
1719,-27,1,-7,1,20,1,17,1,-24,1,6,1,2,1,8,1,14,1,31,1,99,1,-46,1
1720,-26,1,-3,1,23,1,14,1,-25,1,10,1,3,1,8,1,12,1,30,1,97,1,-50,1
1721,-25,1,2,1,27,1,11,1,-26,1,14,1,3,1,7,1,12,1,28,1,94,1,-54,1
1722,-25,1,3,1,28,1,11,1,-26,1,15,1,2,1,10,1,10,1,24,1,92,1,-58,1
1723,-25,1,3,1,28,1,11,1,-26,1,15,1,2,1,14,1,10,1,24,1,91,1,-62,1
1724,-25,1,3,1,28,1,11,1,-26,1,15,1,2,1,18,1,13,1,24,1,92,1,-68,1
1725,-27,1,0,1,27,1,13,1,-27,1,13,1,1,1,19,1,13,1,22,1,90,1,-78,1
1726,-25,1,-1,1,24,1,13,1,-25,1,11,1,3,1,17,1,12,1,20,1,89,1,-86,1
1727,-19,1,-1,1,18,1,10,1,-19,1,8,1,3,1,13,1,10,1,17,1,86,1,-94,1
1728,-19,1,-2,1,17,1,10,1,-18,1,7,1,4,1,11,1,10,1,15,1,83,1,-99,1
1729,-24,1,-7,1,17,1,15,1,-21,1,5,1,2,1,8,1,8,1,13,1,80,1,-104,1
1730,-26,1,-8,1,18,1,17,1,-22,1,5,1,4,1,10,1,10,1,14,1,81,1,-104,1
1731,-30,1,-7,1,23,1,18,1,-27,1,8,1,7,1,12,1,12,1,17,1,84,1,-100,1
1732,-29,1,-6,1,23,1,17,1,-26,1,8,1,8,1,15,1,13,1,20,1,88,1,-99,1
1733,-27,1,-5,1,22,1,16,1,-25,1,8,1,6,1,12,1,10,1,19,1,88,1,-101,1
