TS,I,If,II,IIf,III,IIIf,aVR,aVRf,aVL,aVLf,aVF,aVFf,V1,V1f,V2,V2f,V3,V3f,V4,V4f,V5,V5f,V6,V6f
1,-9,1,4,1,13,1,2,1,-11,1,8,1,-3,1,4,1,-6,1,-22,1,-84,1,-22,1
2,-10,1,6,1,16,1,2,1,-13,1,11,1,-2,1,4,1,-4,1,-22,1,-83,1,-21,1
3,-10,1,9,1,19,1,0,1,-14,1,14,1,-3,1,4,1,-3,1,-20,1,-81,1,-18,1
4,-7,1,12,1,19,1,-2,1,-13,1,15,1,-3,1,3,1,-3,1,-21,1,-83,1,-17,1
5,-6,1,13,1,19,1,-3,1,-12,1,16,1,-4,1,4,1,-4,1,-21,1,-84,1,-17,1
6,-7,1,14,1,21,1,-3,1,-14,1,17,1,-3,1,5,1,-4,1,-19,1,-85,1,-15,1
7,-9,1,14,1,23,1,-2,1,-16,1,18,1,-3,1,4,1,-4,1,-19,1,-85,1,-15,1
8,-11,1,13,1,24,1,-1,1,-17,1,18,1,-3,1,4,1,-5,1,-20,1,-89,1,-17,1
9,-10,1,14,1,24,1,-2,1,-17,1,19,1,-3,1,2,1,-5,1,-21,1,-90,1,-19,1
10,-8,1,14,1,22,1,-3,1,-15,1,18,1,-3,1,0,1,-4,1,-21,1,-88,1,-18,1
11,-5,1,14,1,19,1,-4,1,-12,1,16,1,-5,1,-1,1,-5,1,-22,1,-88,1,-20,1
12,-6,1,14,1,20,1,-4,1,-13,1,17,1,-5,1,-1,1,-4,1,-23,1,-87,1,-20,1
13,-8,1,14,1,22,1,-3,1,-15,1,18,1,-5,1,0,1,-3,1,-21,1,-85,1,-18,1
14,-7,1,16,1,23,1,-4,1,-15,1,19,1,-5,1,1,1,-3,1,-19,1,-84,1,-16,1
15,-6,1,17,1,23,1,-5,1,-14,1,20,1,-3,1,2,1,-2,1,-19,1,-85,1,-15,1
16,-10,1,18,1,28,1,-4,1,-19,1,23,1,-3,1,2,1,-2,1,-18,1,-84,1,-14,1
17,-11,1,19,1,30,1,-4,1,-20,1,24,1,-4,1,1,1,-4,1,-19,1,-85,1,-16,1
18,-10,1,18,1,28,1,-4,1,-19,1,23,1,-4,1,0,1,-5,1,-21,1,-87,1,-18,1
19,-8,1,19,1,27,1,-5,1,-17,1,23,1,-5,1,-1,1,-6,1,-23,1,-87,1,-18,1
20,-6,1,18,1,24,1,-6,1,-15,1,21,1,-6,1,-2,1,-7,1,-23,1,-86,1,-17,1
21,-6,1,17,1,23,1,-5,1,-14,1,20,1,-6,1,-1,1,-6,1,-24,1,-87,1,-19,1
22,-8,1,15,1,23,1,-3,1,-15,1,19,1,-6,1,0,1,-6,1,-26,1,-86,1,-18,1
23,-10,1,14,1,24,1,-2,1,-17,1,19,1,-6,1,0,1,-7,1,-25,1,-86,1,-16,1
24,-10,1,14,1,24,1,-2,1,-17,1,19,1,-6,1,0,1,-7,1,-24,1,-87,1,-16,1
25,-9,1,14,1,23,1,-2,1,-16,1,18,1,-6,1,-1,1,-9,1,-25,1,-89,1,-16,1
26,-11,1,14,1,25,1,-1,1,-18,1,19,1,-8,1,-3,1,-11,1,-24,1,-88,1,-14,1
27,-12,1,16,1,28,1,-2,1,-20,1,22,1,-9,1,-3,1,-11,1,-22,1,-87,1,-13,1
28,-10,1,17,1,27,1,-3,1,-18,1,22,1,-11,1,-4,1,-12,1,-24,1,-89,1,-16,1
29,-6,1,17,1,23,1,-5,1,-14,1,20,1,-12,1,-6,1,-12,1,-23,1,-90,1,-17,1
30,-7,1,18,1,25,1,-5,1,-16,1,21,1,-12,1,-5,1,-11,1,-21,1,-86,1,-13,1
31,-6,1,18,1,24,1,-6,1,-15,1,21,1,-11,1,-4,1,-9,1,-22,1,-86,1,-12,1
32,-5,1,18,1,23,1,-6,1,-14,1,20,1,-11,1,-4,1,-8,1,-21,1,-86,1,-11,1
33,-5,1,20,1,25,1,-7,1,-15,1,22,1,-12,1,-3,1,-7,1,-19,1,-83,1,-8,1
34,-5,1,22,1,27,1,-8,1,-16,1,24,1,-11,1,-1,1,-7,1,-18,1,-84,1,-9,1
35,-6,1,22,1,28,1,-8,1,-17,1,25,1,-11,1,-1,1,-8,1,-21,1,-88,1,-14,1
36,-7,1,22,1,29,1,-7,1,-18,1,25,1,-12,1,-3,1,-10,1,-22,1,-89,1,-17,1
37,-7,1,22,1,29,1,-7,1,-18,1,25,1,-13,1,-4,1,-10,1,-22,1,-90,1,-18,1
38,-9,1,21,1,30,1,-6,1,-19,1,25,1,-11,1,-3,1,-9,1,-23,1,-90,1,-18,1
39,-11,1,21,1,32,1,-5,1,-21,1,26,1,-10,1,-2,1,-7,1,-21,1,-87,1,-16,1
40,-11,1,21,1,32,1,-5,1,-21,1,26,1,-11,1,-3,1,-7,1,-20,1,-85,1,-13,1
41,-11,1,18,1,29,1,-3,1,-20,1,23,1,-10,1,-4,1,-8,1,-22,1,-85,1,-12,1
42,-10,1,16,1,26,1,-3,1,-18,1,21,1,-9,1,-4,1,-9,1,-23,1,-85,1,-11,1
43,-8,1,15,1,23,1,-3,1,-15,1,19,1,-8,1,-2,1,-9,1,-22,1,-84,1,-10,1
44,-6,1,14,1,20,1,-4,1,-13,1,17,1,-7,1,-1,1,-9,1,-22,1,-85,1,-11,1
45,-5,1,12,1,17,1,-3,1,-11,1,14,1,-6,1,0,1,-10,1,-26,1,-89,1,-14,1
46,-10,1,9,1,19,1,0,1,-14,1,14,1,-6,1,-1,1,-11,1,-26,1,-91,1,-17,1
47,-13,1,8,1,21,1,2,1,-17,1,14,1,-5,1,0,1,-10,1,-26,1,-93,1,-19,1
48,-13,1,9,1,22,1,2,1,-17,1,15,1,-2,1,2,1,-10,1,-26,1,-95,1,-21,1
49,-12,1,7,1,19,1,2,1,-15,1,13,1,-2,1,2,1,-9,1,-26,1,-95,1,-21,1
50,-11,1,6,1,17,1,2,1,-14,1,11,1,-1,1,3,1,-8,1,-24,1,-94,1,-19,1
51,-12,1,4,1,16,1,4,1,-14,1,10,1,0,1,4,1,-8,1,-25,1,-96,1,-21,1
52,-11,1,2,1,13,1,4,1,-12,1,7,1,1,1,5,1,-8,1,-25,1,-98,1,-22,1
53,-12,1,0,1,12,1,6,1,-12,1,6,1,1,1,4,1,-8,1,-25,1,-99,1,-21,1
54,-9,1,0,1,9,1,4,1,-9,1,4,1,2,1,4,1,-9,1,-27,1,-101,1,-22,1
55,-8,1,0,1,8,1,4,1,-8,1,4,1,3,1,4,1,-9,1,-30,1,-105,1,-25,1
56,-12,1,0,1,12,1,6,1,-12,1,6,1,3,1,4,1,-8,1,-29,1,-105,1,-24,1
57,-13,1,-1,1,12,1,7,1,-13,1,5,1,2,1,5,1,-7,1,-29,1,-106,1,-25,1
58,-13,1,-1,1,12,1,7,1,-13,1,5,1,3,1,6,1,-7,1,-30,1,-107,1,-26,1
59,-13,1,-4,1,9,1,8,1,-11,1,2,1,2,1,5,1,-8,1,-31,1,-108,1,-27,1
60,-11,1,-4,1,7,1,7,1,-9,1,1,1,1,1,4,1,-9,1,-30,1,-108,1,-27,1
61,-9,1,-4,1,5,1,6,1,-7,1,0,1,2,1,5,1,-9,1,-30,1,-108,1,-27,1
62,-11,1,-3,1,8,1,7,1,-10,1,2,1,4,1,7,1,-8,1,-28,1,-107,1,-25,1
63,-10,1,-4,1,6,1,7,1,-8,1,1,1,2,1,6,1,-9,1,-28,1,-108,1,-25,1
64,-8,1,-5,1,3,1,6,1,-6,1,-1,1,1,1,5,1,-11,1,-30,1,-111,1,-26,1
65,-8,1,-4,1,4,1,6,1,-6,1,0,1,1,1,5,1,-11,1,-32,1,-114,1,-29,1
66,-8,1,-3,1,5,1,5,1,-7,1,1,1,1,1,6,1,-10,1,-32,1,-116,1,-27,1
67,-10,1,-3,1,7,1,6,1,-9,1,2,1,1,1,6,1,-10,1,-33,1,-117,1,-27,1
68,-9,1,-3,1,6,1,6,1,-8,1,1,1,1,1,6,1,-10,1,-35,1,-117,1,-29,1
69,-10,1,-2,1,8,1,6,1,-9,1,3,1,2,1,5,1,-8,1,-33,1,-117,1,-28,1
70,-9,1,-3,1,6,1,6,1,-8,1,1,1,2,1,3,1,-9,1,-33,1,-117,1,-28,1
71,-8,1,-4,1,4,1,6,1,-6,1,0,1,3,1,3,1,-10,1,-34,1,-118,1,-31,1
72,-8,1,-2,1,6,1,5,1,-7,1,2,1,4,1,3,1,-10,1,-35,1,-118,1,-31,1
73,-7,1,-2,1,5,1,4,1,-6,1,1,1,3,1,4,1,-10,1,-35,1,-117,1,-29,1
74,-9,1,-2,1,7,1,5,1,-8,1,2,1,3,1,5,1,-11,1,-35,1,-117,1,-28,1
75,-10,1,-2,1,8,1,6,1,-9,1,3,1,4,1,7,1,-11,1,-36,1,-117,1,-26,1
76,-12,1,-1,1,11,1,6,1,-12,1,5,1,3,1,6,1,-11,1,-34,1,-114,1,-22,1
77,-13,1,-2,1,11,1,7,1,-12,1,4,1,2,1,4,1,-12,1,-33,1,-112,1,-21,1
78,-14,1,-4,1,10,1,9,1,-12,1,3,1,2,1,4,1,-11,1,-34,1,-112,1,-22,1
79,-12,1,-3,1,9,1,7,1,-11,1,3,1,2,1,5,1,-9,1,-32,1,-112,1,-24,1
80,-11,1,-4,1,7,1,7,1,-9,1,1,1,1,1,4,1,-8,1,-32,1,-111,1,-26,1
81,-11,1,-5,1,6,1,8,1,-9,1,0,1,2,1,4,1,-9,1,-32,1,-112,1,-27,1
82,-11,1,-4,1,7,1,7,1,-9,1,1,1,2,1,4,1,-9,1,-32,1,-112,1,-27,1
83,-12,1,-4,1,8,1,8,1,-10,1,2,1,3,1,5,1,-8,1,-32,1,-111,1,-26,1
84,-13,1,-5,1,8,1,9,1,-11,1,1,1,6,1,8,1,-5,1,-32,1,-112,1,-26,1
85,-14,1,-8,1,6,1,11,1,-10,1,-1,1,11,1,12,1,-2,1,-34,1,-114,1,-28,1
86,-13,1,-12,1,1,1,12,1,-7,1,-6,1,17,1,16,1,0,1,-36,1,-117,1,-30,1
87,-13,1,-15,1,-2,1,14,1,-6,1,-9,1,27,1,24,1,7,1,-40,1,-120,1,-34,1
88,-16,1,-18,1,-2,1,17,1,-7,1,-10,1,38,1,32,1,18,1,-43,1,-125,1,-41,1
89,-20,1,-21,1,-1,1,20,1,-10,1,-11,1,48,1,40,1,32,1,-42,1,-126,1,-44,1
90,-21,1,-22,1,-1,1,21,1,-10,1,-12,1,56,1,49,1,48,1,-37,1,-123,1,-45,1
91,-19,1,-20,1,-1,1,19,1,-9,1,-11,1,62,1,55,1,66,1,-29,1,-120,1,-45,1
92,-18,1,-14,1,4,1,16,1,-11,1,-5,1,62,1,60,1,84,1,-15,1,-111,1,-40,1
93,-14,1,-5,1,9,1,9,1,-12,1,2,1,58,1,62,1,98,1,4,1,-94,1,-30,1
94,-8,1,7,1,15,1,0,1,-11,1,11,1,49,1,62,1,108,1,28,1,-73,1,-18,1
95,-3,1,20,1,23,1,-8,1,-13,1,21,1,39,1,62,1,117,1,58,1,-49,1,-3,1
96,3,1,37,1,34,1,-20,1,-15,1,36,1,24,1,60,1,125,1,94,1,-19,1,18,1
97,11,1,52,1,41,1,-31,1,-15,1,47,1,8,1,56,1,131,1,131,1,12,1,39,1
98,21,1,68,1,47,1,-44,1,-13,1,58,1,-9,1,53,1,136,1,166,1,41,1,61,1
99,29,1,83,1,54,1,-56,1,-12,1,69,1,-29,1,45,1,135,1,199,1,70,1,83,1
100,33,1,100,1,67,1,-66,1,-17,1,84,1,-48,1,34,1,133,1,231,1,100,1,106,1
101,35,1,118,1,83,1,-76,1,-24,1,101,1,-66,1,21,1,129,1,258,1,130,1,127,1
102,37,1,137,1,100,1,-87,1,-31,1,119,1,-84,1,5,1,118,1,279,1,156,1,146,1
103,37,1,151,1,114,1,-94,1,-38,1,133,1,-96,1,-10,1,103,1,290,1,176,1,160,1
104,39,1,151,1,112,1,-95,1,-36,1,132,1,-100,1,-19,1,84,1,289,1,185,1,165,1
105,41,1,134,1,93,1,-87,1,-26,1,114,1,-95,1,-23,1,60,1,269,1,180,1,159,1
106,37,1,106,1,69,1,-71,1,-16,1,88,1,-87,1,-25,1,30,1,232,1,161,1,146,1
107,31,1,72,1,41,1,-51,1,-5,1,57,1,-76,1,-29,1,-10,1,174,1,127,1,124,1
108,25,1,39,1,14,1,-32,1,6,1,27,1,-65,1,-33,1,-51,1,105,1,83,1,95,1
109,19,1,10,1,-9,1,-14,1,14,1,1,1,-56,1,-31,1,-80,1,48,1,43,1,68,1
110,11,1,-12,1,-23,1,0,1,17,1,-17,1,-46,1,-29,1,-95,1,5,1,8,1,46,1
111,5,1,-27,1,-32,1,11,1,18,1,-29,1,-37,1,-25,1,-100,1,-28,1,-20,1,26,1
112,1,1,-37,1,-38,1,18,1,19,1,-37,1,-30,1,-23,1,-101,1,-50,1,-43,1,11,1
113,0,1,-44,1,-44,1,22,1,22,1,-44,1,-25,1,-20,1,-99,1,-64,1,-57,1,1,1
114,-2,1,-49,1,-47,1,25,1,22,1,-48,1,-18,1,-17,1,-93,1,-72,1,-69,1,-8,1
115,-6,1,-51,1,-45,1,28,1,19,1,-48,1,-11,1,-13,1,-85,1,-78,1,-78,1,-17,1
116,-10,1,-52,1,-42,1,31,1,16,1,-47,1,-6,1,-8,1,-76,1,-76,1,-81,1,-19,1
117,-12,1,-50,1,-38,1,31,1,13,1,-44,1,-1,1,-2,1,-66,1,-73,1,-83,1,-20,1
118,-11,1,-48,1,-37,1,29,1,13,1,-43,1,1,1,3,1,-57,1,-70,1,-84,1,-23,1
119,-11,1,-46,1,-35,1,28,1,12,1,-41,1,3,1,8,1,-47,1,-65,1,-86,1,-25,1
120,-11,1,-46,1,-35,1,28,1,12,1,-41,1,5,1,12,1,-37,1,-60,1,-85,1,-26,1
121,-10,1,-45,1,-35,1,27,1,12,1,-40,1,8,1,16,1,-29,1,-56,1,-85,1,-28,1
122,-10,1,-45,1,-35,1,27,1,12,1,-40,1,10,1,17,1,-22,1,-53,1,-85,1,-30,1
123,-11,1,-42,1,-31,1,26,1,10,1,-37,1,12,1,18,1,-17,1,-49,1,-83,1,-29,1
124,-10,1,-39,1,-29,1,24,1,9,1,-34,1,14,1,19,1,-13,1,-46,1,-82,1,-30,1
125,-10,1,-35,1,-25,1,22,1,7,1,-30,1,16,1,17,1,-12,1,-45,1,-82,1,-30,1
126,-12,1,-30,1,-18,1,21,1,3,1,-24,1,16,1,16,1,-11,1,-42,1,-77,1,-27,1
127,-15,1,-27,1,-12,1,21,1,-2,1,-20,1,15,1,15,1,-12,1,-43,1,-76,1,-26,1
128,-15,1,-26,1,-11,1,20,1,-2,1,-19,1,14,1,14,1,-12,1,-44,1,-77,1,-26,1
129,-15,1,-24,1,-9,1,19,1,-3,1,-17,1,12,1,13,1,-11,1,-45,1,-77,1,-24,1
130,-16,1,-22,1,-6,1,19,1,-5,1,-14,1,11,1,12,1,-10,1,-43,1,-74,1,-21,1
131,-14,1,-21,1,-7,1,17,1,-4,1,-14,1,11,1,14,1,-9,1,-42,1,-74,1,-21,1
132,-12,1,-21,1,-9,1,16,1,-2,1,-15,1,10,1,14,1,-9,1,-42,1,-74,1,-21,1
133,-12,1,-21,1,-9,1,16,1,-2,1,-15,1,10,1,13,1,-9,1,-41,1,-73,1,-22,1
134,-12,1,-22,1,-10,1,17,1,-1,1,-16,1,12,1,13,1,-10,1,-42,1,-73,1,-25,1
135,-10,1,-23,1,-13,1,16,1,1,1,-18,1,12,1,11,1,-11,1,-44,1,-76,1,-30,1
136,-11,1,-23,1,-12,1,17,1,0,1,-18,1,11,1,7,1,-13,1,-46,1,-77,1,-31,1
137,-14,1,-22,1,-8,1,18,1,-3,1,-15,1,12,1,7,1,-12,1,-46,1,-76,1,-29,1
138,-15,1,-22,1,-7,1,18,1,-4,1,-15,1,12,1,8,1,-11,1,-47,1,-77,1,-29,1
139,-14,1,-22,1,-8,1,18,1,-3,1,-15,1,12,1,8,1,-10,1,-45,1,-76,1,-28,1
140,-13,1,-22,1,-9,1,17,1,-2,1,-16,1,12,1,8,1,-11,1,-43,1,-74,1,-27,1
141,-13,1,-23,1,-10,1,18,1,-2,1,-17,1,12,1,8,1,-11,1,-43,1,-75,1,-28,1
142,-11,1,-23,1,-12,1,17,1,0,1,-18,1,11,1,10,1,-13,1,-42,1,-76,1,-28,1
143,-11,1,-24,1,-13,1,17,1,1,1,-19,1,11,1,11,1,-11,1,-40,1,-74,1,-28,1
144,-11,1,-24,1,-13,1,17,1,1,1,-19,1,12,1,11,1,-12,1,-41,1,-75,1,-29,1
145,-11,1,-25,1,-14,1,18,1,1,1,-20,1,12,1,11,1,-12,1,-44,1,-75,1,-31,1
146,-13,1,-25,1,-12,1,19,1,-1,1,-19,1,12,1,9,1,-12,1,-43,1,-73,1,-30,1
147,-14,1,-25,1,-11,1,19,1,-2,1,-18,1,12,1,8,1,-12,1,-44,1,-72,1,-30,1
148,-13,1,-25,1,-12,1,19,1,-1,1,-19,1,12,1,8,1,-13,1,-46,1,-73,1,-31,1
149,-10,1,-23,1,-13,1,16,1,1,1,-18,1,11,1,9,1,-12,1,-45,1,-72,1,-28,1
150,-10,1,-23,1,-13,1,16,1,1,1,-18,1,11,1,10,1,-13,1,-44,1,-70,1,-27,1
151,-10,1,-23,1,-13,1,16,1,1,1,-18,1,11,1,11,1,-13,1,-44,1,-71,1,-29,1
152,-10,1,-24,1,-14,1,17,1,2,1,-19,1,11,1,12,1,-14,1,-44,1,-72,1,-30,1
153,-10,1,-25,1,-15,1,17,1,2,1,-20,1,10,1,12,1,-14,1,-43,1,-71,1,-30,1
154,-10,1,-25,1,-15,1,17,1,2,1,-20,1,11,1,12,1,-14,1,-44,1,-71,1,-31,1
155,-12,1,-25,1,-13,1,18,1,0,1,-19,1,12,1,10,1,-14,1,-45,1,-72,1,-32,1
156,-12,1,-25,1,-13,1,18,1,0,1,-19,1,10,1,8,1,-14,1,-46,1,-70,1,-29,1
157,-13,1,-25,1,-12,1,19,1,-1,1,-19,1,10,1,7,1,-15,1,-46,1,-70,1,-28,1
158,-15,1,-26,1,-11,1,20,1,-2,1,-19,1,11,1,7,1,-14,1,-48,1,-71,1,-28,1
159,-13,1,-26,1,-13,1,19,1,0,1,-20,1,11,1,7,1,-14,1,-49,1,-71,1,-28,1
160,-11,1,-26,1,-15,1,18,1,2,1,-21,1,10,1,7,1,-15,1,-49,1,-70,1,-26,1
161,-14,1,-27,1,-13,1,20,1,-1,1,-20,1,11,1,9,1,-14,1,-48,1,-71,1,-27,1
162,-15,1,-28,1,-13,1,21,1,-1,1,-21,1,11,1,8,1,-14,1,-48,1,-71,1,-29,1
163,-16,1,-27,1,-11,1,21,1,-3,1,-19,1,11,1,8,1,-14,1,-48,1,-71,1,-31,1
164,-13,1,-25,1,-12,1,19,1,-1,1,-19,1,12,1,9,1,-14,1,-49,1,-73,1,-33,1
165,-14,1,-25,1,-11,1,19,1,-2,1,-18,1,13,1,8,1,-13,1,-50,1,-75,1,-35,1
166,-12,1,-25,1,-13,1,18,1,0,1,-19,1,12,1,6,1,-13,1,-50,1,-75,1,-34,1
167,-12,1,-26,1,-14,1,19,1,1,1,-20,1,11,1,6,1,-14,1,-51,1,-75,1,-34,1
168,-11,1,-27,1,-16,1,19,1,2,1,-22,1,11,1,7,1,-14,1,-51,1,-75,1,-34,1
169,-11,1,-26,1,-15,1,18,1,2,1,-21,1,9,1,8,1,-14,1,-51,1,-74,1,-33,1
170,-12,1,-26,1,-14,1,19,1,1,1,-20,1,8,1,8,1,-14,1,-49,1,-74,1,-32,1
171,-12,1,-27,1,-15,1,19,1,1,1,-21,1,9,1,9,1,-14,1,-51,1,-77,1,-34,1
172,-13,1,-26,1,-13,1,19,1,0,1,-20,1,10,1,9,1,-14,1,-52,1,-78,1,-35,1
173,-12,1,-24,1,-12,1,18,1,0,1,-18,1,10,1,9,1,-13,1,-53,1,-79,1,-35,1
174,-10,1,-22,1,-12,1,16,1,1,1,-17,1,11,1,9,1,-13,1,-52,1,-79,1,-36,1
175,-11,1,-23,1,-12,1,17,1,0,1,-18,1,11,1,8,1,-13,1,-55,1,-80,1,-35,1
176,-13,1,-25,1,-12,1,19,1,-1,1,-19,1,9,1,6,1,-14,1,-55,1,-79,1,-33,1
177,-14,1,-25,1,-11,1,19,1,-2,1,-18,1,8,1,6,1,-14,1,-55,1,-79,1,-33,1
178,-14,1,-25,1,-11,1,19,1,-2,1,-18,1,8,1,6,1,-14,1,-54,1,-80,1,-34,1
179,-15,1,-26,1,-11,1,20,1,-2,1,-19,1,7,1,6,1,-15,1,-54,1,-80,1,-34,1
180,-14,1,-25,1,-11,1,19,1,-2,1,-18,1,8,1,6,1,-14,1,-52,1,-78,1,-33,1
181,-10,1,-24,1,-14,1,17,1,2,1,-19,1,11,1,9,1,-13,1,-52,1,-79,1,-34,1
182,-10,1,-23,1,-13,1,16,1,1,1,-18,1,13,1,10,1,-12,1,-52,1,-79,1,-35,1
183,-9,1,-22,1,-13,1,15,1,2,1,-18,1,13,1,10,1,-12,1,-51,1,-79,1,-35,1
184,-10,1,-23,1,-13,1,16,1,1,1,-18,1,12,1,10,1,-12,1,-52,1,-80,1,-37,1
185,-11,1,-23,1,-12,1,17,1,0,1,-18,1,11,1,9,1,-12,1,-53,1,-82,1,-37,1
186,-11,1,-24,1,-13,1,17,1,1,1,-19,1,9,1,8,1,-12,1,-53,1,-81,1,-38,1
187,-11,1,-24,1,-13,1,17,1,1,1,-19,1,9,1,8,1,-11,1,-52,1,-81,1,-37,1
188,-14,1,-23,1,-9,1,18,1,-3,1,-16,1,10,1,9,1,-10,1,-52,1,-81,1,-36,1
189,-14,1,-23,1,-9,1,18,1,-3,1,-16,1,9,1,8,1,-9,1,-52,1,-80,1,-35,1
190,-15,1,-22,1,-7,1,18,1,-4,1,-15,1,10,1,7,1,-8,1,-51,1,-79,1,-34,1
191,-16,1,-23,1,-7,1,19,1,-5,1,-15,1,11,1,8,1,-8,1,-50,1,-81,1,-36,1
192,-14,1,-22,1,-8,1,18,1,-3,1,-15,1,11,1,7,1,-8,1,-50,1,-83,1,-37,1
193,-12,1,-21,1,-9,1,16,1,-2,1,-15,1,10,1,7,1,-7,1,-49,1,-85,1,-38,1
194,-13,1,-20,1,-7,1,16,1,-3,1,-14,1,10,1,7,1,-7,1,-49,1,-86,1,-39,1
195,-14,1,-20,1,-6,1,17,1,-4,1,-13,1,9,1,8,1,-5,1,-49,1,-87,1,-41,1
196,-15,1,-19,1,-4,1,17,1,-6,1,-12,1,7,1,7,1,-4,1,-47,1,-85,1,-40,1
197,-16,1,-19,1,-3,1,17,1,-7,1,-11,1,6,1,8,1,-3,1,-46,1,-83,1,-39,1
198,-15,1,-18,1,-3,1,16,1,-6,1,-11,1,6,1,9,1,-1,1,-46,1,-83,1,-39,1
199,-15,1,-18,1,-3,1,16,1,-6,1,-11,1,6,1,8,1,-1,1,-46,1,-82,1,-38,1
200,-17,1,-19,1,-2,1,18,1,-8,1,-11,1,6,1,8,1,-1,1,-45,1,-83,1,-37,1
201,-14,1,-16,1,-2,1,15,1,-6,1,-9,1,8,1,9,1,0,1,-44,1,-85,1,-39,1
202,-13,1,-13,1,0,1,13,1,-7,1,-7,1,10,1,11,1,3,1,-43,1,-86,1,-40,1
203,-12,1,-12,1,0,1,12,1,-6,1,-6,1,11,1,11,1,5,1,-40,1,-86,1,-40,1
204,-5,1,-10,1,-5,1,7,1,0,1,-8,1,9,1,10,1,5,1,-40,1,-88,1,-43,1
205,-8,1,-10,1,-2,1,9,1,-3,1,-6,1,11,1,12,1,8,1,-38,1,-87,1,-41,1
206,-12,1,-10,1,2,1,11,1,-7,1,-4,1,10,1,13,1,10,1,-36,1,-84,1,-38,1
207,-14,1,-11,1,3,1,12,1,-9,1,-4,1,9,1,14,1,11,1,-34,1,-83,1,-36,1
208,-14,1,-10,1,4,1,12,1,-9,1,-3,1,10,1,15,1,13,1,-33,1,-82,1,-35,1
209,-13,1,-8,1,5,1,10,1,-9,1,-2,1,9,1,16,1,15,1,-31,1,-80,1,-33,1
210,-9,1,-7,1,2,1,8,1,-6,1,-3,1,8,1,15,1,15,1,-29,1,-81,1,-34,1
211,-7,1,-4,1,3,1,5,1,-5,1,-1,1,10,1,15,1,17,1,-28,1,-83,1,-34,1
212,-11,1,-3,1,8,1,7,1,-10,1,2,1,13,1,16,1,20,1,-26,1,-82,1,-34,1
213,-12,1,-1,1,11,1,6,1,-12,1,5,1,14,1,16,1,23,1,-23,1,-82,1,-33,1
214,-10,1,2,1,12,1,4,1,-11,1,7,1,14,1,15,1,24,1,-22,1,-81,1,-32,1
215,-11,1,2,1,13,1,4,1,-12,1,7,1,13,1,17,1,25,1,-21,1,-82,1,-32,1
216,-12,1,2,1,14,1,5,1,-13,1,8,1,12,1,17,1,26,1,-18,1,-81,1,-29,1
217,-11,1,2,1,13,1,4,1,-12,1,7,1,11,1,18,1,26,1,-16,1,-80,1,-28,1
218,-8,1,3,1,11,1,2,1,-9,1,7,1,11,1,19,1,27,1,-16,1,-81,1,-28,1
219,-10,1,4,1,14,1,3,1,-12,1,9,1,11,1,20,1,29,1,-12,1,-80,1,-26,1
220,-12,1,5,1,17,1,3,1,-14,1,11,1,11,1,21,1,31,1,-9,1,-78,1,-25,1
221,-9,1,7,1,16,1,1,1,-12,1,11,1,13,1,20,1,32,1,-9,1,-80,1,-28,1
222,-8,1,9,1,17,1,0,1,-12,1,13,1,14,1,20,1,34,1,-8,1,-81,1,-30,1
223,-8,1,10,1,18,1,-1,1,-13,1,14,1,15,1,20,1,36,1,-6,1,-81,1,-29,1
224,-7,1,11,1,18,1,-2,1,-12,1,14,1,15,1,21,1,37,1,-6,1,-80,1,-29,1
225,-6,1,11,1,17,1,-2,1,-11,1,14,1,14,1,21,1,37,1,-7,1,-81,1,-28,1
226,-8,1,12,1,20,1,-2,1,-14,1,16,1,13,1,23,1,39,1,-3,1,-78,1,-24,1
227,-9,1,12,1,21,1,-1,1,-15,1,16,1,12,1,23,1,40,1,0,1,-74,1,-19,1
228,-8,1,13,1,21,1,-2,1,-14,1,17,1,11,1,24,1,41,1,0,1,-74,1,-18,1
229,-8,1,14,1,22,1,-3,1,-15,1,18,1,11,1,23,1,43,1,2,1,-72,1,-16,1
230,-8,1,15,1,23,1,-3,1,-15,1,19,1,11,1,23,1,45,1,6,1,-71,1,-16,1
231,-6,1,17,1,23,1,-5,1,-14,1,20,1,13,1,24,1,44,1,6,1,-72,1,-19,1
232,-6,1,17,1,23,1,-5,1,-14,1,20,1,14,1,22,1,43,1,5,1,-73,1,-22,1
233,-6,1,18,1,24,1,-6,1,-15,1,21,1,14,1,20,1,42,1,6,1,-74,1,-22,1
234,-5,1,18,1,23,1,-6,1,-14,1,20,1,13,1,19,1,40,1,5,1,-75,1,-22,1
235,-3,1,18,1,21,1,-7,1,-12,1,19,1,11,1,18,1,39,1,3,1,-75,1,-21,1
236,-5,1,18,1,23,1,-6,1,-14,1,20,1,11,1,18,1,39,1,5,1,-70,1,-16,1
237,-4,1,20,1,24,1,-8,1,-14,1,22,1,10,1,19,1,38,1,6,1,-67,1,-13,1
238,-5,1,21,1,26,1,-8,1,-15,1,23,1,10,1,21,1,38,1,7,1,-66,1,-11,1
239,-5,1,22,1,27,1,-8,1,-16,1,24,1,10,1,23,1,37,1,6,1,-64,1,-9,1
240,-5,1,23,1,28,1,-9,1,-16,1,25,1,10,1,22,1,35,1,6,1,-64,1,-9,1
241,-5,1,22,1,27,1,-8,1,-16,1,24,1,11,1,20,1,32,1,2,1,-67,1,-14,1
242,-5,1,21,1,26,1,-8,1,-15,1,23,1,11,1,19,1,30,1,0,1,-69,1,-15,1
243,-6,1,21,1,27,1,-7,1,-16,1,24,1,10,1,17,1,28,1,-1,1,-70,1,-14,1
244,-5,1,20,1,25,1,-7,1,-15,1,22,1,10,1,16,1,26,1,-3,1,-71,1,-16,1
245,-4,1,20,1,24,1,-8,1,-14,1,22,1,10,1,15,1,25,1,-5,1,-72,1,-17,1
246,-4,1,19,1,23,1,-7,1,-13,1,21,1,8,1,14,1,23,1,-4,1,-69,1,-13,1
247,-6,1,19,1,25,1,-6,1,-15,1,22,1,6,1,14,1,21,1,-4,1,-66,1,-10,1
248,-8,1,17,1,25,1,-4,1,-16,1,21,1,7,1,15,1,19,1,-6,1,-66,1,-11,1
249,-9,1,16,1,25,1,-3,1,-17,1,20,1,6,1,15,1,18,1,-6,1,-64,1,-10,1
250,-3,1,16,1,19,1,-6,1,-11,1,17,1,6,1,15,1,17,1,-8,1,-64,1,-11,1
251,-3,1,17,1,20,1,-7,1,-11,1,18,1,8,1,15,1,16,1,-10,1,-66,1,-15,1
252,-3,1,17,1,20,1,-7,1,-11,1,18,1,8,1,13,1,14,1,-13,1,-67,1,-17,1
253,-3,1,16,1,19,1,-6,1,-11,1,17,1,7,1,12,1,11,1,-14,1,-66,1,-16,1
254,-3,1,15,1,18,1,-6,1,-10,1,16,1,7,1,11,1,9,1,-16,1,-65,1,-15,1
255,-5,1,14,1,19,1,-4,1,-12,1,16,1,6,1,10,1,8,1,-18,1,-62,1,-14,1
256,-6,1,15,1,21,1,-4,1,-13,1,18,1,5,1,10,1,7,1,-18,1,-57,1,-10,1
257,-5,1,16,1,21,1,-5,1,-13,1,18,1,3,1,8,1,6,1,-19,1,-54,1,-8,1
258,-6,1,15,1,21,1,-4,1,-13,1,18,1,2,1,9,1,5,1,-21,1,-53,1,-7,1
259,-5,1,14,1,19,1,-4,1,-12,1,16,1,1,1,8,1,5,1,-20,1,-50,1,-6,1
260,-5,1,13,1,18,1,-4,1,-11,1,15,1,1,1,8,1,4,1,-21,1,-48,1,-5,1
261,-2,1,12,1,14,1,-5,1,-8,1,13,1,3,1,9,1,3,1,-23,1,-48,1,-8,1
262,-2,1,12,1,14,1,-5,1,-8,1,13,1,4,1,8,1,2,1,-25,1,-47,1,-9,1
263,-3,1,13,1,16,1,-5,1,-9,1,14,1,5,1,8,1,2,1,-24,1,-43,1,-7,1
264,-3,1,15,1,18,1,-6,1,-10,1,16,1,5,1,8,1,1,1,-25,1,-42,1,-8,1
265,-2,1,14,1,16,1,-6,1,-9,1,15,1,5,1,8,1,0,1,-27,1,-41,1,-9,1
266,-3,1,14,1,17,1,-5,1,-10,1,15,1,3,1,8,1,0,1,-26,1,-36,1,-6,1
267,-3,1,13,1,16,1,-5,1,-9,1,14,1,2,1,7,1,-1,1,-26,1,-31,1,-3,1
268,-4,1,10,1,14,1,-3,1,-9,1,12,1,1,1,6,1,-3,1,-29,1,-31,1,-5,1
269,-4,1,10,1,14,1,-3,1,-9,1,12,1,0,1,5,1,-4,1,-31,1,-30,1,-5,1
270,-3,1,12,1,15,1,-4,1,-9,1,13,1,0,1,4,1,-6,1,-32,1,-28,1,-5,1
271,-2,1,12,1,14,1,-5,1,-8,1,13,1,0,1,4,1,-7,1,-34,1,-28,1,-7,1
272,-6,1,10,1,16,1,-2,1,-11,1,13,1,3,1,5,1,-7,1,-33,1,-27,1,-7,1
273,-4,1,12,1,16,1,-4,1,-10,1,14,1,3,1,5,1,-6,1,-31,1,-25,1,-6,1
274,-4,1,15,1,19,1,-5,1,-11,1,17,1,3,1,6,1,-5,1,-30,1,-24,1,-5,1
275,-4,1,15,1,19,1,-5,1,-11,1,17,1,2,1,6,1,-6,1,-32,1,-23,1,-3,1
276,-6,1,15,1,21,1,-4,1,-13,1,18,1,1,1,5,1,-6,1,-30,1,-19,1,-1,1
277,-7,1,15,1,22,1,-4,1,-14,1,18,1,1,1,4,1,-6,1,-30,1,-18,1,0,1
278,-7,1,14,1,21,1,-3,1,-14,1,17,1,1,1,5,1,-6,1,-32,1,-19,1,-1,1
279,-6,1,13,1,19,1,-3,1,-12,1,16,1,0,1,5,1,-6,1,-32,1,-19,1,-1,1
280,-5,1,12,1,17,1,-3,1,-11,1,14,1,0,1,5,1,-7,1,-33,1,-21,1,-3,1
281,-6,1,11,1,17,1,-2,1,-11,1,14,1,2,1,5,1,-7,1,-35,1,-24,1,-7,1
282,-6,1,11,1,17,1,-2,1,-11,1,14,1,2,1,4,1,-8,1,-36,1,-26,1,-9,1
283,-3,1,12,1,15,1,-4,1,-9,1,13,1,2,1,4,1,-8,1,-35,1,-24,1,-9,1
284,-2,1,14,1,16,1,-6,1,-9,1,15,1,2,1,4,1,-7,1,-35,1,-24,1,-9,1
285,-5,1,13,1,18,1,-4,1,-11,1,15,1,3,1,5,1,-7,1,-35,1,-23,1,-7,1
286,-7,1,12,1,19,1,-2,1,-13,1,15,1,2,1,4,1,-6,1,-33,1,-20,1,-3,1
287,-9,1,12,1,21,1,-1,1,-15,1,16,1,2,1,5,1,-5,1,-32,1,-16,1,0,1
288,-6,1,12,1,18,1,-3,1,-12,1,15,1,2,1,6,1,-5,1,-34,1,-16,1,-1,1
289,-6,1,10,1,16,1,-2,1,-11,1,13,1,3,1,7,1,-4,1,-33,1,-14,1,-1,1
290,-8,1,11,1,19,1,-1,1,-13,1,15,1,4,1,7,1,-4,1,-32,1,-12,1,-2,1
291,-8,1,11,1,19,1,-1,1,-13,1,15,1,5,1,7,1,-2,1,-31,1,-13,1,-5,1
292,-7,1,11,1,18,1,-2,1,-12,1,14,1,5,1,7,1,-3,1,-32,1,-12,1,-6,1
293,-8,1,12,1,20,1,-2,1,-14,1,16,1,5,1,7,1,-3,1,-31,1,-10,1,-5,1
294,-8,1,11,1,19,1,-1,1,-13,1,15,1,5,1,6,1,-3,1,-32,1,-9,1,-5,1
295,-7,1,12,1,19,1,-2,1,-13,1,15,1,5,1,7,1,-3,1,-32,1,-7,1,-3,1
296,-6,1,12,1,18,1,-3,1,-12,1,15,1,3,1,6,1,-3,1,-31,1,-2,1,-1,1
297,-5,1,12,1,17,1,-3,1,-11,1,14,1,2,1,6,1,-3,1,-31,1,-1,1,-4,1
298,-5,1,11,1,16,1,-3,1,-10,1,13,1,2,1,7,1,-1,1,-31,1,0,1,-6,1
299,-6,1,12,1,18,1,-3,1,-12,1,15,1,4,1,10,1,0,1,-29,1,2,1,-4,1
300,-5,1,12,1,17,1,-3,1,-11,1,14,1,3,1,10,1,1,1,-28,1,3,1,-6,1
301,-4,1,12,1,16,1,-4,1,-10,1,14,1,4,1,10,1,2,1,-29,1,3,1,-7,1
302,-5,1,12,1,17,1,-3,1,-11,1,14,1,4,1,10,1,2,1,-28,1,4,1,-8,1
303,-5,1,12,1,17,1,-3,1,-11,1,14,1,3,1,8,1,2,1,-28,1,7,1,-8,1
304,-6,1,11,1,17,1,-2,1,-11,1,14,1,4,1,7,1,2,1,-28,1,8,1,-9,1
305,-7,1,12,1,19,1,-2,1,-13,1,15,1,6,1,7,1,3,1,-28,1,11,1,-8,1
306,-8,1,10,1,18,1,-1,1,-13,1,14,1,6,1,7,1,3,1,-26,1,17,1,-5,1
307,-13,1,7,1,20,1,3,1,-16,1,13,1,6,1,7,1,2,1,-25,1,21,1,-3,1
308,-11,1,10,1,21,1,0,1,-16,1,15,1,7,1,10,1,4,1,-25,1,24,1,-1,1
309,-7,1,14,1,21,1,-3,1,-14,1,17,1,7,1,12,1,7,1,-22,1,28,1,1,1
310,-4,1,14,1,18,1,-5,1,-11,1,16,1,7,1,13,1,7,1,-22,1,29,1,0,1
311,-1,1,13,1,14,1,-6,1,-7,1,13,1,7,1,13,1,7,1,-23,1,28,1,-3,1
312,-2,1,12,1,14,1,-5,1,-8,1,13,1,7,1,13,1,6,1,-24,1,28,1,-4,1
313,-2,1,12,1,14,1,-5,1,-8,1,13,1,7,1,11,1,6,1,-23,1,31,1,-5,1
314,-2,1,13,1,15,1,-5,1,-8,1,14,1,7,1,11,1,6,1,-23,1,35,1,-5,1
315,-3,1,13,1,16,1,-5,1,-9,1,14,1,8,1,12,1,7,1,-22,1,39,1,-3,1
316,-5,1,12,1,17,1,-3,1,-11,1,14,1,7,1,12,1,8,1,-20,1,46,1,1,1
317,-5,1,12,1,17,1,-3,1,-11,1,14,1,7,1,12,1,7,1,-20,1,51,1,2,1
318,-4,1,12,1,16,1,-4,1,-10,1,14,1,7,1,12,1,7,1,-20,1,54,1,2,1
319,-2,1,12,1,14,1,-5,1,-8,1,13,1,7,1,13,1,7,1,-20,1,57,1,1,1
320,-2,1,13,1,15,1,-5,1,-8,1,14,1,8,1,13,1,7,1,-20,1,59,1,0,1
321,-2,1,11,1,13,1,-4,1,-7,1,12,1,9,1,13,1,7,1,-23,1,58,1,-3,1
322,-3,1,11,1,14,1,-4,1,-8,1,12,1,10,1,12,1,6,1,-25,1,59,1,-5,1
323,-3,1,11,1,14,1,-4,1,-8,1,12,1,9,1,11,1,6,1,-24,1,62,1,-4,1
324,-2,1,11,1,13,1,-4,1,-7,1,12,1,10,1,12,1,6,1,-24,1,65,1,-5,1
325,0,1,12,1,12,1,-6,1,-6,1,12,1,10,1,12,1,6,1,-23,1,68,1,-5,1
326,-4,1,12,1,16,1,-4,1,-10,1,14,1,10,1,13,1,8,1,-20,1,74,1,0,1
327,-6,1,12,1,18,1,-3,1,-12,1,15,1,9,1,12,1,7,1,-17,1,78,1,1,1
328,-6,1,11,1,17,1,-2,1,-11,1,14,1,9,1,12,1,7,1,-19,1,79,1,0,1
329,-6,1,10,1,16,1,-2,1,-11,1,13,1,8,1,11,1,6,1,-20,1,81,1,0,1
330,-4,1,11,1,15,1,-3,1,-9,1,13,1,7,1,11,1,6,1,-21,1,81,1,0,1
331,-3,1,12,1,15,1,-4,1,-9,1,13,1,8,1,13,1,7,1,-23,1,79,1,-2,1
332,0,1,13,1,13,1,-6,1,-6,1,13,1,9,1,14,1,7,1,-23,1,79,1,-4,1
333,0,1,14,1,14,1,-7,1,-7,1,14,1,9,1,15,1,7,1,-22,1,81,1,-3,1
334,-4,1,13,1,17,1,-4,1,-10,1,15,1,11,1,16,1,8,1,-19,1,83,1,-2,1
335,-4,1,12,1,16,1,-4,1,-10,1,14,1,11,1,15,1,7,1,-20,1,85,1,-2,1
336,-4,1,11,1,15,1,-3,1,-9,1,13,1,9,1,14,1,6,1,-19,1,88,1,0,1
337,-5,1,11,1,16,1,-3,1,-10,1,13,1,8,1,13,1,5,1,-20,1,90,1,1,1
338,-6,1,11,1,17,1,-2,1,-11,1,14,1,7,1,11,1,4,1,-22,1,90,1,0,1
339,-3,1,13,1,16,1,-5,1,-9,1,14,1,5,1,10,1,3,1,-23,1,91,1,0,1
340,-5,1,14,1,19,1,-4,1,-12,1,16,1,6,1,10,1,4,1,-22,1,93,1,0,1
341,-4,1,15,1,19,1,-5,1,-11,1,17,1,7,1,11,1,3,1,-23,1,92,1,-2,1
342,-3,1,14,1,17,1,-5,1,-10,1,15,1,6,1,11,1,3,1,-25,1,91,1,-4,1
343,-2,1,14,1,16,1,-6,1,-9,1,15,1,5,1,10,1,2,1,-24,1,92,1,-4,1
344,-4,1,12,1,16,1,-4,1,-10,1,14,1,6,1,10,1,2,1,-25,1,92,1,-4,1
345,-5,1,12,1,17,1,-3,1,-11,1,14,1,7,1,10,1,2,1,-25,1,93,1,-2,1
346,-6,1,13,1,19,1,-3,1,-12,1,16,1,6,1,10,1,2,1,-23,1,97,1,2,1
347,-7,1,13,1,20,1,-3,1,-13,1,16,1,6,1,9,1,1,1,-23,1,99,1,4,1
348,-6,1,13,1,19,1,-3,1,-12,1,16,1,7,1,10,1,1,1,-24,1,98,1,3,1
349,-5,1,14,1,19,1,-4,1,-12,1,16,1,5,1,10,1,2,1,-23,1,98,1,4,1
350,-5,1,14,1,19,1,-4,1,-12,1,16,1,5,1,9,1,2,1,-22,1,99,1,3,1
351,-4,1,16,1,20,1,-6,1,-12,1,18,1,5,1,10,1,2,1,-23,1,98,1,0,1
352,-3,1,15,1,18,1,-6,1,-10,1,16,1,5,1,10,1,1,1,-25,1,95,1,-2,1
353,-2,1,16,1,18,1,-7,1,-10,1,17,1,5,1,11,1,1,1,-24,1,95,1,-3,1
354,-2,1,14,1,16,1,-6,1,-9,1,15,1,5,1,11,1,0,1,-26,1,93,1,-4,1
355,-3,1,13,1,16,1,-5,1,-9,1,14,1,5,1,10,1,0,1,-27,1,92,1,-4,1
356,-4,1,13,1,17,1,-4,1,-10,1,15,1,5,1,9,1,0,1,-26,1,94,1,-2,1
357,-5,1,13,1,18,1,-4,1,-11,1,15,1,5,1,9,1,0,1,-25,1,95,1,0,1
358,-4,1,14,1,18,1,-5,1,-11,1,16,1,6,1,9,1,0,1,-25,1,94,1,-1,1
359,-3,1,14,1,17,1,-5,1,-10,1,15,1,4,1,8,1,0,1,-25,1,95,1,-1,1
360,-3,1,16,1,19,1,-6,1,-11,1,17,1,4,1,7,1,0,1,-24,1,95,1,-2,1
361,-3,1,18,1,21,1,-7,1,-12,1,19,1,4,1,7,1,0,1,-26,1,94,1,-4,1
362,-4,1,19,1,23,1,-7,1,-13,1,21,1,3,1,7,1,0,1,-27,1,93,1,-5,1
363,-5,1,21,1,26,1,-8,1,-15,1,23,1,2,1,6,1,0,1,-26,1,94,1,-4,1
364,-5,1,22,1,27,1,-8,1,-16,1,24,1,3,1,6,1,0,1,-26,1,93,1,-4,1
365,-6,1,23,1,29,1,-8,1,-17,1,26,1,3,1,6,1,1,1,-26,1,94,1,-3,1
366,-4,1,26,1,30,1,-11,1,-17,1,28,1,1,1,5,1,0,1,-24,1,98,1,0,1
367,-2,1,28,1,30,1,-13,1,-16,1,29,1,0,1,4,1,0,1,-24,1,100,1,2,1
368,-1,1,29,1,30,1,-14,1,-15,1,29,1,0,1,4,1,0,1,-25,1,99,1,2,1
369,-1,1,31,1,32,1,-15,1,-16,1,31,1,0,1,4,1,0,1,-23,1,101,1,4,1
370,-3,1,31,1,34,1,-14,1,-18,1,32,1,-1,1,4,1,0,1,-22,1,102,1,4,1
371,-4,1,32,1,36,1,-14,1,-20,1,34,1,0,1,4,1,0,1,-23,1,101,1,2,1
372,-4,1,33,1,37,1,-14,1,-20,1,35,1,0,1,3,1,0,1,-25,1,100,1,0,1
373,-5,1,34,1,39,1,-14,1,-22,1,36,1,-1,1,2,1,-1,1,-26,1,101,1,0,1
374,-6,1,36,1,42,1,-15,1,-24,1,39,1,0,1,2,1,0,1,-25,1,103,1,0,1
375,-5,1,37,1,42,1,-16,1,-23,1,39,1,-1,1,2,1,0,1,-25,1,103,1,1,1
376,-5,1,36,1,41,1,-15,1,-23,1,38,1,-3,1,1,1,0,1,-24,1,105,1,3,1
377,-4,1,36,1,40,1,-16,1,-22,1,38,1,-3,1,1,1,-1,1,-24,1,104,1,3,1
378,-3,1,36,1,39,1,-16,1,-21,1,37,1,-3,1,1,1,-2,1,-24,1,102,1,0,1
379,-3,1,36,1,39,1,-16,1,-21,1,37,1,-3,1,1,1,-2,1,-24,1,101,1,1,1
380,-2,1,37,1,39,1,-17,1,-20,1,38,1,-4,1,1,1,-4,1,-24,1,101,1,0,1
381,-1,1,36,1,37,1,-17,1,-19,1,36,1,-4,1,1,1,-5,1,-28,1,97,1,-1,1
382,-3,1,35,1,38,1,-16,1,-20,1,36,1,-3,1,0,1,-6,1,-30,1,95,1,-2,1
383,-5,1,33,1,38,1,-14,1,-21,1,35,1,-4,1,-1,1,-8,1,-31,1,93,1,-2,1
384,-5,1,33,1,38,1,-14,1,-21,1,35,1,-4,1,0,1,-9,1,-33,1,92,1,-3,1
385,-4,1,34,1,38,1,-15,1,-21,1,36,1,-4,1,0,1,-9,1,-31,1,94,1,-1,1
386,-5,1,35,1,40,1,-15,1,-22,1,37,1,-5,1,-2,1,-9,1,-29,1,95,1,-1,1
387,-5,1,35,1,40,1,-15,1,-22,1,37,1,-6,1,-3,1,-9,1,-27,1,96,1,0,1
388,-4,1,35,1,39,1,-15,1,-21,1,37,1,-7,1,-3,1,-9,1,-28,1,95,1,-1,1
389,-3,1,36,1,39,1,-16,1,-21,1,37,1,-8,1,-4,1,-10,1,-28,1,95,1,0,1
390,-4,1,38,1,42,1,-17,1,-23,1,40,1,-8,1,-4,1,-11,1,-26,1,95,1,1,1
391,-4,1,38,1,42,1,-17,1,-23,1,40,1,-7,1,-3,1,-10,1,-27,1,94,1,0,1
392,-5,1,38,1,43,1,-16,1,-24,1,40,1,-6,1,-2,1,-9,1,-28,1,92,1,0,1
393,-3,1,39,1,42,1,-18,1,-22,1,40,1,-6,1,-2,1,-8,1,-26,1,93,1,0,1
394,-2,1,40,1,42,1,-19,1,-22,1,41,1,-6,1,-2,1,-9,1,-26,1,91,1,-1,1
395,-2,1,39,1,41,1,-18,1,-21,1,40,1,-6,1,-2,1,-9,1,-26,1,91,1,-2,1
396,-3,1,39,1,42,1,-18,1,-22,1,40,1,-7,1,-3,1,-8,1,-25,1,94,1,0,1
397,-3,1,39,1,42,1,-18,1,-22,1,40,1,-8,1,-3,1,-8,1,-23,1,95,1,1,1
398,-2,1,38,1,40,1,-18,1,-21,1,39,1,-8,1,-3,1,-9,1,-24,1,92,1,0,1
399,-4,1,38,1,42,1,-17,1,-23,1,40,1,-9,1,-4,1,-8,1,-23,1,93,1,2,1
400,-3,1,39,1,42,1,-18,1,-22,1,40,1,-7,1,-2,1,-7,1,-22,1,94,1,3,1
401,1,1,39,1,38,1,-20,1,-18,1,39,1,-7,1,-1,1,-8,1,-25,1,92,1,2,1
402,-1,1,37,1,38,1,-18,1,-19,1,37,1,-5,1,-1,1,-8,1,-25,1,90,1,0,1
403,-3,1,35,1,38,1,-16,1,-20,1,36,1,-5,1,-1,1,-8,1,-26,1,88,1,0,1
404,-4,1,33,1,37,1,-14,1,-20,1,35,1,-4,1,1,1,-7,1,-25,1,86,1,-2,1
405,-5,1,30,1,35,1,-12,1,-20,1,32,1,-2,1,3,1,-7,1,-25,1,86,1,-2,1
406,-4,1,28,1,32,1,-12,1,-18,1,30,1,-2,1,2,1,-8,1,-24,1,85,1,-2,1
407,-5,1,28,1,33,1,-11,1,-19,1,30,1,0,1,3,1,-8,1,-24,1,85,1,-1,1
408,-5,1,26,1,31,1,-10,1,-18,1,28,1,1,1,3,1,-8,1,-25,1,83,1,-2,1
409,-5,1,24,1,29,1,-9,1,-17,1,26,1,1,1,3,1,-7,1,-25,1,83,1,-2,1
410,-4,1,22,1,26,1,-9,1,-15,1,24,1,1,1,3,1,-7,1,-26,1,82,1,-2,1
411,-4,1,19,1,23,1,-7,1,-13,1,21,1,3,1,4,1,-7,1,-28,1,78,1,-4,1
412,-4,1,16,1,20,1,-6,1,-12,1,18,1,5,1,6,1,-7,1,-29,1,75,1,-6,1
413,-5,1,15,1,20,1,-5,1,-12,1,17,1,4,1,6,1,-6,1,-29,1,75,1,-6,1
414,-6,1,13,1,19,1,-3,1,-12,1,16,1,4,1,6,1,-7,1,-28,1,73,1,-7,1
415,-7,1,12,1,19,1,-2,1,-13,1,15,1,6,1,8,1,-7,1,-27,1,72,1,-6,1
416,-9,1,11,1,20,1,-1,1,-14,1,15,1,5,1,8,1,-8,1,-25,1,73,1,-6,1
417,-8,1,9,1,17,1,0,1,-12,1,13,1,6,1,9,1,-8,1,-25,1,74,1,-6,1
418,-9,1,9,1,18,1,0,1,-13,1,13,1,7,1,10,1,-8,1,-26,1,72,1,-7,1
419,-8,1,9,1,17,1,0,1,-12,1,13,1,5,1,9,1,-8,1,-24,1,72,1,-5,1
420,-6,1,10,1,16,1,-2,1,-11,1,13,1,5,1,6,1,-8,1,-25,1,70,1,-6,1
421,-4,1,11,1,15,1,-3,1,-9,1,13,1,5,1,6,1,-8,1,-26,1,68,1,-7,1
422,-5,1,12,1,17,1,-3,1,-11,1,14,1,6,1,6,1,-8,1,-27,1,67,1,-7,1
423,-5,1,10,1,15,1,-2,1,-10,1,12,1,5,1,5,1,-8,1,-26,1,67,1,-7,1
424,-4,1,10,1,14,1,-3,1,-9,1,12,1,5,1,5,1,-10,1,-26,1,65,1,-9,1
425,-7,1,10,1,17,1,-1,1,-12,1,13,1,6,1,6,1,-9,1,-25,1,66,1,-8,1
426,-11,1,9,1,20,1,1,1,-15,1,14,1,6,1,6,1,-9,1,-21,1,68,1,-5,1
427,-9,1,8,1,17,1,0,1,-13,1,12,1,6,1,6,1,-9,1,-21,1,68,1,-5,1
428,-7,1,8,1,15,1,0,1,-11,1,11,1,7,1,7,1,-8,1,-21,1,68,1,-6,1
429,-6,1,8,1,14,1,-1,1,-10,1,11,1,7,1,8,1,-8,1,-21,1,68,1,-5,1
430,-6,1,7,1,13,1,0,1,-9,1,10,1,6,1,8,1,-9,1,-22,1,67,1,-6,1
431,-5,1,8,1,13,1,-1,1,-9,1,10,1,7,1,10,1,-9,1,-24,1,64,1,-9,1
432,-4,1,9,1,13,1,-2,1,-8,1,11,1,7,1,9,1,-9,1,-26,1,62,1,-10,1
433,-5,1,8,1,13,1,-1,1,-9,1,10,1,7,1,8,1,-8,1,-25,1,62,1,-10,1
434,-4,1,8,1,12,1,-2,1,-8,1,10,1,8,1,8,1,-8,1,-25,1,60,1,-11,1
435,-4,1,8,1,12,1,-2,1,-8,1,10,1,8,1,8,1,-8,1,-26,1,61,1,-10,1
436,-4,1,8,1,12,1,-2,1,-8,1,10,1,7,1,8,1,-8,1,-23,1,64,1,-8,1
437,-5,1,8,1,13,1,-1,1,-9,1,10,1,7,1,8,1,-8,1,-22,1,65,1,-6,1
438,-6,1,5,1,11,1,0,1,-8,1,8,1,8,1,9,1,-8,1,-22,1,66,1,-7,1
439,-6,1,5,1,11,1,0,1,-8,1,8,1,7,1,9,1,-8,1,-21,1,66,1,-5,1
440,-6,1,5,1,11,1,0,1,-8,1,8,1,8,1,9,1,-8,1,-21,1,65,1,-4,1
441,-4,1,4,1,8,1,0,1,-6,1,6,1,9,1,10,1,-8,1,-22,1,62,1,-6,1
442,-3,1,5,1,8,1,-1,1,-5,1,6,1,9,1,10,1,-8,1,-24,1,60,1,-7,1
443,-8,1,5,1,13,1,1,1,-10,1,9,1,9,1,12,1,-7,1,-23,1,60,1,-5,1
444,-9,1,5,1,14,1,2,1,-11,1,9,1,12,1,12,1,-6,1,-25,1,57,1,-8,1
445,-10,1,2,1,12,1,4,1,-11,1,7,1,15,1,13,1,-3,1,-26,1,56,1,-10,1
446,-11,1,-2,1,9,1,6,1,-10,1,3,1,19,1,16,1,0,1,-27,1,54,1,-12,1
447,-14,1,-6,1,8,1,10,1,-11,1,1,1,28,1,20,1,4,1,-31,1,50,1,-17,1
448,-16,1,-12,1,4,1,14,1,-10,1,-4,1,38,1,25,1,10,1,-36,1,43,1,-23,1
449,-18,1,-17,1,1,1,17,1,-10,1,-8,1,48,1,31,1,20,1,-37,1,37,1,-28,1
450,-18,1,-16,1,2,1,17,1,-10,1,-7,1,59,1,41,1,33,1,-34,1,34,1,-29,1
451,-16,1,-14,1,2,1,15,1,-9,1,-6,1,67,1,50,1,48,1,-28,1,33,1,-31,1
452,-16,1,-7,1,9,1,11,1,-13,1,1,1,68,1,55,1,63,1,-16,1,37,1,-27,1
453,-13,1,2,1,15,1,5,1,-14,1,8,1,63,1,58,1,75,1,0,1,47,1,-19,1
454,-7,1,15,1,22,1,-4,1,-14,1,18,1,54,1,60,1,90,1,23,1,63,1,-9,1
455,-4,1,30,1,34,1,-13,1,-19,1,32,1,41,1,62,1,107,1,54,1,85,1,7,1
456,6,1,44,1,38,1,-25,1,-16,1,41,1,24,1,61,1,123,1,91,1,113,1,26,1
457,15,1,58,1,43,1,-36,1,-14,1,51,1,7,1,61,1,139,1,131,1,144,1,47,1
458,23,1,69,1,46,1,-46,1,-11,1,58,1,-9,1,60,1,153,1,171,1,175,1,68,1
459,32,1,82,1,50,1,-57,1,-9,1,66,1,-29,1,56,1,162,1,209,1,206,1,91,1
460,40,1,96,1,56,1,-68,1,-8,1,76,1,-47,1,49,1,166,1,243,1,236,1,113,1
461,47,1,114,1,67,1,-80,1,-10,1,91,1,-64,1,38,1,163,1,270,1,259,1,132,1
462,47,1,130,1,83,1,-88,1,-18,1,107,1,-79,1,26,1,153,1,289,1,281,1,149,1
463,43,1,143,1,100,1,-93,1,-28,1,122,1,-91,1,11,1,135,1,299,1,296,1,161,1
464,40,1,141,1,101,1,-90,1,-30,1,121,1,-95,1,0,1,109,1,294,1,300,1,162,1
465,39,1,123,1,84,1,-81,1,-22,1,104,1,-92,1,-7,1,80,1,275,1,294,1,156,1
466,37,1,96,1,59,1,-66,1,-11,1,78,1,-86,1,-11,1,48,1,244,1,278,1,145,1
467,36,1,65,1,29,1,-50,1,4,1,47,1,-77,1,-16,1,8,1,196,1,252,1,126,1
468,32,1,37,1,5,1,-34,1,14,1,21,1,-69,1,-22,1,-31,1,141,1,220,1,104,1
469,26,1,16,1,-10,1,-21,1,18,1,3,1,-60,1,-24,1,-58,1,93,1,188,1,85,1
470,20,1,-2,1,-22,1,-9,1,21,1,-12,1,-49,1,-22,1,-73,1,51,1,157,1,65,1
471,15,1,-15,1,-30,1,0,1,22,1,-22,1,-38,1,-18,1,-80,1,16,1,126,1,45,1
472,11,1,-25,1,-36,1,7,1,23,1,-30,1,-29,1,-13,1,-80,1,-10,1,101,1,29,1
473,8,1,-31,1,-39,1,11,1,23,1,-35,1,-21,1,-7,1,-75,1,-25,1,83,1,15,1
474,4,1,-36,1,-40,1,16,1,22,1,-38,1,-11,1,0,1,-68,1,-36,1,67,1,3,1
475,-1,1,-39,1,-38,1,20,1,18,1,-39,1,-2,1,5,1,-60,1,-42,1,58,1,-3,1
476,-3,1,-40,1,-37,1,21,1,17,1,-39,1,2,1,8,1,-50,1,-41,1,56,1,-4,1
477,-4,1,-38,1,-34,1,21,1,15,1,-36,1,6,1,11,1,-42,1,-39,1,56,1,-5,1
478,-4,1,-36,1,-32,1,20,1,14,1,-34,1,10,1,14,1,-34,1,-36,1,56,1,-6,1
479,-5,1,-34,1,-29,1,19,1,12,1,-32,1,11,1,16,1,-28,1,-33,1,58,1,-3,1
480,-7,1,-33,1,-26,1,20,1,9,1,-30,1,12,1,16,1,-24,1,-31,1,58,1,-4,1
481,-8,1,-32,1,-24,1,20,1,8,1,-28,1,14,1,17,1,-20,1,-31,1,56,1,-6,1
482,-10,1,-30,1,-20,1,20,1,5,1,-25,1,16,1,17,1,-17,1,-31,1,54,1,-10,1
483,-11,1,-29,1,-18,1,20,1,3,1,-24,1,17,1,18,1,-13,1,-30,1,52,1,-11,1
484,-10,1,-26,1,-16,1,18,1,3,1,-21,1,19,1,19,1,-11,1,-30,1,51,1,-15,1
485,-11,1,-22,1,-11,1,16,1,0,1,-17,1,20,1,19,1,-8,1,-28,1,51,1,-15,1
486,-12,1,-20,1,-8,1,16,1,-2,1,-14,1,18,1,16,1,-8,1,-26,1,53,1,-15,1
487,-11,1,-17,1,-6,1,14,1,-3,1,-12,1,17,1,13,1,-9,1,-25,1,55,1,-16,1
488,-8,1,-16,1,-8,1,12,1,0,1,-12,1,16,1,12,1,-9,1,-25,1,55,1,-16,1
489,-9,1,-14,1,-5,1,11,1,-2,1,-10,1,15,1,11,1,-9,1,-23,1,59,1,-13,1
490,-10,1,-12,1,-2,1,11,1,-4,1,-7,1,16,1,11,1,-8,1,-21,1,60,1,-12,1
491,-12,1,-15,1,-3,1,13,1,-5,1,-9,1,16,1,12,1,-9,1,-22,1,59,1,-14,1
492,-13,1,-17,1,-4,1,15,1,-5,1,-11,1,16,1,12,1,-10,1,-24,1,58,1,-15,1
493,-12,1,-15,1,-3,1,13,1,-5,1,-9,1,15,1,13,1,-10,1,-24,1,58,1,-16,1
494,-11,1,-14,1,-3,1,12,1,-4,1,-9,1,15,1,14,1,-11,1,-27,1,57,1,-19,1
495,-10,1,-13,1,-3,1,11,1,-4,1,-8,1,16,1,15,1,-11,1,-28,1,56,1,-20,1
496,-10,1,-13,1,-3,1,11,1,-4,1,-8,1,15,1,13,1,-11,1,-28,1,59,1,-19,1
497,-10,1,-12,1,-2,1,11,1,-4,1,-7,1,15,1,12,1,-12,1,-29,1,60,1,-20,1
498,-9,1,-12,1,-3,1,10,1,-3,1,-8,1,16,1,12,1,-11,1,-27,1,62,1,-20,1
499,-9,1,-12,1,-3,1,10,1,-3,1,-8,1,14,1,10,1,-11,1,-26,1,62,1,-19,1
500,-10,1,-13,1,-3,1,11,1,-4,1,-8,1,13,1,8,1,-12,1,-26,1,63,1,-19,1
501,-10,1,-16,1,-6,1,13,1,-2,1,-11,1,12,1,7,1,-14,1,-28,1,59,1,-21,1
502,-13,1,-18,1,-5,1,15,1,-4,1,-12,1,11,1,8,1,-14,1,-30,1,58,1,-22,1
503,-12,1,-16,1,-4,1,14,1,-4,1,-10,1,12,1,10,1,-13,1,-29,1,59,1,-20,1
504,-11,1,-15,1,-4,1,13,1,-4,1,-10,1,14,1,12,1,-13,1,-31,1,58,1,-21,1
505,-11,1,-14,1,-3,1,12,1,-4,1,-9,1,14,1,12,1,-13,1,-32,1,57,1,-22,1
506,-12,1,-13,1,-1,1,12,1,-6,1,-7,1,14,1,12,1,-13,1,-31,1,57,1,-21,1
507,-12,1,-13,1,-1,1,12,1,-6,1,-7,1,15,1,12,1,-12,1,-31,1,59,1,-20,1
508,-12,1,-14,1,-2,1,13,1,-5,1,-8,1,16,1,13,1,-12,1,-31,1,58,1,-20,1
509,-11,1,-13,1,-2,1,12,1,-5,1,-8,1,16,1,12,1,-11,1,-29,1,60,1,-18,1
510,-6,1,-12,1,-6,1,9,1,0,1,-9,1,15,1,12,1,-12,1,-30,1,59,1,-19,1
511,-6,1,-12,1,-6,1,9,1,0,1,-9,1,16,1,12,1,-12,1,-30,1,59,1,-21,1
512,-9,1,-12,1,-3,1,10,1,-3,1,-8,1,16,1,12,1,-11,1,-30,1,60,1,-20,1
513,-10,1,-12,1,-2,1,11,1,-4,1,-7,1,16,1,12,1,-10,1,-29,1,62,1,-19,1
514,-12,1,-14,1,-2,1,13,1,-5,1,-8,1,16,1,11,1,-11,1,-32,1,59,1,-23,1
515,-12,1,-15,1,-3,1,13,1,-5,1,-9,1,16,1,11,1,-11,1,-33,1,57,1,-24,1
516,-12,1,-15,1,-3,1,13,1,-5,1,-9,1,15,1,11,1,-12,1,-32,1,57,1,-23,1
517,-11,1,-15,1,-4,1,13,1,-4,1,-10,1,15,1,12,1,-12,1,-32,1,56,1,-23,1
518,-12,1,-14,1,-2,1,13,1,-5,1,-8,1,16,1,12,1,-12,1,-32,1,54,1,-25,1
519,-12,1,-13,1,-1,1,12,1,-6,1,-7,1,15,1,13,1,-12,1,-31,1,56,1,-23,1
520,-12,1,-13,1,-1,1,12,1,-6,1,-7,1,15,1,13,1,-12,1,-31,1,56,1,-22,1
521,-14,1,-14,1,0,1,14,1,-7,1,-7,1,16,1,13,1,-12,1,-32,1,56,1,-23,1
522,-12,1,-14,1,-2,1,13,1,-5,1,-8,1,15,1,12,1,-13,1,-34,1,54,1,-23,1
523,-12,1,-15,1,-3,1,13,1,-5,1,-9,1,14,1,11,1,-13,1,-33,1,55,1,-22,1
524,-14,1,-17,1,-3,1,15,1,-6,1,-10,1,16,1,12,1,-12,1,-34,1,54,1,-24,1
525,-13,1,-18,1,-5,1,15,1,-4,1,-12,1,17,1,12,1,-11,1,-34,1,55,1,-24,1
526,-14,1,-17,1,-3,1,15,1,-6,1,-10,1,17,1,11,1,-11,1,-33,1,56,1,-23,1
527,-15,1,-18,1,-3,1,16,1,-6,1,-11,1,17,1,10,1,-12,1,-33,1,56,1,-23,1
528,-17,1,-20,1,-3,1,18,1,-7,1,-12,1,16,1,10,1,-13,1,-34,1,54,1,-25,1
529,-14,1,-19,1,-5,1,16,1,-5,1,-12,1,15,1,9,1,-14,1,-33,1,54,1,-26,1
530,-14,1,-18,1,-4,1,16,1,-5,1,-11,1,16,1,10,1,-13,1,-31,1,55,1,-26,1
531,-17,1,-18,1,-1,1,17,1,-8,1,-10,1,17,1,11,1,-12,1,-31,1,54,1,-26,1
532,-14,1,-17,1,-3,1,15,1,-6,1,-10,1,16,1,11,1,-12,1,-31,1,53,1,-26,1
533,-11,1,-17,1,-6,1,14,1,-3,1,-12,1,15,1,8,1,-14,1,-31,1,53,1,-26,1
534,-17,1,-18,1,-1,1,17,1,-8,1,-10,1,18,1,10,1,-12,1,-30,1,53,1,-25,1
535,-17,1,-17,1,0,1,17,1,-9,1,-9,1,18,1,10,1,-12,1,-32,1,53,1,-24,1
536,-13,1,-17,1,-4,1,15,1,-5,1,-11,1,17,1,10,1,-11,1,-30,1,55,1,-23,1
537,-15,1,-17,1,-2,1,16,1,-7,1,-10,1,16,1,10,1,-11,1,-30,1,56,1,-23,1
538,-14,1,-19,1,-5,1,16,1,-5,1,-12,1,16,1,10,1,-11,1,-32,1,54,1,-27,1
539,-12,1,-20,1,-8,1,16,1,-2,1,-14,1,15,1,9,1,-10,1,-31,1,55,1,-27,1
540,-15,1,-19,1,-4,1,17,1,-6,1,-12,1,16,1,10,1,-9,1,-30,1,58,1,-26,1
541,-16,1,-19,1,-3,1,17,1,-7,1,-11,1,17,1,10,1,-9,1,-31,1,57,1,-26,1
542,-17,1,-19,1,-2,1,18,1,-8,1,-11,1,17,1,10,1,-9,1,-31,1,56,1,-25,1
543,-17,1,-17,1,0,1,17,1,-9,1,-9,1,17,1,10,1,-9,1,-29,1,57,1,-23,1
544,-16,1,-16,1,0,1,16,1,-8,1,-8,1,17,1,10,1,-10,1,-30,1,56,1,-23,1
545,-17,1,-17,1,0,1,17,1,-9,1,-9,1,19,1,11,1,-8,1,-30,1,57,1,-22,1
546,-17,1,-17,1,0,1,17,1,-9,1,-9,1,19,1,12,1,-6,1,-25,1,58,1,-21,1
547,-15,1,-17,1,-2,1,16,1,-7,1,-10,1,19,1,13,1,-4,1,-23,1,60,1,-21,1
548,-16,1,-18,1,-2,1,17,1,-7,1,-10,1,19,1,14,1,-2,1,-22,1,59,1,-23,1
549,-17,1,-18,1,-1,1,17,1,-8,1,-10,1,18,1,14,1,-1,1,-19,1,60,1,-22,1
550,-17,1,-17,1,0,1,17,1,-9,1,-9,1,18,1,14,1,-1,1,-19,1,61,1,-21,1
551,-17,1,-16,1,1,1,16,1,-9,1,-8,1,19,1,14,1,-1,1,-20,1,59,1,-22,1
552,-17,1,-15,1,2,1,16,1,-10,1,-7,1,19,1,14,1,-2,1,-21,1,60,1,-21,1
553,-19,1,-15,1,4,1,17,1,-12,1,-6,1,19,1,14,1,-2,1,-21,1,61,1,-21,1
554,-17,1,-15,1,2,1,16,1,-10,1,-7,1,19,1,14,1,-1,1,-22,1,59,1,-23,1
555,-17,1,-15,1,2,1,16,1,-10,1,-7,1,19,1,14,1,0,1,-22,1,60,1,-23,1
556,-18,1,-15,1,3,1,16,1,-11,1,-6,1,19,1,13,1,2,1,-20,1,64,1,-21,1
557,-17,1,-14,1,3,1,15,1,-10,1,-6,1,19,1,14,1,4,1,-17,1,66,1,-19,1
558,-15,1,-12,1,3,1,13,1,-9,1,-5,1,20,1,15,1,5,1,-16,1,67,1,-19,1
559,-16,1,-11,1,5,1,13,1,-11,1,-3,1,19,1,15,1,8,1,-11,1,70,1,-16,1
560,-15,1,-11,1,4,1,13,1,-10,1,-4,1,19,1,14,1,9,1,-8,1,70,1,-16,1
561,-16,1,-10,1,6,1,13,1,-11,1,-2,1,20,1,16,1,11,1,-6,1,68,1,-18,1
562,-15,1,-9,1,6,1,12,1,-11,1,-2,1,21,1,17,1,11,1,-5,1,67,1,-20,1
563,-18,1,-10,1,8,1,14,1,-13,1,-1,1,20,1,17,1,13,1,-4,1,67,1,-19,1
564,-18,1,-8,1,10,1,13,1,-14,1,1,1,21,1,20,1,13,1,-4,1,66,1,-20,1
565,-16,1,-5,1,11,1,10,1,-14,1,3,1,22,1,21,1,16,1,-2,1,68,1,-18,1
566,-16,1,-4,1,12,1,10,1,-14,1,4,1,22,1,20,1,18,1,-1,1,72,1,-16,1
567,-17,1,-4,1,13,1,10,1,-15,1,4,1,21,1,21,1,20,1,1,1,73,1,-15,1
568,-16,1,-5,1,11,1,10,1,-14,1,3,1,20,1,20,1,21,1,1,1,74,1,-15,1
569,-16,1,-3,1,13,1,9,1,-15,1,5,1,19,1,20,1,23,1,5,1,76,1,-14,1
570,-16,1,0,1,16,1,8,1,-16,1,8,1,20,1,21,1,25,1,8,1,78,1,-13,1
571,-15,1,2,1,17,1,6,1,-16,1,9,1,22,1,23,1,27,1,10,1,78,1,-14,1
572,-14,1,3,1,17,1,5,1,-15,1,10,1,22,1,24,1,28,1,12,1,79,1,-14,1
573,-14,1,4,1,18,1,5,1,-16,1,11,1,22,1,23,1,28,1,14,1,78,1,-13,1
574,-15,1,4,1,19,1,5,1,-17,1,11,1,22,1,23,1,29,1,15,1,78,1,-15,1
575,-15,1,5,1,20,1,5,1,-17,1,12,1,21,1,23,1,31,1,19,1,80,1,-12,1
576,-16,1,6,1,22,1,5,1,-19,1,14,1,20,1,22,1,33,1,23,1,84,1,-9,1
577,-16,1,7,1,23,1,4,1,-19,1,15,1,20,1,22,1,35,1,26,1,87,1,-8,1
578,-15,1,8,1,23,1,3,1,-19,1,15,1,20,1,23,1,37,1,28,1,87,1,-8,1
579,-14,1,9,1,23,1,2,1,-18,1,16,1,19,1,23,1,39,1,32,1,89,1,-8,1
580,-14,1,10,1,24,1,2,1,-19,1,17,1,19,1,23,1,40,1,35,1,90,1,-8,1
581,-13,1,12,1,25,1,0,1,-19,1,18,1,20,1,24,1,42,1,36,1,90,1,-8,1
582,-11,1,14,1,25,1,-1,1,-18,1,19,1,20,1,23,1,44,1,38,1,90,1,-9,1
583,-12,1,15,1,27,1,-1,1,-19,1,21,1,20,1,23,1,46,1,42,1,92,1,-9,1
584,-12,1,16,1,28,1,-2,1,-20,1,22,1,21,1,25,1,48,1,42,1,91,1,-10,1
585,-12,1,16,1,28,1,-2,1,-20,1,22,1,20,1,26,1,50,1,44,1,93,1,-8,1
586,-14,1,17,1,31,1,-1,1,-22,1,24,1,19,1,25,1,50,1,47,1,95,1,-6,1
587,-13,1,18,1,31,1,-2,1,-22,1,24,1,19,1,26,1,50,1,48,1,97,1,-5,1
588,-12,1,19,1,31,1,-3,1,-21,1,25,1,19,1,26,1,51,1,49,1,98,1,-4,1
589,-10,1,22,1,32,1,-6,1,-21,1,27,1,18,1,25,1,51,1,51,1,100,1,-2,1
590,-9,1,24,1,33,1,-7,1,-21,1,28,1,19,1,26,1,53,1,53,1,102,1,0,1
591,-8,1,26,1,34,1,-9,1,-21,1,30,1,20,1,26,1,54,1,53,1,102,1,0,1
592,-8,1,27,1,35,1,-9,1,-21,1,31,1,19,1,25,1,54,1,51,1,102,1,0,1
593,-9,1,27,1,36,1,-9,1,-22,1,31,1,19,1,25,1,54,1,53,1,103,1,0,1
594,-8,1,27,1,35,1,-9,1,-21,1,31,1,19,1,26,1,53,1,53,1,102,1,-1,1
595,-7,1,28,1,35,1,-10,1,-21,1,31,1,17,1,24,1,52,1,54,1,103,1,0,1
596,-5,1,30,1,35,1,-12,1,-20,1,32,1,14,1,22,1,49,1,54,1,104,1,1,1
597,-4,1,29,1,33,1,-12,1,-18,1,31,1,14,1,22,1,47,1,53,1,104,1,0,1
598,-10,1,29,1,39,1,-9,1,-24,1,34,1,16,1,23,1,45,1,53,1,105,1,2,1
599,-13,1,27,1,40,1,-7,1,-26,1,33,1,14,1,21,1,43,1,54,1,106,1,4,1
600,-12,1,28,1,40,1,-8,1,-26,1,34,1,14,1,20,1,40,1,54,1,105,1,5,1
601,-10,1,29,1,39,1,-9,1,-24,1,34,1,13,1,20,1,39,1,53,1,104,1,5,1
602,-10,1,28,1,38,1,-9,1,-24,1,33,1,13,1,19,1,37,1,52,1,103,1,5,1
603,-10,1,26,1,36,1,-8,1,-23,1,31,1,11,1,18,1,34,1,52,1,103,1,4,1
604,-11,1,25,1,36,1,-7,1,-23,1,30,1,11,1,17,1,32,1,50,1,101,1,3,1
605,-11,1,24,1,35,1,-6,1,-23,1,29,1,11,1,17,1,30,1,49,1,100,1,3,1
606,-9,1,24,1,33,1,-7,1,-21,1,28,1,10,1,16,1,28,1,49,1,100,1,4,1
607,-7,1,23,1,30,1,-8,1,-18,1,26,1,9,1,14,1,25,1,47,1,99,1,3,1
608,-9,1,22,1,31,1,-6,1,-20,1,26,1,10,1,14,1,23,1,46,1,97,1,0,1
609,-11,1,22,1,33,1,-5,1,-22,1,27,1,7,1,12,1,21,1,45,1,96,1,0,1
610,-10,1,23,1,33,1,-6,1,-21,1,28,1,7,1,12,1,19,1,42,1,94,1,-2,1
611,-9,1,22,1,31,1,-6,1,-20,1,26,1,6,1,11,1,17,1,38,1,93,1,-4,1
612,-8,1,21,1,29,1,-6,1,-18,1,25,1,5,1,12,1,16,1,36,1,93,1,-3,1
613,-9,1,20,1,29,1,-5,1,-19,1,24,1,5,1,13,1,16,1,36,1,96,1,-1,1
614,-8,1,19,1,27,1,-5,1,-17,1,23,1,5,1,13,1,13,1,35,1,95,1,-1,1
615,-10,1,19,1,29,1,-4,1,-19,1,24,1,5,1,13,1,13,1,37,1,97,1,2,1
616,-12,1,19,1,31,1,-3,1,-21,1,25,1,6,1,13,1,13,1,39,1,98,1,4,1
617,-13,1,18,1,31,1,-2,1,-22,1,24,1,7,1,12,1,11,1,39,1,98,1,3,1
618,-12,1,17,1,29,1,-2,1,-20,1,23,1,7,1,10,1,9,1,38,1,96,1,0,1
619,-12,1,16,1,28,1,-2,1,-20,1,22,1,5,1,7,1,8,1,37,1,96,1,-1,1
620,-11,1,15,1,26,1,-2,1,-18,1,20,1,4,1,7,1,7,1,35,1,93,1,-3,1
621,-11,1,15,1,26,1,-2,1,-18,1,20,1,6,1,8,1,8,1,33,1,92,1,-5,1
622,-10,1,16,1,26,1,-3,1,-18,1,21,1,5,1,9,1,8,1,32,1,93,1,-5,1
623,-10,1,15,1,25,1,-2,1,-17,1,20,1,5,1,10,1,10,1,33,1,94,1,-4,1
624,-9,1,14,1,23,1,-2,1,-16,1,18,1,6,1,10,1,9,1,32,1,93,1,-4,1
625,-11,1,14,1,25,1,-1,1,-18,1,19,1,6,1,10,1,8,1,32,1,94,1,-3,1
626,-12,1,13,1,25,1,0,1,-18,1,19,1,5,1,9,1,6,1,34,1,94,1,-3,1
627,-12,1,14,1,26,1,-1,1,-19,1,20,1,5,1,9,1,5,1,34,1,93,1,-3,1
628,-13,1,13,1,26,1,0,1,-19,1,19,1,6,1,8,1,5,1,33,1,91,1,-6,1
629,-13,1,13,1,26,1,0,1,-19,1,19,1,4,1,7,1,4,1,34,1,92,1,-5,1
630,-12,1,13,1,25,1,0,1,-18,1,19,1,4,1,7,1,4,1,32,1,91,1,-6,1
631,-10,1,12,1,22,1,-1,1,-16,1,17,1,4,1,8,1,4,1,30,1,91,1,-7,1
632,-9,1,12,1,21,1,-1,1,-15,1,16,1,4,1,7,1,5,1,30,1,91,1,-7,1
633,-9,1,13,1,22,1,-2,1,-15,1,17,1,5,1,8,1,6,1,30,1,93,1,-6,1
634,-9,1,11,1,20,1,-1,1,-14,1,15,1,6,1,8,1,6,1,29,1,92,1,-7,1
635,-11,1,10,1,21,1,0,1,-16,1,15,1,6,1,8,1,5,1,29,1,91,1,-6,1
636,-9,1,11,1,20,1,-1,1,-14,1,15,1,6,1,8,1,5,1,30,1,92,1,-4,1
637,-9,1,12,1,21,1,-1,1,-15,1,16,1,6,1,9,1,4,1,29,1,91,1,-2,1
638,-9,1,12,1,21,1,-1,1,-15,1,16,1,6,1,11,1,3,1,26,1,91,1,-3,1
639,-10,1,11,1,21,1,0,1,-15,1,16,1,4,1,11,1,3,1,28,1,92,1,-2,1
640,-8,1,12,1,20,1,-2,1,-14,1,16,1,5,1,12,1,4,1,27,1,92,1,-6,1
641,-8,1,12,1,20,1,-2,1,-14,1,16,1,7,1,13,1,5,1,25,1,91,1,-10,1
642,-9,1,11,1,20,1,-1,1,-14,1,15,1,8,1,13,1,5,1,24,1,91,1,-10,1
643,-9,1,11,1,20,1,-1,1,-14,1,15,1,7,1,12,1,5,1,23,1,91,1,-10,1
644,-8,1,10,1,18,1,-1,1,-13,1,14,1,8,1,10,1,4,1,20,1,87,1,-13,1
645,-9,1,9,1,18,1,0,1,-13,1,13,1,8,1,9,1,4,1,19,1,85,1,-13,1
646,-8,1,9,1,17,1,0,1,-12,1,13,1,7,1,9,1,3,1,18,1,84,1,-12,1
647,-10,1,8,1,18,1,1,1,-14,1,13,1,7,1,9,1,3,1,18,1,83,1,-10,1
648,-8,1,6,1,14,1,1,1,-11,1,10,1,7,1,9,1,2,1,16,1,81,1,-11,1
649,-10,1,6,1,16,1,2,1,-13,1,11,1,6,1,8,1,3,1,18,1,83,1,-8,1
650,-11,1,8,1,19,1,1,1,-15,1,13,1,6,1,8,1,2,1,17,1,84,1,-8,1
651,-10,1,9,1,19,1,0,1,-14,1,14,1,7,1,8,1,2,1,16,1,83,1,-9,1
652,-9,1,10,1,19,1,0,1,-14,1,14,1,7,1,9,1,2,1,15,1,83,1,-10,1
653,-10,1,10,1,20,1,0,1,-15,1,15,1,8,1,9,1,2,1,15,1,83,1,-10,1
654,-14,1,8,1,22,1,3,1,-18,1,15,1,11,1,11,1,4,1,16,1,82,1,-11,1
655,-13,1,8,1,21,1,2,1,-17,1,14,1,11,1,10,1,4,1,16,1,80,1,-11,1
656,-13,1,7,1,20,1,3,1,-16,1,13,1,11,1,10,1,4,1,17,1,80,1,-11,1
657,-13,1,7,1,20,1,3,1,-16,1,13,1,12,1,11,1,5,1,18,1,82,1,-10,1
658,-11,1,9,1,20,1,1,1,-15,1,14,1,12,1,10,1,4,1,16,1,81,1,-11,1
659,-12,1,9,1,21,1,1,1,-16,1,15,1,10,1,9,1,4,1,18,1,83,1,-9,1
660,-11,1,9,1,20,1,1,1,-15,1,14,1,10,1,9,1,4,1,18,1,84,1,-9,1
661,-12,1,9,1,21,1,1,1,-16,1,15,1,12,1,11,1,4,1,18,1,83,1,-10,1
662,-13,1,8,1,21,1,2,1,-17,1,14,1,11,1,11,1,5,1,19,1,83,1,-9,1
663,-14,1,7,1,21,1,3,1,-17,1,14,1,11,1,11,1,6,1,18,1,85,1,-9,1
664,-15,1,7,1,22,1,4,1,-18,1,14,1,12,1,12,1,6,1,16,1,82,1,-11,1
665,-15,1,7,1,22,1,4,1,-18,1,14,1,11,1,12,1,7,1,15,1,81,1,-12,1
666,-15,1,7,1,22,1,4,1,-18,1,14,1,11,1,12,1,7,1,15,1,80,1,-12,1
667,-14,1,7,1,21,1,3,1,-17,1,14,1,11,1,12,1,6,1,15,1,79,1,-12,1
668,-13,1,6,1,19,1,3,1,-16,1,12,1,11,1,12,1,6,1,13,1,77,1,-13,1
669,-12,1,6,1,18,1,3,1,-15,1,12,1,10,1,11,1,6,1,15,1,80,1,-11,1
670,-11,1,7,1,18,1,2,1,-14,1,12,1,10,1,12,1,6,1,16,1,81,1,-11,1
671,-11,1,7,1,18,1,2,1,-14,1,12,1,12,1,13,1,7,1,16,1,82,1,-12,1
672,-13,1,7,1,20,1,3,1,-16,1,13,1,11,1,13,1,7,1,15,1,82,1,-13,1
673,-15,1,9,1,24,1,3,1,-19,1,16,1,11,1,13,1,8,1,14,1,82,1,-13,1
674,-16,1,7,1,23,1,4,1,-19,1,15,1,13,1,14,1,8,1,13,1,79,1,-15,1
675,-17,1,6,1,23,1,5,1,-20,1,14,1,13,1,14,1,9,1,11,1,79,1,-13,1
676,-18,1,6,1,24,1,6,1,-21,1,15,1,12,1,13,1,9,1,9,1,79,1,-12,1
677,-17,1,5,1,22,1,6,1,-19,1,13,1,12,1,13,1,8,1,7,1,78,1,-11,1
678,-14,1,7,1,21,1,3,1,-17,1,14,1,12,1,14,1,7,1,5,1,77,1,-11,1
679,-13,1,7,1,20,1,3,1,-16,1,13,1,11,1,13,1,7,1,6,1,79,1,-9,1
680,-13,1,5,1,18,1,4,1,-15,1,11,1,10,1,12,1,5,1,2,1,78,1,-12,1
681,-13,1,6,1,19,1,3,1,-16,1,12,1,11,1,13,1,5,1,0,1,79,1,-14,1
682,-14,1,8,1,22,1,3,1,-18,1,15,1,14,1,14,1,7,1,0,1,80,1,-14,1
683,-14,1,9,1,23,1,2,1,-18,1,16,1,14,1,14,1,8,1,0,1,81,1,-14,1
684,-14,1,8,1,22,1,3,1,-18,1,15,1,15,1,14,1,8,1,-1,1,79,1,-15,1
685,-14,1,7,1,21,1,3,1,-17,1,14,1,15,1,14,1,8,1,-3,1,77,1,-14,1
686,-14,1,8,1,22,1,3,1,-18,1,15,1,13,1,13,1,7,1,-3,1,78,1,-12,1
687,-15,1,7,1,22,1,4,1,-18,1,14,1,12,1,13,1,6,1,-3,1,78,1,-10,1
688,-15,1,7,1,22,1,4,1,-18,1,14,1,13,1,14,1,7,1,-5,1,78,1,-8,1
689,-13,1,8,1,21,1,2,1,-17,1,14,1,12,1,13,1,7,1,-4,1,81,1,-6,1
690,-11,1,7,1,18,1,2,1,-14,1,12,1,11,1,13,1,6,1,-5,1,81,1,-7,1
691,-13,1,6,1,19,1,3,1,-16,1,12,1,11,1,13,1,5,1,-8,1,80,1,-9,1
692,-14,1,6,1,20,1,4,1,-17,1,13,1,10,1,11,1,5,1,-9,1,79,1,-10,1
693,-15,1,8,1,23,1,3,1,-19,1,15,1,10,1,11,1,6,1,-9,1,79,1,-9,1
694,-15,1,9,1,24,1,3,1,-19,1,16,1,12,1,12,1,6,1,-11,1,77,1,-11,1
695,-15,1,8,1,23,1,3,1,-19,1,15,1,11,1,12,1,6,1,-10,1,76,1,-9,1
696,-16,1,7,1,23,1,4,1,-19,1,15,1,10,1,13,1,6,1,-10,1,77,1,-6,1
697,-13,1,9,1,22,1,2,1,-17,1,15,1,10,1,12,1,6,1,-10,1,77,1,-4,1
698,-10,1,11,1,21,1,0,1,-15,1,16,1,9,1,12,1,6,1,-10,1,78,1,-3,1
699,-8,1,11,1,19,1,-1,1,-13,1,15,1,7,1,11,1,5,1,-10,1,80,1,-2,1
700,-10,1,10,1,20,1,0,1,-15,1,15,1,7,1,11,1,5,1,-11,1,80,1,-3,1
701,-10,1,10,1,20,1,0,1,-15,1,15,1,7,1,11,1,4,1,-13,1,78,1,-6,1
702,-15,1,10,1,25,1,2,1,-20,1,17,1,9,1,11,1,6,1,-12,1,79,1,-7,1
703,-17,1,10,1,27,1,3,1,-22,1,18,1,10,1,10,1,4,1,-13,1,77,1,-9,1
704,-15,1,9,1,24,1,3,1,-19,1,16,1,10,1,9,1,4,1,-15,1,73,1,-11,1
705,-16,1,9,1,25,1,3,1,-20,1,17,1,11,1,10,1,4,1,-15,1,71,1,-11,1
706,-17,1,8,1,25,1,4,1,-21,1,16,1,9,1,10,1,2,1,-15,1,70,1,-8,1
707,-15,1,9,1,24,1,3,1,-19,1,16,1,9,1,11,1,2,1,-15,1,68,1,-8,1
708,-13,1,10,1,23,1,1,1,-18,1,16,1,8,1,12,1,1,1,-17,1,65,1,-8,1
709,-13,1,11,1,24,1,1,1,-18,1,17,1,7,1,11,1,1,1,-17,1,65,1,-6,1
710,-15,1,10,1,25,1,2,1,-20,1,17,1,7,1,12,1,1,1,-17,1,65,1,-7,1
711,-14,1,11,1,25,1,1,1,-19,1,18,1,8,1,11,1,2,1,-19,1,63,1,-8,1
712,-14,1,11,1,25,1,1,1,-19,1,18,1,7,1,9,1,1,1,-20,1,61,1,-9,1
713,-15,1,11,1,26,1,2,1,-20,1,18,1,7,1,9,1,2,1,-20,1,61,1,-10,1
714,-15,1,11,1,26,1,2,1,-20,1,18,1,8,1,10,1,2,1,-21,1,59,1,-11,1
715,-14,1,12,1,26,1,1,1,-20,1,19,1,8,1,11,1,3,1,-22,1,59,1,-10,1
716,-12,1,13,1,25,1,0,1,-18,1,19,1,6,1,10,1,2,1,-22,1,61,1,-7,1
717,-13,1,12,1,25,1,0,1,-19,1,18,1,6,1,9,1,0,1,-22,1,61,1,-7,1
718,-14,1,12,1,26,1,1,1,-20,1,19,1,7,1,10,1,1,1,-22,1,61,1,-7,1
719,-14,1,14,1,28,1,0,1,-21,1,21,1,6,1,9,1,1,1,-20,1,62,1,-5,1
720,-13,1,14,1,27,1,0,1,-20,1,20,1,6,1,9,1,1,1,-20,1,60,1,-7,1
721,-13,1,15,1,28,1,-1,1,-20,1,21,1,6,1,8,1,2,1,-22,1,58,1,-8,1
722,-13,1,16,1,29,1,-1,1,-21,1,22,1,5,1,7,1,1,1,-22,1,57,1,-9,1
723,-13,1,19,1,32,1,-3,1,-22,1,25,1,4,1,5,1,1,1,-22,1,59,1,-9,1
724,-13,1,20,1,33,1,-3,1,-23,1,26,1,5,1,6,1,1,1,-22,1,58,1,-9,1
725,-14,1,22,1,36,1,-4,1,-25,1,29,1,5,1,6,1,2,1,-21,1,60,1,-7,1
726,-14,1,25,1,39,1,-5,1,-26,1,32,1,4,1,5,1,2,1,-20,1,62,1,-3,1
727,-14,1,28,1,42,1,-7,1,-28,1,35,1,4,1,6,1,2,1,-19,1,63,1,-1,1
728,-13,1,30,1,43,1,-8,1,-28,1,36,1,3,1,6,1,3,1,-19,1,62,1,0,1
729,-14,1,30,1,44,1,-8,1,-29,1,37,1,2,1,4,1,2,1,-17,1,63,1,0,1
730,-15,1,30,1,45,1,-7,1,-30,1,37,1,2,1,4,1,2,1,-17,1,63,1,-1,1
731,-14,1,30,1,44,1,-8,1,-29,1,37,1,2,1,5,1,1,1,-19,1,60,1,-4,1
732,-14,1,30,1,44,1,-8,1,-29,1,37,1,1,1,5,1,1,1,-19,1,58,1,-5,1
733,-16,1,32,1,48,1,-8,1,-32,1,40,1,1,1,5,1,2,1,-19,1,58,1,-5,1
734,-17,1,33,1,50,1,-8,1,-33,1,41,1,2,1,5,1,3,1,-21,1,55,1,-6,1
735,-16,1,34,1,50,1,-9,1,-33,1,42,1,2,1,5,1,3,1,-21,1,54,1,-5,1
736,-14,1,34,1,48,1,-10,1,-31,1,41,1,0,1,3,1,1,1,-23,1,52,1,-4,1
737,-13,1,35,1,48,1,-11,1,-30,1,41,1,0,1,3,1,0,1,-25,1,49,1,-4,1
738,-9,1,36,1,45,1,-13,1,-27,1,40,1,-1,1,3,1,-1,1,-27,1,46,1,-4,1
739,-10,1,36,1,46,1,-13,1,-28,1,41,1,-2,1,2,1,-1,1,-25,1,46,1,-3,1
740,-11,1,35,1,46,1,-12,1,-28,1,40,1,-1,1,3,1,-1,1,-24,1,44,1,-5,1
741,-10,1,34,1,44,1,-12,1,-27,1,39,1,-1,1,2,1,-2,1,-26,1,40,1,-7,1
742,-8,1,34,1,42,1,-13,1,-25,1,38,1,-2,1,1,1,-4,1,-27,1,37,1,-8,1
743,-12,1,32,1,44,1,-10,1,-28,1,38,1,-2,1,3,1,-4,1,-27,1,36,1,-6,1
744,-12,1,30,1,42,1,-9,1,-27,1,36,1,-2,1,4,1,-5,1,-28,1,31,1,-8,1
745,-13,1,29,1,42,1,-8,1,-27,1,35,1,-3,1,2,1,-6,1,-27,1,30,1,-7,1
746,-13,1,31,1,44,1,-9,1,-28,1,37,1,-4,1,1,1,-6,1,-26,1,30,1,-3,1
747,-12,1,33,1,45,1,-10,1,-28,1,39,1,-4,1,1,1,-7,1,-25,1,29,1,-2,1
748,-13,1,33,1,46,1,-10,1,-29,1,39,1,-3,1,1,1,-6,1,-26,1,27,1,-2,1
749,-13,1,34,1,47,1,-10,1,-30,1,40,1,-5,1,0,1,-6,1,-24,1,28,1,0,1
750,-11,1,34,1,45,1,-11,1,-28,1,39,1,-5,1,0,1,-6,1,-23,1,27,1,0,1
751,-10,1,34,1,44,1,-12,1,-27,1,39,1,-5,1,0,1,-6,1,-23,1,27,1,0,1
752,-10,1,33,1,43,1,-11,1,-26,1,38,1,-7,1,0,1,-6,1,-23,1,26,1,0,1
753,-4,1,34,1,38,1,-15,1,-21,1,36,1,-8,1,-1,1,-6,1,-23,1,25,1,1,1
754,-4,1,35,1,39,1,-15,1,-21,1,37,1,-6,1,-1,1,-6,1,-23,1,24,1,1,1
755,-7,1,37,1,44,1,-15,1,-25,1,40,1,-5,1,-1,1,-5,1,-21,1,26,1,5,1
756,-4,1,39,1,43,1,-17,1,-23,1,41,1,-5,1,-2,1,-6,1,-22,1,26,1,4,1
757,-7,1,38,1,45,1,-15,1,-26,1,41,1,-4,1,-1,1,-7,1,-22,1,26,1,4,1
758,-13,1,38,1,51,1,-12,1,-32,1,44,1,-3,1,1,1,-6,1,-23,1,26,1,5,1
759,-14,1,38,1,52,1,-12,1,-33,1,45,1,-4,1,0,1,-6,1,-25,1,26,1,5,1
760,-12,1,37,1,49,1,-12,1,-30,1,43,1,-4,1,0,1,-5,1,-26,1,24,1,1,1
761,-12,1,36,1,48,1,-12,1,-30,1,42,1,-4,1,0,1,-5,1,-28,1,20,1,-2,1
762,-11,1,34,1,45,1,-11,1,-28,1,39,1,-4,1,-1,1,-6,1,-29,1,17,1,-2,1
763,-8,1,33,1,41,1,-12,1,-24,1,37,1,-3,1,0,1,-5,1,-29,1,16,1,-2,1
764,-7,1,31,1,38,1,-12,1,-22,1,34,1,0,1,1,1,-4,1,-29,1,14,1,-3,1
765,-9,1,28,1,37,1,-9,1,-23,1,32,1,1,1,1,1,-4,1,-28,1,14,1,-1,1
766,-11,1,25,1,36,1,-7,1,-23,1,30,1,1,1,1,1,-4,1,-27,1,15,1,0,1
767,-15,1,24,1,39,1,-4,1,-27,1,31,1,3,1,3,1,-4,1,-27,1,15,1,0,1
768,-15,1,21,1,36,1,-3,1,-25,1,28,1,4,1,3,1,-6,1,-30,1,10,1,-3,1
769,-14,1,19,1,33,1,-2,1,-23,1,26,1,2,1,3,1,-7,1,-32,1,8,1,-3,1
770,-13,1,17,1,30,1,-2,1,-21,1,23,1,2,1,4,1,-8,1,-32,1,6,1,-6,1
771,-13,1,16,1,29,1,-1,1,-21,1,22,1,3,1,5,1,-7,1,-34,1,5,1,-9,1
772,-14,1,15,1,29,1,0,1,-21,1,22,1,4,1,7,1,-5,1,-34,1,4,1,-10,1
773,-14,1,14,1,28,1,0,1,-21,1,21,1,5,1,7,1,-4,1,-32,1,4,1,-10,1
774,-15,1,12,1,27,1,1,1,-21,1,19,1,7,1,8,1,-5,1,-34,1,2,1,-12,1
775,-13,1,12,1,25,1,0,1,-19,1,18,1,6,1,8,1,-3,1,-33,1,3,1,-11,1
776,-12,1,12,1,24,1,0,1,-18,1,18,1,7,1,7,1,-4,1,-33,1,3,1,-9,1
777,-11,1,12,1,23,1,0,1,-17,1,17,1,7,1,8,1,-4,1,-35,1,2,1,-9,1
778,-9,1,13,1,22,1,-2,1,-15,1,17,1,7,1,9,1,-5,1,-36,1,0,1,-9,1
779,-11,1,13,1,24,1,-1,1,-17,1,18,1,7,1,8,1,-6,1,-37,1,1,1,-8,1
780,-11,1,12,1,23,1,0,1,-17,1,17,1,7,1,8,1,-7,1,-37,1,0,1,-9,1
781,-13,1,11,1,24,1,1,1,-18,1,17,1,8,1,8,1,-6,1,-38,1,-1,1,-11,1
782,-13,1,10,1,23,1,1,1,-18,1,16,1,8,1,9,1,-7,1,-38,1,0,1,-12,1
783,-12,1,10,1,22,1,1,1,-17,1,16,1,8,1,7,1,-7,1,-37,1,2,1,-12,1
784,-12,1,10,1,22,1,1,1,-17,1,16,1,9,1,7,1,-7,1,-38,1,1,1,-14,1
785,-13,1,10,1,23,1,1,1,-18,1,16,1,8,1,7,1,-7,1,-36,1,3,1,-11,1
786,-15,1,8,1,23,1,3,1,-19,1,15,1,8,1,7,1,-6,1,-36,1,4,1,-8,1
787,-14,1,7,1,21,1,3,1,-17,1,14,1,9,1,8,1,-6,1,-36,1,3,1,-8,1
788,-15,1,6,1,21,1,4,1,-18,1,13,1,9,1,9,1,-6,1,-37,1,1,1,-9,1
789,-16,1,6,1,22,1,5,1,-19,1,14,1,7,1,8,1,-6,1,-37,1,1,1,-7,1
790,-17,1,5,1,22,1,6,1,-19,1,13,1,7,1,7,1,-7,1,-38,1,-1,1,-9,1
791,-17,1,7,1,24,1,5,1,-20,1,15,1,7,1,8,1,-7,1,-38,1,-3,1,-11,1
792,-17,1,8,1,25,1,4,1,-21,1,16,1,8,1,8,1,-7,1,-39,1,-4,1,-12,1
793,-17,1,10,1,27,1,3,1,-22,1,18,1,8,1,8,1,-6,1,-37,1,-3,1,-11,1
794,-17,1,10,1,27,1,3,1,-22,1,18,1,9,1,9,1,-6,1,-38,1,-5,1,-13,1
795,-18,1,9,1,27,1,4,1,-22,1,18,1,10,1,8,1,-6,1,-37,1,-5,1,-11,1
796,-17,1,9,1,26,1,4,1,-21,1,17,1,10,1,8,1,-7,1,-37,1,-4,1,-9,1
797,-15,1,8,1,23,1,3,1,-19,1,15,1,10,1,8,1,-7,1,-38,1,-3,1,-8,1
798,-14,1,8,1,22,1,3,1,-18,1,15,1,10,1,9,1,-5,1,-37,1,-4,1,-8,1
799,-16,1,9,1,25,1,3,1,-20,1,17,1,10,1,10,1,-4,1,-34,1,-1,1,-5,1
800,-14,1,9,1,23,1,2,1,-18,1,16,1,10,1,9,1,-3,1,-34,1,-1,1,-6,1
801,-12,1,9,1,21,1,1,1,-16,1,15,1,10,1,9,1,-4,1,-35,1,-2,1,-7,1
802,-13,1,8,1,21,1,2,1,-17,1,14,1,10,1,9,1,-4,1,-36,1,-1,1,-7,1
803,-14,1,6,1,20,1,4,1,-17,1,13,1,9,1,9,1,-4,1,-36,1,-1,1,-9,1
804,-16,1,4,1,20,1,6,1,-18,1,12,1,13,1,11,1,-3,1,-38,1,-3,1,-12,1
805,-21,1,1,1,22,1,10,1,-21,1,11,1,16,1,13,1,0,1,-39,1,-3,1,-13,1
806,-22,1,-1,1,21,1,11,1,-22,1,10,1,21,1,17,1,1,1,-41,1,-5,1,-16,1
807,-23,1,-4,1,19,1,13,1,-21,1,7,1,27,1,21,1,5,1,-46,1,-10,1,-20,1
808,-24,1,-7,1,17,1,15,1,-21,1,5,1,38,1,29,1,11,1,-51,1,-16,1,-24,1
809,-24,1,-12,1,12,1,18,1,-18,1,0,1,47,1,35,1,19,1,-52,1,-18,1,-26,1
810,-24,1,-13,1,11,1,18,1,-18,1,-1,1,57,1,43,1,30,1,-52,1,-23,1,-30,1
811,-24,1,-15,1,9,1,19,1,-17,1,-3,1,67,1,51,1,44,1,-47,1,-25,1,-34,1
812,-24,1,-12,1,12,1,18,1,-18,1,0,1,70,1,56,1,58,1,-38,1,-22,1,-32,1
813,-21,1,-2,1,19,1,11,1,-20,1,8,1,68,1,59,1,72,1,-22,1,-12,1,-25,1
814,-17,1,11,1,28,1,3,1,-22,1,19,1,62,1,62,1,88,1,-2,1,0,1,-16,1
815,-11,1,26,1,37,1,-7,1,-24,1,31,1,50,1,62,1,104,1,24,1,18,1,-1,1
816,-4,1,41,1,45,1,-18,1,-24,1,43,1,34,1,63,1,123,1,58,1,44,1,17,1
817,4,1,54,1,50,1,-29,1,-23,1,52,1,16,1,65,1,141,1,95,1,71,1,36,1
818,14,1,66,1,52,1,-40,1,-19,1,59,1,-2,1,67,1,157,1,132,1,100,1,56,1
819,21,1,78,1,57,1,-49,1,-18,1,68,1,-23,1,65,1,169,1,172,1,132,1,80,1
820,27,1,93,1,66,1,-60,1,-19,1,80,1,-41,1,60,1,175,1,207,1,161,1,101,1
821,29,1,111,1,82,1,-70,1,-26,1,97,1,-57,1,49,1,175,1,238,1,189,1,122,1
822,35,1,128,1,93,1,-81,1,-29,1,111,1,-74,1,33,1,166,1,261,1,212,1,138,1
823,40,1,146,1,106,1,-93,1,-33,1,126,1,-88,1,15,1,149,1,273,1,231,1,152,1
824,41,1,152,1,111,1,-96,1,-35,1,132,1,-93,1,0,1,125,1,272,1,239,1,157,1
825,37,1,138,1,101,1,-87,1,-32,1,120,1,-92,1,-7,1,98,1,259,1,237,1,156,1
826,35,1,112,1,77,1,-73,1,-21,1,95,1,-87,1,-14,1,66,1,229,1,224,1,145,1
827,28,1,79,1,51,1,-53,1,-11,1,65,1,-80,1,-18,1,28,1,184,1,200,1,127,1
828,18,1,48,1,30,1,-33,1,-6,1,39,1,-72,1,-23,1,-14,1,128,1,170,1,105,1
829,10,1,25,1,15,1,-17,1,-2,1,20,1,-64,1,-25,1,-46,1,77,1,141,1,86,1
830,4,1,7,1,3,1,-5,1,1,1,5,1,-52,1,-22,1,-65,1,33,1,111,1,64,1
831,0,1,-8,1,-8,1,4,1,4,1,-8,1,-40,1,-18,1,-75,1,-3,1,82,1,42,1
832,-1,1,-18,1,-17,1,9,1,8,1,-18,1,-30,1,-15,1,-79,1,-28,1,58,1,24,1
833,-3,1,-24,1,-21,1,13,1,9,1,-23,1,-20,1,-12,1,-77,1,-45,1,42,1,11,1
834,-3,1,-27,1,-24,1,15,1,10,1,-26,1,-11,1,-7,1,-71,1,-57,1,27,1,0,1
835,-5,1,-29,1,-24,1,17,1,9,1,-27,1,-4,1,-3,1,-63,1,-64,1,18,1,-6,1
836,-9,1,-31,1,-22,1,20,1,6,1,-27,1,1,1,0,1,-54,1,-68,1,14,1,-8,1
837,-13,1,-30,1,-17,1,21,1,2,1,-24,1,5,1,6,1,-45,1,-67,1,12,1,-10,1
838,-13,1,-28,1,-15,1,20,1,1,1,-22,1,7,1,10,1,-37,1,-66,1,11,1,-12,1
839,-13,1,-24,1,-11,1,18,1,-1,1,-18,1,8,1,13,1,-28,1,-61,1,13,1,-12,1
840,-13,1,-24,1,-11,1,18,1,-1,1,-18,1,10,1,16,1,-23,1,-58,1,11,1,-15,1
841,-13,1,-24,1,-11,1,18,1,-1,1,-18,1,12,1,18,1,-19,1,-57,1,9,1,-18,1
842,-13,1,-23,1,-10,1,18,1,-2,1,-17,1,15,1,19,1,-15,1,-54,1,7,1,-20,1
843,-15,1,-21,1,-6,1,18,1,-5,1,-14,1,18,1,19,1,-12,1,-54,1,7,1,-21,1
844,-15,1,-20,1,-5,1,17,1,-5,1,-13,1,22,1,21,1,-9,1,-55,1,6,1,-22,1
845,-16,1,-18,1,-2,1,17,1,-7,1,-10,1,22,1,20,1,-7,1,-55,1,8,1,-20,1
846,-17,1,-16,1,1,1,16,1,-9,1,-8,1,20,1,18,1,-7,1,-55,1,12,1,-18,1
847,-17,1,-14,1,3,1,15,1,-10,1,-6,1,18,1,16,1,-6,1,-54,1,14,1,-18,1
848,-15,1,-11,1,4,1,13,1,-10,1,-4,1,17,1,16,1,-5,1,-54,1,17,1,-16,1
849,-14,1,-8,1,6,1,11,1,-10,1,-1,1,15,1,14,1,-5,1,-50,1,21,1,-13,1
850,-14,1,-8,1,6,1,11,1,-10,1,-1,1,14,1,13,1,-5,1,-49,1,22,1,-14,1
851,-13,1,-8,1,5,1,10,1,-9,1,-2,1,14,1,13,1,-6,1,-50,1,19,1,-16,1
852,-14,1,-9,1,5,1,11,1,-10,1,-2,1,15,1,14,1,-7,1,-49,1,18,1,-18,1
853,-13,1,-10,1,3,1,11,1,-8,1,-4,1,15,1,13,1,-8,1,-50,1,16,1,-19,1
854,-15,1,-10,1,5,1,12,1,-10,1,-3,1,17,1,14,1,-8,1,-53,1,12,1,-23,1
855,-17,1,-10,1,7,1,13,1,-12,1,-2,1,18,1,14,1,-9,1,-54,1,10,1,-23,1
856,-18,1,-9,1,9,1,13,1,-14,1,0,1,17,1,12,1,-10,1,-56,1,9,1,-23,1
857,-16,1,-7,1,9,1,11,1,-13,1,1,1,17,1,12,1,-10,1,-58,1,9,1,-23,1
858,-16,1,-6,1,10,1,11,1,-13,1,2,1,16,1,11,1,-11,1,-60,1,7,1,-24,1
859,-17,1,-6,1,11,1,11,1,-14,1,2,1,14,1,10,1,-10,1,-59,1,6,1,-22,1
860,-18,1,-8,1,10,1,13,1,-14,1,1,1,14,1,10,1,-11,1,-59,1,5,1,-23,1
861,-14,1,-8,1,6,1,11,1,-10,1,-1,1,12,1,9,1,-13,1,-59,1,2,1,-25,1
862,-12,1,-5,1,7,1,8,1,-10,1,1,1,12,1,9,1,-12,1,-58,1,1,1,-25,1
863,-15,1,-5,1,10,1,10,1,-13,1,2,1,13,1,11,1,-12,1,-56,1,-1,1,-24,1
864,-16,1,-6,1,10,1,11,1,-13,1,2,1,14,1,8,1,-13,1,-61,1,-7,1,-29,1
865,-17,1,-6,1,11,1,11,1,-14,1,2,1,14,1,8,1,-15,1,-62,1,-9,1,-30,1
866,-18,1,-7,1,11,1,12,1,-15,1,2,1,14,1,8,1,-15,1,-62,1,-10,1,-28,1
867,-19,1,-6,1,13,1,12,1,-16,1,3,1,14,1,8,1,-16,1,-63,1,-10,1,-27,1
868,-19,1,-8,1,11,1,13,1,-15,1,1,1,15,1,8,1,-15,1,-62,1,-11,1,-26,1
869,-23,1,-9,1,14,1,16,1,-19,1,2,1,15,1,9,1,-13,1,-59,1,-9,1,-23,1
870,-22,1,-10,1,12,1,16,1,-17,1,1,1,15,1,10,1,-14,1,-58,1,-11,1,-24,1
871,-18,1,-9,1,9,1,13,1,-14,1,0,1,13,1,8,1,-15,1,-61,1,-18,1,-27,1
872,-16,1,-8,1,8,1,12,1,-12,1,0,1,12,1,8,1,-16,1,-63,1,-23,1,-29,1
873,-16,1,-7,1,9,1,11,1,-13,1,1,1,12,1,8,1,-16,1,-64,1,-27,1,-28,1
874,-16,1,-7,1,9,1,11,1,-13,1,1,1,14,1,9,1,-15,1,-67,1,-34,1,-31,1
875,-16,1,-6,1,10,1,11,1,-13,1,2,1,14,1,9,1,-15,1,-68,1,-39,1,-30,1
876,-15,1,-5,1,10,1,10,1,-13,1,2,1,13,1,9,1,-15,1,-66,1,-41,1,-28,1
877,-18,1,-6,1,12,1,12,1,-15,1,3,1,15,1,10,1,-15,1,-64,1,-44,1,-27,1
878,-17,1,-8,1,9,1,12,1,-13,1,0,1,15,1,9,1,-15,1,-65,1,-49,1,-28,1
879,-13,1,-8,1,5,1,10,1,-9,1,-2,1,13,1,6,1,-17,1,-64,1,-54,1,-29,1
880,-13,1,-10,1,3,1,11,1,-8,1,-4,1,13,1,5,1,-18,1,-65,1,-61,1,-30,1
881,-16,1,-10,1,6,1,13,1,-11,1,-2,1,14,1,6,1,-17,1,-63,1,-68,1,-31,1
882,-17,1,-10,1,7,1,13,1,-12,1,-2,1,13,1,7,1,-16,1,-63,1,-75,1,-31,1
883,-20,1,-10,1,10,1,15,1,-15,1,0,1,14,1,9,1,-15,1,-63,1,-81,1,-29,1
884,-18,1,-10,1,8,1,14,1,-13,1,-1,1,14,1,9,1,-16,1,-65,1,-92,1,-32,1
885,-16,1,-9,1,7,1,12,1,-12,1,-1,1,12,1,8,1,-17,1,-65,1,-102,1,-30,1
886,-18,1,-8,1,10,1,13,1,-14,1,1,1,13,1,8,1,-17,1,-62,1,-113,1,-26,1
887,-20,1,-8,1,12,1,14,1,-16,1,2,1,15,1,9,1,-16,1,-60,1,-128,1,-27,1
888,-17,1,-9,1,8,1,13,1,-13,1,-1,1,15,1,8,1,-18,1,-62,1,-145,1,-30,1
889,-17,1,-9,1,8,1,13,1,-13,1,-1,1,15,1,6,1,-18,1,-62,1,-156,1,-30,1
890,-16,1,-8,1,8,1,12,1,-12,1,0,1,16,1,7,1,-17,1,-61,1,-167,1,-32,1
891,-13,1,-8,1,5,1,10,1,-9,1,-2,1,16,1,8,1,-16,1,-63,1,-176,1,-33,1
892,-12,1,-9,1,3,1,10,1,-8,1,-3,1,15,1,8,1,-16,1,-61,1,-185,1,-32,1
893,-13,1,-11,1,2,1,12,1,-8,1,-5,1,14,1,8,1,-16,1,-61,1,-192,1,-30,1
894,-14,1,-13,1,1,1,13,1,-8,1,-6,1,15,1,9,1,-15,1,-61,1,-201,1,-30,1
895,-13,1,-13,1,0,1,13,1,-7,1,-7,1,13,1,8,1,-16,1,-61,1,-206,1,-28,1
896,-11,1,-15,1,-4,1,13,1,-4,1,-10,1,11,1,6,1,-16,1,-60,1,-209,1,-24,1
897,-11,1,-14,1,-3,1,12,1,-4,1,-9,1,12,1,6,1,-16,1,-59,1,-209,1,-21,1
898,-10,1,-14,1,-4,1,12,1,-3,1,-9,1,13,1,5,1,-16,1,-61,1,-211,1,-25,1
899,-13,1,-15,1,-2,1,14,1,-6,1,-9,1,14,1,5,1,-14,1,-59,1,-208,1,-23,1
900,-16,1,-15,1,1,1,15,1,-9,1,-7,1,17,1,7,1,-12,1,-58,1,-205,1,-22,1
901,-15,1,-16,1,-1,1,15,1,-7,1,-9,1,17,1,9,1,-11,1,-58,1,-202,1,-21,1
902,-15,1,-16,1,-1,1,15,1,-7,1,-9,1,17,1,10,1,-11,1,-56,1,-196,1,-21,1
903,-16,1,-16,1,0,1,16,1,-8,1,-8,1,16,1,11,1,-10,1,-54,1,-190,1,-19,1
904,-15,1,-14,1,1,1,14,1,-8,1,-7,1,17,1,11,1,-10,1,-54,1,-187,1,-20,1
905,-17,1,-15,1,2,1,16,1,-10,1,-7,1,18,1,11,1,-8,1,-52,1,-181,1,-20,1
906,-17,1,-15,1,2,1,16,1,-10,1,-7,1,17,1,10,1,-8,1,-51,1,-178,1,-19,1
907,-17,1,-14,1,3,1,15,1,-10,1,-6,1,16,1,9,1,-8,1,-51,1,-175,1,-18,1
908,-16,1,-14,1,2,1,15,1,-9,1,-6,1,16,1,9,1,-8,1,-51,1,-173,1,-19,1
909,-16,1,-13,1,3,1,14,1,-10,1,-5,1,15,1,9,1,-7,1,-49,1,-168,1,-17,1
910,-16,1,-13,1,3,1,14,1,-10,1,-5,1,16,1,9,1,-7,1,-49,1,-164,1,-18,1
911,-15,1,-14,1,1,1,14,1,-8,1,-7,1,18,1,10,1,-6,1,-50,1,-160,1,-19,1
912,-15,1,-14,1,1,1,14,1,-8,1,-7,1,18,1,11,1,-5,1,-49,1,-156,1,-19,1
913,-16,1,-14,1,2,1,15,1,-9,1,-6,1,18,1,12,1,-4,1,-48,1,-153,1,-19,1
914,-13,1,-13,1,0,1,13,1,-7,1,-7,1,20,1,13,1,-4,1,-47,1,-154,1,-21,1
915,-13,1,-13,1,0,1,13,1,-7,1,-7,1,19,1,13,1,-2,1,-45,1,-151,1,-19,1
916,-13,1,-13,1,0,1,13,1,-7,1,-7,1,17,1,13,1,-1,1,-41,1,-147,1,-16,1
917,-14,1,-14,1,0,1,14,1,-7,1,-7,1,17,1,12,1,-1,1,-39,1,-144,1,-16,1
918,-10,1,-14,1,-4,1,12,1,-3,1,-9,1,16,1,12,1,0,1,-39,1,-144,1,-16,1
919,-12,1,-13,1,-1,1,12,1,-6,1,-7,1,16,1,13,1,4,1,-35,1,-138,1,-12,1
920,-10,1,-11,1,-1,1,10,1,-5,1,-6,1,17,1,13,1,7,1,-33,1,-136,1,-13,1
921,-5,1,-10,1,-5,1,7,1,0,1,-8,1,17,1,12,1,7,1,-35,1,-137,1,-16,1
922,-7,1,-11,1,-4,1,9,1,-2,1,-8,1,18,1,12,1,9,1,-34,1,-137,1,-17,1
923,-12,1,-9,1,3,1,10,1,-8,1,-3,1,19,1,14,1,11,1,-30,1,-134,1,-16,1
924,-15,1,-7,1,8,1,11,1,-12,1,0,1,21,1,16,1,13,1,-28,1,-132,1,-16,1
925,-13,1,-4,1,9,1,8,1,-11,1,2,1,20,1,16,1,14,1,-25,1,-130,1,-14,1
926,-12,1,-3,1,9,1,7,1,-11,1,3,1,19,1,17,1,14,1,-20,1,-126,1,-12,1
927,-12,1,-2,1,10,1,7,1,-11,1,4,1,19,1,19,1,15,1,-17,1,-123,1,-11,1
928,-13,1,-1,1,12,1,7,1,-13,1,5,1,18,1,19,1,16,1,-16,1,-121,1,-11,1
929,-12,1,1,1,13,1,5,1,-12,1,7,1,17,1,18,1,18,1,-13,1,-118,1,-9,1
930,-8,1,3,1,11,1,2,1,-9,1,7,1,16,1,16,1,19,1,-12,1,-119,1,-11,1
931,-10,1,4,1,14,1,3,1,-12,1,9,1,16,1,17,1,21,1,-11,1,-118,1,-13,1
932,-11,1,7,1,18,1,2,1,-14,1,12,1,17,1,16,1,23,1,-8,1,-116,1,-12,1
933,-6,1,11,1,17,1,-2,1,-11,1,14,1,16,1,16,1,25,1,-5,1,-114,1,-10,1
934,-6,1,14,1,20,1,-4,1,-13,1,17,1,17,1,18,1,28,1,-2,1,-113,1,-9,1
935,-11,1,14,1,25,1,-1,1,-18,1,19,1,16,1,19,1,31,1,2,1,-108,1,-5,1
936,-14,1,13,1,27,1,0,1,-20,1,20,1,16,1,20,1,31,1,5,1,-105,1,0,1
937,-9,1,15,1,24,1,-3,1,-16,1,19,1,17,1,21,1,33,1,7,1,-104,1,2,1
938,-6,1,16,1,22,1,-5,1,-14,1,19,1,17,1,22,1,34,1,8,1,-105,1,0,1
939,-5,1,16,1,21,1,-5,1,-13,1,18,1,17,1,22,1,36,1,11,1,-104,1,0,1
940,-4,1,17,1,21,1,-6,1,-12,1,19,1,17,1,22,1,39,1,13,1,-106,1,-1,1
941,-4,1,19,1,23,1,-7,1,-13,1,21,1,18,1,23,1,42,1,15,1,-105,1,-2,1
942,-5,1,20,1,25,1,-7,1,-15,1,22,1,19,1,24,1,44,1,18,1,-103,1,-2,1
943,-6,1,21,1,27,1,-7,1,-16,1,24,1,18,1,24,1,46,1,22,1,-99,1,-2,1
944,-2,1,22,1,24,1,-10,1,-13,1,23,1,16,1,24,1,46,1,23,1,-99,1,-4,1
945,-2,1,25,1,27,1,-11,1,-14,1,26,1,15,1,25,1,49,1,26,1,-95,1,0,1
946,-3,1,27,1,30,1,-12,1,-16,1,28,1,16,1,24,1,50,1,30,1,-89,1,5,1
947,-2,1,28,1,30,1,-13,1,-16,1,29,1,16,1,22,1,50,1,30,1,-87,1,5,1
948,-1,1,28,1,29,1,-13,1,-15,1,28,1,15,1,22,1,50,1,30,1,-87,1,4,1
949,-1,1,30,1,31,1,-14,1,-16,1,30,1,14,1,22,1,52,1,34,1,-83,1,6,1
950,0,1,32,1,32,1,-16,1,-16,1,32,1,15,1,24,1,53,1,35,1,-81,1,5,1
951,1,1,34,1,33,1,-17,1,-16,1,34,1,15,1,22,1,54,1,35,1,-78,1,5,1
952,1,1,36,1,35,1,-18,1,-17,1,36,1,14,1,20,1,54,1,36,1,-76,1,4,1
953,1,1,38,1,37,1,-19,1,-18,1,38,1,13,1,20,1,54,1,37,1,-71,1,6,1
954,1,1,39,1,38,1,-20,1,-18,1,39,1,14,1,21,1,53,1,35,1,-69,1,6,1
955,1,1,39,1,38,1,-20,1,-18,1,39,1,14,1,23,1,52,1,36,1,-66,1,9,1
956,1,1,38,1,37,1,-19,1,-18,1,38,1,12,1,23,1,50,1,34,1,-63,1,11,1
957,4,1,37,1,33,1,-20,1,-14,1,35,1,11,1,22,1,47,1,32,1,-61,1,11,1
958,4,1,37,1,33,1,-20,1,-14,1,35,1,11,1,23,1,45,1,32,1,-59,1,11,1
959,5,1,36,1,31,1,-20,1,-13,1,34,1,10,1,21,1,43,1,33,1,-54,1,12,1
960,6,1,34,1,28,1,-20,1,-11,1,31,1,10,1,19,1,41,1,33,1,-53,1,10,1
961,2,1,35,1,33,1,-18,1,-15,1,34,1,13,1,19,1,41,1,33,1,-49,1,9,1
962,3,1,36,1,33,1,-19,1,-15,1,35,1,11,1,17,1,38,1,31,1,-47,1,10,1
963,4,1,36,1,32,1,-20,1,-14,1,34,1,9,1,14,1,36,1,29,1,-43,1,12,1
964,5,1,36,1,31,1,-20,1,-13,1,34,1,7,1,14,1,33,1,25,1,-44,1,10,1
965,6,1,36,1,30,1,-21,1,-12,1,33,1,6,1,14,1,31,1,22,1,-43,1,10,1
966,2,1,35,1,33,1,-18,1,-15,1,34,1,6,1,14,1,28,1,21,1,-41,1,11,1
967,2,1,34,1,32,1,-18,1,-15,1,33,1,7,1,15,1,28,1,19,1,-40,1,10,1
968,-1,1,34,1,35,1,-16,1,-18,1,34,1,7,1,13,1,26,1,19,1,-39,1,10,1
969,-7,1,34,1,41,1,-13,1,-24,1,37,1,8,1,14,1,26,1,21,1,-35,1,13,1
970,-5,1,33,1,38,1,-14,1,-21,1,35,1,8,1,13,1,23,1,18,1,-37,1,10,1
971,2,1,29,1,27,1,-15,1,-12,1,28,1,4,1,10,1,18,1,13,1,-40,1,5,1
972,1,1,26,1,25,1,-13,1,-12,1,26,1,4,1,10,1,17,1,12,1,-39,1,5,1
973,3,1,27,1,24,1,-15,1,-10,1,26,1,5,1,10,1,15,1,11,1,-37,1,6,1
974,8,1,26,1,18,1,-17,1,-5,1,22,1,5,1,11,1,14,1,7,1,-39,1,5,1
975,13,1,25,1,12,1,-19,1,1,1,19,1,2,1,8,1,12,1,5,1,-39,1,6,1
976,9,1,23,1,14,1,-16,1,-2,1,19,1,2,1,6,1,10,1,7,1,-36,1,10,1
977,1,1,23,1,22,1,-12,1,-10,1,23,1,4,1,8,1,12,1,9,1,-31,1,12,1
978,2,1,23,1,21,1,-12,1,-9,1,22,1,5,1,9,1,12,1,9,1,-29,1,11,1
979,3,1,26,1,23,1,-14,1,-10,1,25,1,3,1,9,1,10,1,11,1,-25,1,12,1
980,4,1,26,1,22,1,-15,1,-9,1,24,1,3,1,9,1,9,1,9,1,-25,1,10,1
981,3,1,24,1,21,1,-13,1,-9,1,23,1,5,1,8,1,7,1,7,1,-26,1,8,1
982,2,1,23,1,21,1,-12,1,-9,1,22,1,4,1,7,1,5,1,6,1,-27,1,8,1
983,2,1,21,1,19,1,-11,1,-8,1,20,1,4,1,6,1,4,1,5,1,-26,1,8,1
984,2,1,20,1,18,1,-11,1,-8,1,19,1,4,1,6,1,3,1,3,1,-29,1,6,1
985,1,1,19,1,18,1,-10,1,-8,1,19,1,4,1,6,1,3,1,2,1,-29,1,6,1
986,1,1,18,1,17,1,-9,1,-8,1,18,1,4,1,6,1,4,1,1,1,-28,1,6,1
987,2,1,17,1,15,1,-9,1,-6,1,16,1,4,1,7,1,3,1,0,1,-29,1,6,1
988,4,1,17,1,13,1,-10,1,-4,1,15,1,3,1,7,1,3,1,-1,1,-30,1,5,1
989,6,1,18,1,12,1,-12,1,-3,1,15,1,1,1,6,1,2,1,0,1,-28,1,5,1
990,7,1,18,1,11,1,-12,1,-2,1,15,1,1,1,6,1,1,1,-2,1,-30,1,2,1
991,6,1,16,1,10,1,-11,1,-2,1,13,1,2,1,6,1,1,1,-4,1,-31,1,0,1
992,4,1,15,1,11,1,-9,1,-3,1,13,1,2,1,7,1,2,1,-3,1,-28,1,0,1
993,2,1,13,1,11,1,-7,1,-4,1,12,1,3,1,9,1,3,1,-1,1,-25,1,3,1
994,5,1,15,1,10,1,-10,1,-2,1,13,1,4,1,9,1,3,1,-3,1,-23,1,3,1
995,8,1,17,1,9,1,-12,1,0,1,13,1,3,1,9,1,3,1,-1,1,-19,1,7,1
996,8,1,18,1,10,1,-13,1,-1,1,14,1,2,1,8,1,2,1,0,1,-15,1,10,1
997,7,1,19,1,12,1,-13,1,-2,1,16,1,3,1,8,1,2,1,0,1,-13,1,11,1
998,7,1,19,1,12,1,-13,1,-2,1,16,1,3,1,9,1,3,1,0,1,-14,1,8,1
999,7,1,21,1,14,1,-14,1,-3,1,18,1,2,1,9,1,4,1,1,1,-13,1,8,1
1000,5,1,19,1,14,1,-12,1,-4,1,17,1,3,1,10,1,4,1,0,1,-14,1,6,1
1001,6,1,18,1,12,1,-12,1,-3,1,15,1,5,1,9,1,4,1,-3,1,-16,1,2,1
1002,3,1,17,1,14,1,-10,1,-5,1,16,1,5,1,7,1,2,1,-5,1,-16,1,2,1
1003,2,1,14,1,12,1,-8,1,-5,1,13,1,4,1,6,1,1,1,-6,1,-16,1,2,1
1004,5,1,15,1,10,1,-10,1,-2,1,13,1,7,1,7,1,0,1,-8,1,-17,1,0,1
1005,5,1,14,1,9,1,-9,1,-2,1,12,1,9,1,9,1,1,1,-6,1,-15,1,1,1
1006,5,1,13,1,8,1,-9,1,-1,1,11,1,8,1,8,1,1,1,-5,1,-12,1,3,1
1007,7,1,12,1,5,1,-9,1,1,1,9,1,8,1,9,1,1,1,-5,1,-12,1,4,1
1008,9,1,12,1,3,1,-10,1,3,1,8,1,6,1,9,1,1,1,-5,1,-12,1,3,1
1009,8,1,12,1,4,1,-10,1,2,1,8,1,5,1,8,1,1,1,-4,1,-10,1,3,1
1010,10,1,12,1,2,1,-11,1,4,1,7,1,5,1,7,1,0,1,-6,1,-14,1,-3,1
1011,14,1,12,1,-2,1,-13,1,8,1,5,1,4,1,5,1,-2,1,-10,1,-17,1,-8,1
1012,17,1,13,1,-4,1,-15,1,11,1,5,1,3,1,3,1,-3,1,-13,1,-18,1,-10,1
1013,13,1,15,1,2,1,-14,1,6,1,9,1,4,1,6,1,0,1,-10,1,-14,1,-6,1
1014,10,1,16,1,6,1,-13,1,2,1,11,1,6,1,9,1,1,1,-9,1,-10,1,-3,1
1015,7,1,14,1,7,1,-10,1,0,1,11,1,4,1,9,1,2,1,-8,1,-5,1,1,1
1016,6,1,13,1,7,1,-9,1,0,1,10,1,3,1,9,1,1,1,-8,1,-2,1,3,1
1017,10,1,12,1,2,1,-11,1,4,1,7,1,2,1,8,1,0,1,-9,1,-3,1,0,1
1018,12,1,12,1,0,1,-12,1,6,1,6,1,4,1,10,1,0,1,-11,1,-3,1,-1,1
1019,12,1,12,1,0,1,-12,1,6,1,6,1,3,1,10,1,1,1,-9,1,-1,1,-2,1
1020,14,1,12,1,-2,1,-13,1,8,1,5,1,5,1,9,1,0,1,-10,1,-2,1,-5,1
1021,15,1,14,1,-1,1,-14,1,8,1,7,1,5,1,8,1,0,1,-12,1,-3,1,-8,1
1022,12,1,15,1,3,1,-13,1,5,1,9,1,5,1,7,1,-1,1,-13,1,-2,1,-8,1
1023,12,1,17,1,5,1,-14,1,4,1,11,1,5,1,7,1,-1,1,-12,1,0,1,-6,1
1024,16,1,17,1,1,1,-16,1,8,1,9,1,4,1,6,1,-1,1,-15,1,-2,1,-6,1
1025,19,1,15,1,-4,1,-17,1,12,1,6,1,2,1,4,1,-3,1,-18,1,-3,1,-6,1
1026,18,1,13,1,-5,1,-15,1,12,1,4,1,2,1,4,1,-2,1,-17,1,-2,1,-5,1
1027,15,1,12,1,-3,1,-13,1,9,1,5,1,2,1,6,1,-2,1,-16,1,-1,1,-4,1
1028,17,1,11,1,-6,1,-14,1,12,1,3,1,3,1,8,1,-1,1,-15,1,0,1,-5,1
1029,23,1,12,1,-11,1,-17,1,17,1,1,1,2,1,8,1,-1,1,-12,1,2,1,-3,1
1030,19,1,12,1,-7,1,-15,1,13,1,3,1,4,1,9,1,0,1,-11,1,3,1,-3,1
1031,16,1,11,1,-5,1,-13,1,11,1,3,1,6,1,9,1,0,1,-11,1,4,1,-5,1
1032,16,1,12,1,-4,1,-14,1,10,1,4,1,6,1,7,1,0,1,-10,1,5,1,-5,1
1033,17,1,13,1,-4,1,-15,1,11,1,5,1,5,1,6,1,0,1,-10,1,6,1,-4,1
1034,17,1,12,1,-5,1,-14,1,11,1,4,1,5,1,6,1,-1,1,-12,1,5,1,-5,1
1035,18,1,11,1,-7,1,-14,1,13,1,2,1,2,1,4,1,-2,1,-10,1,5,1,-3,1
1036,16,1,11,1,-5,1,-13,1,11,1,3,1,0,1,3,1,-2,1,-9,1,7,1,-1,1
1037,17,1,11,1,-6,1,-14,1,12,1,3,1,0,1,3,1,-2,1,-9,1,8,1,-2,1
1038,19,1,11,1,-8,1,-15,1,14,1,2,1,0,1,3,1,-3,1,-9,1,6,1,-5,1
1039,23,1,15,1,-8,1,-19,1,16,1,4,1,0,1,4,1,-2,1,-7,1,9,1,-5,1
1040,28,1,15,1,-13,1,-21,1,21,1,1,1,-1,1,3,1,-4,1,-7,1,9,1,-8,1
1041,27,1,14,1,-13,1,-20,1,20,1,1,1,-1,1,3,1,-4,1,-7,1,9,1,-10,1
1042,27,1,13,1,-14,1,-20,1,21,1,0,1,-1,1,2,1,-3,1,-9,1,9,1,-11,1
1043,28,1,13,1,-15,1,-20,1,22,1,-1,1,0,1,2,1,-3,1,-9,1,11,1,-10,1
1044,27,1,12,1,-15,1,-19,1,21,1,-1,1,1,1,2,1,-4,1,-10,1,10,1,-10,1
1045,29,1,12,1,-17,1,-20,1,23,1,-2,1,0,1,2,1,-4,1,-8,1,13,1,-5,1
1046,29,1,13,1,-16,1,-21,1,23,1,-1,1,0,1,4,1,-3,1,-4,1,18,1,1,1
1047,30,1,12,1,-18,1,-21,1,24,1,-3,1,0,1,5,1,-2,1,-2,1,20,1,2,1
1048,30,1,12,1,-18,1,-21,1,24,1,-3,1,1,1,6,1,-2,1,-2,1,19,1,-1,1
1049,30,1,12,1,-18,1,-21,1,24,1,-3,1,0,1,4,1,-4,1,-3,1,19,1,-4,1
1050,28,1,11,1,-17,1,-19,1,23,1,-3,1,-1,1,2,1,-5,1,-5,1,17,1,-9,1
1051,29,1,14,1,-15,1,-21,1,22,1,0,1,0,1,1,1,-6,1,-6,1,17,1,-12,1
1052,29,1,16,1,-13,1,-22,1,21,1,2,1,1,1,0,1,-6,1,-7,1,17,1,-12,1
1053,29,1,16,1,-13,1,-22,1,21,1,2,1,0,1,-1,1,-7,1,-8,1,17,1,-13,1
1054,26,1,13,1,-13,1,-19,1,20,1,0,1,-2,1,0,1,-8,1,-10,1,16,1,-13,1
1055,30,1,13,1,-17,1,-21,1,24,1,-2,1,-3,1,0,1,-9,1,-9,1,18,1,-10,1
1056,35,1,12,1,-23,1,-23,1,29,1,-5,1,-5,1,0,1,-10,1,-9,1,20,1,-7,1
1057,30,1,10,1,-20,1,-20,1,25,1,-5,1,-3,1,1,1,-9,1,-8,1,22,1,-5,1
1058,30,1,8,1,-22,1,-19,1,26,1,-7,1,-3,1,0,1,-9,1,-8,1,22,1,-5,1
1059,32,1,10,1,-22,1,-21,1,27,1,-6,1,-5,1,-2,1,-10,1,-6,1,25,1,-4,1
1060,27,1,12,1,-15,1,-19,1,21,1,-1,1,-1,1,0,1,-7,1,-2,1,25,1,-6,1
1061,26,1,12,1,-14,1,-19,1,20,1,-1,1,-1,1,0,1,-7,1,-3,1,24,1,-9,1
1062,29,1,14,1,-15,1,-21,1,22,1,0,1,-2,1,-2,1,-10,1,-5,1,21,1,-13,1
1063,28,1,15,1,-13,1,-21,1,21,1,1,1,-4,1,-3,1,-11,1,-6,1,22,1,-13,1
1064,29,1,15,1,-14,1,-22,1,22,1,1,1,-6,1,-2,1,-11,1,-7,1,22,1,-12,1
1065,27,1,12,1,-15,1,-19,1,21,1,-1,1,-8,1,-4,1,-11,1,-7,1,25,1,-8,1
1066,28,1,11,1,-17,1,-19,1,23,1,-3,1,-8,1,-5,1,-12,1,-7,1,26,1,-5,1
1067,30,1,12,1,-18,1,-21,1,24,1,-3,1,-7,1,-4,1,-13,1,-9,1,26,1,-5,1
1068,30,1,11,1,-19,1,-20,1,25,1,-4,1,-7,1,-4,1,-13,1,-12,1,23,1,-8,1
1069,29,1,11,1,-18,1,-20,1,24,1,-3,1,-6,1,-3,1,-13,1,-11,1,23,1,-9,1
1070,31,1,10,1,-21,1,-20,1,26,1,-5,1,-5,1,-2,1,-13,1,-13,1,20,1,-12,1
1071,31,1,8,1,-23,1,-19,1,27,1,-7,1,-5,1,-1,1,-12,1,-15,1,17,1,-14,1
1072,30,1,7,1,-23,1,-18,1,27,1,-8,1,-6,1,-1,1,-12,1,-15,1,18,1,-13,1
1073,28,1,7,1,-21,1,-17,1,25,1,-7,1,-6,1,-2,1,-11,1,-13,1,21,1,-10,1
1074,30,1,8,1,-22,1,-19,1,26,1,-7,1,-7,1,-2,1,-12,1,-13,1,22,1,-9,1
1075,29,1,9,1,-20,1,-19,1,25,1,-5,1,-8,1,-3,1,-13,1,-11,1,25,1,-6,1
1076,29,1,11,1,-18,1,-20,1,24,1,-3,1,-10,1,-6,1,-15,1,-10,1,27,1,-4,1
1077,29,1,12,1,-17,1,-20,1,23,1,-2,1,-10,1,-8,1,-17,1,-11,1,25,1,-6,1
1078,27,1,12,1,-15,1,-19,1,21,1,-1,1,-8,1,-8,1,-18,1,-13,1,22,1,-9,1
1079,31,1,12,1,-19,1,-21,1,25,1,-3,1,-9,1,-10,1,-20,1,-13,1,20,1,-13,1
1080,32,1,12,1,-20,1,-22,1,26,1,-4,1,-10,1,-9,1,-20,1,-15,1,16,1,-18,1
1081,34,1,11,1,-23,1,-22,1,29,1,-6,1,-11,1,-9,1,-20,1,-17,1,14,1,-21,1
1082,35,1,10,1,-25,1,-22,1,30,1,-7,1,-11,1,-7,1,-19,1,-15,1,15,1,-19,1
1083,27,1,10,1,-17,1,-18,1,22,1,-3,1,-9,1,-5,1,-16,1,-11,1,18,1,-15,1
1084,29,1,10,1,-19,1,-19,1,24,1,-4,1,-9,1,-6,1,-16,1,-13,1,15,1,-16,1
1085,30,1,9,1,-21,1,-19,1,26,1,-6,1,-11,1,-9,1,-18,1,-14,1,13,1,-15,1
1086,27,1,8,1,-19,1,-17,1,23,1,-5,1,-12,1,-11,1,-19,1,-13,1,15,1,-12,1
1087,27,1,12,1,-15,1,-19,1,21,1,-1,1,-14,1,-11,1,-19,1,-12,1,16,1,-11,1
1088,28,1,15,1,-13,1,-21,1,21,1,1,1,-14,1,-11,1,-19,1,-12,1,16,1,-11,1
1089,26,1,15,1,-11,1,-20,1,19,1,2,1,-15,1,-11,1,-20,1,-12,1,16,1,-12,1
1090,29,1,17,1,-12,1,-23,1,21,1,3,1,-14,1,-10,1,-19,1,-13,1,16,1,-14,1
1091,33,1,19,1,-14,1,-26,1,24,1,3,1,-13,1,-9,1,-19,1,-15,1,17,1,-14,1
1092,34,1,18,1,-16,1,-26,1,25,1,1,1,-13,1,-9,1,-18,1,-15,1,18,1,-15,1
1093,39,1,18,1,-21,1,-28,1,30,1,-1,1,-15,1,-10,1,-18,1,-15,1,18,1,-16,1
1094,44,1,17,1,-27,1,-30,1,36,1,-5,1,-17,1,-11,1,-19,1,-18,1,14,1,-19,1
1095,39,1,17,1,-22,1,-28,1,31,1,-2,1,-16,1,-12,1,-18,1,-15,1,14,1,-17,1
1096,29,1,17,1,-12,1,-23,1,21,1,3,1,-15,1,-12,1,-18,1,-12,1,16,1,-14,1
1097,25,1,17,1,-8,1,-21,1,17,1,5,1,-14,1,-13,1,-19,1,-11,1,16,1,-13,1
1098,27,1,19,1,-8,1,-23,1,18,1,6,1,-16,1,-16,1,-21,1,-11,1,17,1,-13,1
1099,28,1,20,1,-8,1,-24,1,18,1,6,1,-18,1,-16,1,-22,1,-9,1,21,1,-13,1
1100,30,1,21,1,-9,1,-25,1,20,1,6,1,-18,1,-15,1,-22,1,-10,1,20,1,-14,1
1101,34,1,25,1,-9,1,-29,1,22,1,8,1,-18,1,-15,1,-21,1,-11,1,21,1,-16,1
1102,40,1,28,1,-12,1,-34,1,26,1,8,1,-19,1,-15,1,-20,1,-10,1,21,1,-16,1
1103,41,1,31,1,-10,1,-36,1,26,1,11,1,-20,1,-15,1,-20,1,-9,1,21,1,-15,1
1104,42,1,32,1,-10,1,-37,1,26,1,11,1,-20,1,-14,1,-20,1,-14,1,16,1,-19,1
1105,43,1,31,1,-12,1,-37,1,28,1,10,1,-21,1,-16,1,-21,1,-15,1,12,1,-20,1
1106,38,1,28,1,-10,1,-33,1,24,1,9,1,-20,1,-16,1,-22,1,-17,1,11,1,-19,1
1107,29,1,24,1,-5,1,-26,1,17,1,10,1,-19,1,-15,1,-23,1,-17,1,11,1,-18,1
1108,32,1,23,1,-9,1,-27,1,21,1,7,1,-19,1,-15,1,-24,1,-17,1,12,1,-17,1
1109,38,1,21,1,-17,1,-29,1,28,1,2,1,-22,1,-17,1,-26,1,-17,1,15,1,-15,1
1110,42,1,16,1,-26,1,-29,1,34,1,-5,1,-23,1,-19,1,-28,1,-21,1,12,1,-19,1
1111,44,1,14,1,-30,1,-29,1,37,1,-8,1,-23,1,-18,1,-29,1,-22,1,11,1,-21,1
1112,45,1,15,1,-30,1,-30,1,38,1,-7,1,-23,1,-18,1,-27,1,-21,1,11,1,-19,1
1113,44,1,15,1,-29,1,-29,1,37,1,-7,1,-24,1,-20,1,-27,1,-21,1,12,1,-16,1
1114,43,1,16,1,-27,1,-29,1,35,1,-5,1,-25,1,-21,1,-28,1,-23,1,7,1,-18,1
1115,43,1,19,1,-24,1,-31,1,34,1,-2,1,-27,1,-23,1,-29,1,-23,1,5,1,-19,1
1116,44,1,21,1,-23,1,-32,1,34,1,-1,1,-29,1,-25,1,-31,1,-23,1,3,1,-20,1
1117,45,1,22,1,-23,1,-33,1,34,1,0,1,-30,1,-25,1,-32,1,-23,1,2,1,-19,1
1118,46,1,22,1,-24,1,-34,1,35,1,-1,1,-30,1,-23,1,-31,1,-22,1,2,1,-19,1
1119,48,1,24,1,-24,1,-36,1,36,1,0,1,-30,1,-23,1,-31,1,-20,1,5,1,-16,1
1120,50,1,24,1,-26,1,-37,1,38,1,-1,1,-28,1,-22,1,-31,1,-21,1,6,1,-15,1
1121,52,1,25,1,-27,1,-38,1,40,1,-1,1,-28,1,-23,1,-31,1,-23,1,7,1,-14,1
1122,52,1,25,1,-27,1,-38,1,40,1,-1,1,-29,1,-24,1,-31,1,-22,1,7,1,-14,1
1123,51,1,25,1,-26,1,-38,1,39,1,0,1,-29,1,-24,1,-30,1,-23,1,6,1,-15,1
1124,50,1,23,1,-27,1,-36,1,39,1,-2,1,-29,1,-24,1,-31,1,-25,1,0,1,-18,1
1125,50,1,21,1,-29,1,-35,1,40,1,-4,1,-30,1,-26,1,-32,1,-24,1,-1,1,-18,1
1126,49,1,22,1,-27,1,-35,1,38,1,-2,1,-32,1,-29,1,-32,1,-21,1,0,1,-15,1
1127,53,1,25,1,-28,1,-39,1,41,1,-1,1,-31,1,-30,1,-32,1,-21,1,0,1,-15,1
1128,51,1,24,1,-27,1,-37,1,39,1,-1,1,-30,1,-28,1,-31,1,-20,1,1,1,-14,1
1129,52,1,26,1,-26,1,-39,1,39,1,0,1,-30,1,-27,1,-31,1,-17,1,5,1,-12,1
1130,57,1,24,1,-33,1,-40,1,45,1,-4,1,-31,1,-27,1,-33,1,-23,1,2,1,-16,1
1131,54,1,21,1,-33,1,-37,1,44,1,-6,1,-29,1,-25,1,-34,1,-27,1,0,1,-19,1
1132,55,1,19,1,-36,1,-37,1,46,1,-8,1,-28,1,-24,1,-34,1,-28,1,-2,1,-20,1
1133,56,1,16,1,-40,1,-36,1,48,1,-12,1,-26,1,-23,1,-34,1,-29,1,-3,1,-21,1
1134,57,1,14,1,-43,1,-35,1,50,1,-14,1,-24,1,-22,1,-35,1,-31,1,-8,1,-24,1
1135,59,1,11,1,-48,1,-35,1,54,1,-18,1,-25,1,-23,1,-35,1,-31,1,-10,1,-25,1
1136,59,1,10,1,-49,1,-34,1,54,1,-19,1,-24,1,-22,1,-34,1,-29,1,-10,1,-25,1
1137,57,1,8,1,-49,1,-32,1,53,1,-20,1,-23,1,-22,1,-33,1,-30,1,-10,1,-25,1
1138,59,1,6,1,-53,1,-32,1,56,1,-23,1,-23,1,-22,1,-34,1,-33,1,-11,1,-28,1
1139,60,1,4,1,-56,1,-32,1,58,1,-26,1,-23,1,-24,1,-35,1,-33,1,-10,1,-29,1
1140,60,1,3,1,-57,1,-31,1,59,1,-27,1,-23,1,-22,1,-35,1,-34,1,-11,1,-30,1
1141,61,1,3,1,-58,1,-32,1,60,1,-27,1,-22,1,-20,1,-35,1,-34,1,-13,1,-31,1
1142,63,1,4,1,-59,1,-33,1,61,1,-27,1,-22,1,-20,1,-35,1,-32,1,-13,1,-31,1
1143,62,1,3,1,-59,1,-32,1,61,1,-28,1,-22,1,-18,1,-34,1,-30,1,-14,1,-32,1
1144,62,1,1,1,-61,1,-31,1,62,1,-30,1,-20,1,-17,1,-34,1,-32,1,-17,1,-34,1
1145,62,1,1,1,-61,1,-31,1,62,1,-30,1,-21,1,-19,1,-34,1,-32,1,-18,1,-34,1
1146,64,1,2,1,-62,1,-33,1,63,1,-30,1,-22,1,-21,1,-36,1,-32,1,-18,1,-35,1
1147,64,1,0,1,-64,1,-32,1,64,1,-32,1,-23,1,-22,1,-36,1,-35,1,-20,1,-37,1
1148,67,1,0,1,-67,1,-33,1,67,1,-33,1,-24,1,-22,1,-36,1,-37,1,-21,1,-40,1
1149,70,1,3,1,-67,1,-36,1,69,1,-32,1,-25,1,-22,1,-36,1,-34,1,-19,1,-38,1
1150,69,1,3,1,-66,1,-36,1,68,1,-31,1,-24,1,-22,1,-37,1,-34,1,-19,1,-39,1
1151,65,1,2,1,-63,1,-33,1,64,1,-30,1,-23,1,-22,1,-37,1,-33,1,-20,1,-40,1
1152,66,1,3,1,-63,1,-34,1,65,1,-30,1,-22,1,-21,1,-36,1,-34,1,-23,1,-41,1
1153,68,1,3,1,-65,1,-35,1,67,1,-31,1,-23,1,-20,1,-37,1,-33,1,-25,1,-42,1
1154,67,1,1,1,-66,1,-34,1,67,1,-32,1,-21,1,-19,1,-36,1,-34,1,-29,1,-43,1
1155,64,1,0,1,-64,1,-32,1,64,1,-32,1,-21,1,-19,1,-36,1,-33,1,-28,1,-41,1
1156,65,1,0,1,-65,1,-32,1,65,1,-32,1,-21,1,-19,1,-36,1,-32,1,-27,1,-41,1
1157,71,1,0,1,-71,1,-35,1,71,1,-35,1,-22,1,-21,1,-37,1,-34,1,-30,1,-45,1
1158,68,1,1,1,-67,1,-34,1,68,1,-33,1,-22,1,-20,1,-35,1,-33,1,-29,1,-46,1
1159,67,1,1,1,-66,1,-34,1,67,1,-32,1,-23,1,-22,1,-34,1,-31,1,-28,1,-45,1
1160,72,1,2,1,-70,1,-37,1,71,1,-34,1,-23,1,-24,1,-36,1,-35,1,-34,1,-50,1
1161,71,1,2,1,-69,1,-36,1,70,1,-33,1,-22,1,-22,1,-35,1,-36,1,-37,1,-51,1
1162,67,1,2,1,-65,1,-34,1,66,1,-31,1,-21,1,-19,1,-34,1,-36,1,-38,1,-50,1
1163,69,1,2,1,-67,1,-35,1,68,1,-32,1,-22,1,-20,1,-35,1,-37,1,-41,1,-50,1
1164,73,1,1,1,-72,1,-37,1,73,1,-35,1,-21,1,-21,1,-37,1,-40,1,-46,1,-53,1
1165,73,1,2,1,-71,1,-37,1,72,1,-34,1,-22,1,-23,1,-37,1,-38,1,-44,1,-49,1
1166,72,1,1,1,-71,1,-36,1,72,1,-35,1,-22,1,-23,1,-36,1,-35,1,-41,1,-44,1
1167,74,1,0,1,-74,1,-37,1,74,1,-37,1,-22,1,-22,1,-36,1,-34,1,-40,1,-42,1
1168,75,1,0,1,-75,1,-37,1,75,1,-37,1,-22,1,-22,1,-36,1,-34,1,-40,1,-41,1
1169,71,1,-1,1,-72,1,-35,1,71,1,-36,1,-22,1,-22,1,-35,1,-32,1,-38,1,-38,1
1170,70,1,0,1,-70,1,-35,1,70,1,-35,1,-20,1,-20,1,-34,1,-32,1,-38,1,-38,1
1171,72,1,1,1,-71,1,-36,1,72,1,-35,1,-18,1,-16,1,-31,1,-31,1,-37,1,-39,1
1172,70,1,-1,1,-71,1,-34,1,70,1,-36,1,-15,1,-13,1,-27,1,-30,1,-37,1,-39,1
1173,66,1,-5,1,-71,1,-30,1,68,1,-38,1,-10,1,-11,1,-25,1,-33,1,-40,1,-44,1
1174,66,1,-9,1,-75,1,-28,1,70,1,-42,1,0,1,-4,1,-19,1,-39,1,-46,1,-51,1
1175,65,1,-11,1,-76,1,-27,1,70,1,-43,1,11,1,2,1,-11,1,-41,1,-50,1,-55,1
1176,65,1,-14,1,-79,1,-25,1,72,1,-46,1,21,1,10,1,0,1,-43,1,-53,1,-59,1
1177,63,1,-18,1,-81,1,-22,1,72,1,-49,1,30,1,19,1,13,1,-42,1,-55,1,-63,1
1178,61,1,-21,1,-82,1,-20,1,71,1,-51,1,36,1,25,1,28,1,-39,1,-56,1,-65,1
1179,61,1,-17,1,-78,1,-22,1,69,1,-47,1,39,1,33,1,47,1,-26,1,-48,1,-60,1
1180,64,1,-9,1,-73,1,-27,1,68,1,-41,1,40,1,39,1,64,1,-10,1,-36,1,-52,1
1181,66,1,2,1,-64,1,-34,1,65,1,-31,1,32,1,41,1,78,1,12,1,-18,1,-39,1
1182,71,1,16,1,-55,1,-43,1,63,1,-19,1,20,1,41,1,90,1,42,1,5,1,-22,1
1183,78,1,31,1,-47,1,-54,1,63,1,-8,1,6,1,39,1,99,1,73,1,32,1,-4,1
1184,86,1,45,1,-41,1,-65,1,64,1,2,1,-8,1,38,1,108,1,106,1,60,1,14,1
1185,93,1,59,1,-34,1,-76,1,64,1,13,1,-25,1,33,1,114,1,143,1,89,1,37,1
1186,102,1,75,1,-27,1,-88,1,65,1,24,1,-46,1,25,1,116,1,180,1,113,1,59,1
1187,108,1,93,1,-15,1,-100,1,62,1,39,1,-67,1,12,1,113,1,212,1,132,1,82,1
1188,110,1,113,1,3,1,-111,1,54,1,58,1,-86,1,0,1,109,1,240,1,151,1,104,1
1189,112,1,134,1,22,1,-123,1,45,1,78,1,-104,1,-16,1,101,1,264,1,169,1,124,1
1190,113,1,153,1,40,1,-133,1,37,1,97,1,-115,1,-31,1,86,1,276,1,177,1,139,1
1191,111,1,155,1,44,1,-133,1,34,1,100,1,-123,1,-42,1,67,1,276,1,175,1,145,1
1192,110,1,140,1,30,1,-125,1,40,1,85,1,-122,1,-46,1,45,1,263,1,164,1,142,1
1193,111,1,114,1,3,1,-112,1,54,1,59,1,-114,1,-47,1,17,1,233,1,141,1,130,1
1194,110,1,79,1,-31,1,-94,1,71,1,24,1,-103,1,-49,1,-19,1,183,1,103,1,106,1
1195,100,1,43,1,-57,1,-71,1,79,1,-7,1,-93,1,-54,1,-60,1,121,1,60,1,79,1
1196,90,1,12,1,-78,1,-51,1,84,1,-33,1,-83,1,-57,1,-93,1,62,1,15,1,51,1
1197,82,1,-13,1,-95,1,-34,1,88,1,-54,1,-74,1,-57,1,-114,1,11,1,-27,1,25,1
1198,75,1,-31,1,-106,1,-22,1,90,1,-68,1,-66,1,-56,1,-124,1,-29,1,-64,1,3,1
1199,72,1,-40,1,-112,1,-16,1,92,1,-76,1,-59,1,-54,1,-127,1,-55,1,-90,1,-12,1
1200,70,1,-46,1,-116,1,-12,1,93,1,-81,1,-51,1,-50,1,-127,1,-75,1,-113,1,-26,1
1201,66,1,-52,1,-118,1,-7,1,92,1,-85,1,-44,1,-44,1,-122,1,-85,1,-130,1,-36,1
1202,61,1,-57,1,-118,1,-2,1,89,1,-87,1,-39,1,-40,1,-114,1,-90,1,-142,1,-44,1
1203,59,1,-59,1,-118,1,0,1,88,1,-88,1,-33,1,-34,1,-104,1,-88,1,-148,1,-50,1
1204,60,1,-54,1,-114,1,-3,1,87,1,-84,1,-29,1,-29,1,-93,1,-86,1,-152,1,-53,1
1205,61,1,-51,1,-112,1,-5,1,86,1,-81,1,-26,1,-25,1,-83,1,-79,1,-152,1,-53,1
1206,57,1,-47,1,-104,1,-5,1,80,1,-75,1,-23,1,-21,1,-71,1,-71,1,-150,1,-50,1
1207,55,1,-45,1,-100,1,-5,1,77,1,-72,1,-20,1,-17,1,-61,1,-65,1,-150,1,-49,1
1208,53,1,-44,1,-97,1,-4,1,75,1,-70,1,-17,1,-13,1,-54,1,-61,1,-153,1,-50,1
1209,53,1,-43,1,-96,1,-5,1,74,1,-69,1,-15,1,-11,1,-49,1,-58,1,-154,1,-51,1
1210,55,1,-42,1,-97,1,-6,1,76,1,-69,1,-12,1,-9,1,-46,1,-58,1,-158,1,-54,1
1211,55,1,-40,1,-95,1,-7,1,75,1,-67,1,-10,1,-8,1,-42,1,-57,1,-159,1,-54,1
1212,55,1,-36,1,-91,1,-9,1,73,1,-63,1,-10,1,-8,1,-38,1,-53,1,-157,1,-51,1
1213,52,1,-33,1,-85,1,-9,1,68,1,-59,1,-11,1,-9,1,-38,1,-51,1,-157,1,-49,1
1214,50,1,-31,1,-81,1,-9,1,65,1,-56,1,-11,1,-10,1,-36,1,-52,1,-159,1,-49,1
1215,44,1,-29,1,-73,1,-7,1,58,1,-51,1,-12,1,-13,1,-36,1,-52,1,-159,1,-47,1
1216,42,1,-27,1,-69,1,-7,1,55,1,-48,1,-15,1,-15,1,-37,1,-51,1,-159,1,-47,1
1217,44,1,-24,1,-68,1,-10,1,56,1,-46,1,-15,1,-16,1,-36,1,-50,1,-161,1,-47,1
1218,46,1,-25,1,-71,1,-10,1,58,1,-48,1,-15,1,-15,1,-35,1,-51,1,-161,1,-47,1
1219,46,1,-26,1,-72,1,-10,1,59,1,-49,1,-15,1,-15,1,-35,1,-52,1,-160,1,-45,1
1220,48,1,-26,1,-74,1,-11,1,61,1,-50,1,-13,1,-13,1,-35,1,-54,1,-162,1,-47,1
1221,50,1,-24,1,-74,1,-13,1,62,1,-49,1,-12,1,-13,1,-35,1,-56,1,-162,1,-47,1
1222,49,1,-24,1,-73,1,-12,1,61,1,-48,1,-12,1,-13,1,-35,1,-55,1,-162,1,-46,1
1223,46,1,-24,1,-70,1,-11,1,58,1,-47,1,-11,1,-14,1,-36,1,-56,1,-165,1,-47,1
1224,45,1,-23,1,-68,1,-11,1,56,1,-45,1,-12,1,-14,1,-37,1,-57,1,-168,1,-49,1
1225,47,1,-23,1,-70,1,-12,1,58,1,-46,1,-16,1,-14,1,-37,1,-55,1,-169,1,-49,1
1226,48,1,-24,1,-72,1,-12,1,60,1,-48,1,-18,1,-17,1,-37,1,-53,1,-168,1,-47,1
1227,42,1,-25,1,-67,1,-8,1,54,1,-46,1,-16,1,-14,1,-34,1,-50,1,-165,1,-44,1
1228,40,1,-27,1,-67,1,-6,1,53,1,-47,1,-15,1,-14,1,-33,1,-52,1,-166,1,-44,1
1229,41,1,-26,1,-67,1,-7,1,54,1,-46,1,-15,1,-13,1,-32,1,-52,1,-166,1,-43,1
1230,41,1,-27,1,-68,1,-7,1,54,1,-47,1,-14,1,-14,1,-33,1,-55,1,-168,1,-46,1
1231,41,1,-29,1,-70,1,-6,1,55,1,-49,1,-14,1,-13,1,-35,1,-58,1,-171,1,-50,1
1232,41,1,-30,1,-71,1,-5,1,56,1,-50,1,-16,1,-14,1,-37,1,-60,1,-174,1,-52,1
1233,37,1,-34,1,-71,1,-1,1,54,1,-52,1,-16,1,-15,1,-40,1,-61,1,-175,1,-53,1
1234,37,1,-34,1,-71,1,-1,1,54,1,-52,1,-15,1,-15,1,-40,1,-62,1,-179,1,-54,1
1235,38,1,-31,1,-69,1,-3,1,53,1,-50,1,-16,1,-15,1,-38,1,-58,1,-177,1,-50,1
1236,34,1,-32,1,-66,1,-1,1,50,1,-49,1,-16,1,-16,1,-36,1,-55,1,-175,1,-47,1
1237,31,1,-33,1,-64,1,1,1,47,1,-48,1,-14,1,-15,1,-36,1,-55,1,-175,1,-45,1
1238,30,1,-31,1,-61,1,0,1,45,1,-46,1,-13,1,-15,1,-34,1,-54,1,-175,1,-43,1
1239,30,1,-30,1,-60,1,0,1,45,1,-45,1,-14,1,-15,1,-34,1,-53,1,-174,1,-41,1
1240,35,1,-29,1,-64,1,-3,1,49,1,-46,1,-13,1,-15,1,-37,1,-56,1,-175,1,-42,1
1241,36,1,-30,1,-66,1,-3,1,51,1,-48,1,-14,1,-15,1,-39,1,-58,1,-178,1,-44,1
1242,35,1,-31,1,-66,1,-2,1,50,1,-48,1,-14,1,-16,1,-40,1,-60,1,-181,1,-47,1
1243,34,1,-32,1,-66,1,-1,1,50,1,-49,1,-13,1,-15,1,-40,1,-61,1,-184,1,-49,1
1244,32,1,-33,1,-65,1,0,1,48,1,-49,1,-12,1,-13,1,-39,1,-60,1,-184,1,-49,1
1245,30,1,-32,1,-62,1,1,1,46,1,-47,1,-14,1,-14,1,-37,1,-56,1,-182,1,-45,1
1246,28,1,-32,1,-60,1,2,1,44,1,-46,1,-16,1,-15,1,-37,1,-54,1,-181,1,-43,1
1247,26,1,-34,1,-60,1,4,1,43,1,-47,1,-15,1,-16,1,-35,1,-56,1,-182,1,-43,1
1248,27,1,-34,1,-61,1,3,1,44,1,-47,1,-15,1,-16,1,-34,1,-57,1,-183,1,-43,1
1249,27,1,-35,1,-62,1,4,1,44,1,-48,1,-14,1,-16,1,-35,1,-58,1,-183,1,-43,1
1250,29,1,-38,1,-67,1,4,1,48,1,-52,1,-14,1,-16,1,-37,1,-63,1,-188,1,-47,1
1251,27,1,-40,1,-67,1,6,1,47,1,-53,1,-12,1,-14,1,-36,1,-64,1,-190,1,-50,1
1252,24,1,-42,1,-66,1,9,1,45,1,-54,1,-12,1,-12,1,-37,1,-62,1,-189,1,-48,1
1253,22,1,-43,1,-65,1,10,1,43,1,-54,1,-11,1,-11,1,-37,1,-60,1,-187,1,-48,1
1254,20,1,-41,1,-61,1,10,1,40,1,-51,1,-10,1,-10,1,-38,1,-61,1,-188,1,-48,1
1255,18,1,-40,1,-58,1,11,1,38,1,-49,1,-12,1,-11,1,-38,1,-59,1,-187,1,-45,1
1256,19,1,-38,1,-57,1,9,1,38,1,-47,1,-13,1,-12,1,-38,1,-56,1,-186,1,-42,1
1257,21,1,-35,1,-56,1,7,1,38,1,-45,1,-12,1,-12,1,-36,1,-56,1,-186,1,-42,1
1258,19,1,-35,1,-54,1,8,1,36,1,-44,1,-11,1,-12,1,-34,1,-55,1,-184,1,-40,1
1259,16,1,-36,1,-52,1,10,1,34,1,-44,1,-11,1,-14,1,-34,1,-55,1,-184,1,-39,1
1260,15,1,-38,1,-53,1,11,1,34,1,-45,1,-9,1,-12,1,-35,1,-57,1,-187,1,-42,1
1261,15,1,-37,1,-52,1,11,1,33,1,-44,1,-9,1,-11,1,-34,1,-59,1,-188,1,-42,1
1262,15,1,-37,1,-52,1,11,1,33,1,-44,1,-10,1,-10,1,-34,1,-58,1,-187,1,-40,1
1263,14,1,-37,1,-51,1,11,1,32,1,-44,1,-10,1,-10,1,-35,1,-58,1,-186,1,-38,1
1264,14,1,-39,1,-53,1,12,1,33,1,-46,1,-10,1,-9,1,-34,1,-58,1,-189,1,-39,1
1265,13,1,-38,1,-51,1,12,1,32,1,-44,1,-10,1,-8,1,-32,1,-56,1,-189,1,-37,1
1266,12,1,-38,1,-50,1,13,1,31,1,-44,1,-11,1,-9,1,-31,1,-55,1,-189,1,-36,1
1267,13,1,-37,1,-50,1,12,1,31,1,-43,1,-12,1,-11,1,-31,1,-56,1,-191,1,-35,1
1268,13,1,-35,1,-48,1,11,1,30,1,-41,1,-11,1,-11,1,-31,1,-54,1,-190,1,-33,1
1269,9,1,-33,1,-42,1,12,1,25,1,-37,1,-10,1,-10,1,-30,1,-51,1,-187,1,-30,1
1270,5,1,-33,1,-38,1,14,1,21,1,-35,1,-7,1,-8,1,-29,1,-50,1,-186,1,-30,1
1271,5,1,-32,1,-37,1,13,1,21,1,-34,1,-7,1,-8,1,-29,1,-51,1,-187,1,-32,1
1272,6,1,-31,1,-37,1,12,1,21,1,-34,1,-9,1,-8,1,-30,1,-51,1,-189,1,-33,1
1273,7,1,-32,1,-39,1,12,1,23,1,-35,1,-10,1,-8,1,-31,1,-51,1,-191,1,-35,1
1274,8,1,-33,1,-41,1,12,1,24,1,-37,1,-10,1,-6,1,-30,1,-53,1,-194,1,-36,1
1275,4,1,-35,1,-39,1,15,1,21,1,-37,1,-9,1,-5,1,-26,1,-50,1,-192,1,-31,1
1276,1,1,-37,1,-38,1,18,1,19,1,-37,1,-9,1,-6,1,-24,1,-49,1,-192,1,-29,1
1277,2,1,-35,1,-37,1,16,1,19,1,-36,1,-7,1,-6,1,-21,1,-46,1,-191,1,-27,1
1278,0,1,-36,1,-36,1,18,1,18,1,-36,1,-6,1,-7,1,-19,1,-46,1,-191,1,-27,1
1279,-2,1,-34,1,-32,1,18,1,15,1,-33,1,-6,1,-5,1,-18,1,-44,1,-190,1,-26,1
1280,-1,1,-33,1,-32,1,17,1,15,1,-33,1,-5,1,-4,1,-18,1,-45,1,-191,1,-29,1
1281,-1,1,-32,1,-31,1,16,1,15,1,-32,1,-4,1,-3,1,-18,1,-46,1,-193,1,-31,1
1282,-1,1,-31,1,-30,1,16,1,14,1,-31,1,-4,1,-2,1,-17,1,-45,1,-193,1,-32,1
1283,-1,1,-31,1,-30,1,16,1,14,1,-31,1,-4,1,-2,1,-17,1,-44,1,-193,1,-31,1
1284,0,1,-31,1,-31,1,15,1,15,1,-31,1,-4,1,-2,1,-15,1,-44,1,-193,1,-32,1
1285,-2,1,-31,1,-29,1,16,1,13,1,-30,1,-5,1,-2,1,-14,1,-40,1,-190,1,-29,1
1286,-3,1,-31,1,-28,1,17,1,12,1,-30,1,-6,1,-3,1,-12,1,-37,1,-188,1,-24,1
1287,-5,1,-31,1,-26,1,18,1,10,1,-29,1,-5,1,-2,1,-11,1,-35,1,-188,1,-22,1
1288,-5,1,-30,1,-25,1,17,1,10,1,-28,1,-5,1,-2,1,-8,1,-33,1,-186,1,-19,1
1289,-2,1,-28,1,-26,1,15,1,12,1,-27,1,-7,1,-3,1,-8,1,-31,1,-186,1,-18,1
1290,0,1,-28,1,-28,1,14,1,14,1,-28,1,-6,1,-2,1,-7,1,-34,1,-192,1,-25,1
1291,-6,1,-26,1,-20,1,16,1,7,1,-23,1,-4,1,1,1,-2,1,-30,1,-192,1,-26,1
1292,-8,1,-23,1,-15,1,15,1,3,1,-19,1,-4,1,4,1,0,1,-26,1,-190,1,-25,1
1293,-9,1,-21,1,-12,1,15,1,1,1,-17,1,-5,1,5,1,1,1,-25,1,-191,1,-26,1
1294,-9,1,-21,1,-12,1,15,1,1,1,-17,1,-2,1,5,1,3,1,-25,1,-194,1,-28,1
1295,-10,1,-21,1,-11,1,15,1,0,1,-16,1,-1,1,6,1,4,1,-23,1,-192,1,-25,1
1296,-10,1,-21,1,-11,1,15,1,0,1,-16,1,-1,1,5,1,6,1,-21,1,-190,1,-21,1
1297,-12,1,-21,1,-9,1,16,1,-2,1,-15,1,0,1,6,1,6,1,-21,1,-190,1,-19,1
1298,-11,1,-22,1,-11,1,16,1,0,1,-17,1,1,1,7,1,9,1,-19,1,-190,1,-18,1
1299,-8,1,-20,1,-12,1,14,1,2,1,-16,1,1,1,7,1,12,1,-15,1,-187,1,-15,1
1300,-8,1,-18,1,-10,1,13,1,1,1,-14,1,1,1,7,1,13,1,-13,1,-187,1,-16,1
1301,-10,1,-16,1,-6,1,13,1,-2,1,-11,1,-1,1,8,1,15,1,-11,1,-186,1,-16,1
1302,-12,1,-14,1,-2,1,13,1,-5,1,-8,1,-2,1,9,1,17,1,-8,1,-185,1,-16,1
1303,-12,1,-14,1,-2,1,13,1,-5,1,-8,1,-2,1,10,1,19,1,-7,1,-186,1,-16,1
1304,-12,1,-13,1,-1,1,12,1,-6,1,-7,1,0,1,12,1,21,1,-6,1,-187,1,-17,1
1305,-12,1,-11,1,1,1,11,1,-7,1,-5,1,0,1,11,1,23,1,-4,1,-185,1,-13,1
1306,-10,1,-9,1,1,1,9,1,-6,1,-4,1,1,1,11,1,24,1,-2,1,-183,1,-10,1
1307,-10,1,-7,1,3,1,8,1,-7,1,-2,1,2,1,10,1,25,1,0,1,-184,1,-9,1
1308,-12,1,-5,1,7,1,8,1,-10,1,1,1,2,1,12,1,27,1,1,1,-183,1,-8,1
1309,-10,1,-5,1,5,1,7,1,-8,1,0,1,0,1,11,1,27,1,3,1,-184,1,-9,1
1310,-7,1,-5,1,2,1,6,1,-5,1,-2,1,-1,1,12,1,27,1,2,1,-186,1,-11,1
1311,-10,1,-5,1,5,1,7,1,-8,1,0,1,1,1,16,1,31,1,5,1,-185,1,-10,1
1312,-12,1,-7,1,5,1,9,1,-9,1,-1,1,1,1,17,1,33,1,7,1,-185,1,-10,1
1313,-12,1,-8,1,4,1,10,1,-8,1,-2,1,3,1,18,1,36,1,9,1,-185,1,-9,1
1314,-12,1,-5,1,7,1,8,1,-10,1,1,1,4,1,19,1,38,1,10,1,-185,1,-8,1
1315,-13,1,-2,1,11,1,7,1,-12,1,4,1,5,1,18,1,40,1,13,1,-182,1,-3,1
1316,-13,1,0,1,13,1,6,1,-13,1,6,1,5,1,17,1,40,1,17,1,-178,1,0,1
1317,-15,1,0,1,15,1,7,1,-15,1,7,1,6,1,17,1,39,1,18,1,-177,1,2,1
1318,-14,1,2,1,16,1,6,1,-15,1,9,1,6,1,18,1,39,1,20,1,-177,1,3,1
1319,-15,1,4,1,19,1,5,1,-17,1,11,1,5,1,18,1,39,1,22,1,-176,1,4,1
1320,-14,1,4,1,18,1,5,1,-16,1,11,1,5,1,19,1,38,1,22,1,-178,1,1,1
1321,-14,1,5,1,19,1,4,1,-16,1,12,1,3,1,19,1,38,1,22,1,-180,1,-1,1
1322,-13,1,6,1,19,1,3,1,-16,1,12,1,1,1,17,1,37,1,20,1,-182,1,-3,1
1323,-15,1,5,1,20,1,5,1,-17,1,12,1,-1,1,16,1,37,1,20,1,-184,1,-4,1
1324,-16,1,8,1,24,1,4,1,-20,1,16,1,1,1,17,1,38,1,20,1,-185,1,-3,1
1325,-16,1,8,1,24,1,4,1,-20,1,16,1,1,1,15,1,36,1,19,1,-185,1,-1,1
1326,-11,1,9,1,20,1,1,1,-15,1,14,1,0,1,14,1,32,1,18,1,-185,1,-1,1
1327,-14,1,9,1,23,1,2,1,-18,1,16,1,3,1,15,1,31,1,17,1,-186,1,0,1
1328,-18,1,7,1,25,1,5,1,-21,1,16,1,4,1,16,1,30,1,16,1,-188,1,1,1
1329,-19,1,5,1,24,1,7,1,-21,1,14,1,5,1,17,1,28,1,16,1,-189,1,2,1
1330,-15,1,3,1,18,1,6,1,-16,1,10,1,4,1,15,1,24,1,12,1,-194,1,-3,1
1331,-16,1,1,1,17,1,7,1,-16,1,9,1,4,1,15,1,24,1,10,1,-196,1,-4,1
1332,-15,1,2,1,17,1,6,1,-16,1,9,1,2,1,14,1,23,1,10,1,-196,1,-2,1
1333,-15,1,4,1,19,1,5,1,-17,1,11,1,2,1,13,1,22,1,9,1,-197,1,-2,1
1334,-16,1,5,1,21,1,5,1,-18,1,13,1,2,1,13,1,20,1,5,1,-201,1,-5,1
1335,-18,1,4,1,22,1,7,1,-20,1,13,1,1,1,12,1,18,1,3,1,-202,1,-3,1
1336,-19,1,3,1,22,1,8,1,-20,1,12,1,1,1,12,1,16,1,3,1,-202,1,-3,1
1337,-20,1,1,1,21,1,9,1,-20,1,11,1,0,1,12,1,15,1,3,1,-202,1,-2,1
1338,-19,1,1,1,20,1,9,1,-19,1,10,1,0,1,12,1,13,1,4,1,-201,1,-2,1
1339,-21,1,0,1,21,1,10,1,-21,1,10,1,-1,1,10,1,11,1,6,1,-200,1,-1,1
1340,-19,1,0,1,19,1,9,1,-19,1,9,1,0,1,11,1,9,1,3,1,-203,1,-4,1
1341,-20,1,0,1,20,1,10,1,-20,1,10,1,0,1,10,1,8,1,1,1,-207,1,-7,1
1342,-22,1,-1,1,21,1,11,1,-22,1,10,1,0,1,10,1,8,1,0,1,-209,1,-8,1
1343,-21,1,-1,1,20,1,11,1,-21,1,9,1,0,1,10,1,7,1,-3,1,-212,1,-11,1
1344,-21,1,-3,1,18,1,12,1,-20,1,7,1,1,1,11,1,7,1,-5,1,-216,1,-13,1
1345,-23,1,-4,1,19,1,13,1,-21,1,7,1,1,1,9,1,6,1,-5,1,-216,1,-12,1
1346,-23,1,-5,1,18,1,14,1,-21,1,6,1,0,1,7,1,3,1,-5,1,-216,1,-9,1
1347,-24,1,-5,1,19,1,14,1,-22,1,7,1,0,1,8,1,3,1,-4,1,-216,1,-8,1
1348,-27,1,-6,1,21,1,16,1,-24,1,7,1,0,1,9,1,3,1,-4,1,-216,1,-7,1
1349,-30,1,-6,1,24,1,18,1,-27,1,9,1,1,1,10,1,4,1,-2,1,-215,1,-5,1
1350,-28,1,-7,1,21,1,17,1,-25,1,7,1,2,1,11,1,3,1,-5,1,-219,1,-9,1
1351,-27,1,-8,1,19,1,17,1,-23,1,5,1,2,1,10,1,2,1,-7,1,-221,1,-10,1
1352,-25,1,-7,1,18,1,16,1,-22,1,5,1,1,1,10,1,1,1,-7,1,-222,1,-10,1
1353,-25,1,-8,1,17,1,16,1,-21,1,4,1,1,1,11,1,1,1,-6,1,-223,1,-12,1
1354,-25,1,-9,1,16,1,17,1,-21,1,3,1,2,1,12,1,0,1,-9,1,-226,1,-14,1
1355,-26,1,-10,1,16,1,18,1,-21,1,3,1,1,1,11,1,0,1,-8,1,-225,1,-12,1
1356,-28,1,-9,1,19,1,18,1,-24,1,5,1,1,1,9,1,-1,1,-8,1,-225,1,-11,1
1357,-30,1,-9,1,21,1,19,1,-26,1,6,1,1,1,7,1,-2,1,-8,1,-225,1,-12,1
1358,-31,1,-9,1,22,1,20,1,-27,1,6,1,0,1,7,1,-3,1,-8,1,-225,1,-12,1
1359,-32,1,-9,1,23,1,20,1,-28,1,7,1,0,1,6,1,-3,1,-7,1,-223,1,-11,1
1360,-30,1,-10,1,20,1,20,1,-25,1,5,1,0,1,7,1,-2,1,-7,1,-224,1,-13,1
1361,-29,1,-10,1,19,1,19,1,-24,1,4,1,1,1,8,1,-2,1,-8,1,-225,1,-16,1
1362,-27,1,-10,1,17,1,18,1,-22,1,3,1,0,1,7,1,-3,1,-9,1,-228,1,-17,1
1363,-27,1,-9,1,18,1,18,1,-23,1,4,1,0,1,7,1,-4,1,-10,1,-230,1,-17,1
1364,-28,1,-9,1,19,1,18,1,-24,1,5,1,2,1,8,1,-5,1,-12,1,-233,1,-20,1
1365,-27,1,-9,1,18,1,18,1,-23,1,4,1,0,1,7,1,-6,1,-13,1,-234,1,-19,1
1366,-29,1,-9,1,20,1,19,1,-25,1,5,1,1,1,7,1,-5,1,-13,1,-235,1,-19,1
1367,-31,1,-9,1,22,1,20,1,-27,1,6,1,2,1,9,1,-4,1,-12,1,-235,1,-18,1
1368,-33,1,-9,1,24,1,21,1,-29,1,7,1,3,1,11,1,-3,1,-12,1,-235,1,-19,1
1369,-34,1,-9,1,25,1,21,1,-30,1,8,1,3,1,11,1,-2,1,-11,1,-235,1,-17,1
1370,-32,1,-9,1,23,1,20,1,-28,1,7,1,4,1,12,1,-2,1,-11,1,-236,1,-17,1
1371,-32,1,-9,1,23,1,20,1,-28,1,7,1,4,1,11,1,-2,1,-11,1,-236,1,-17,1
1372,-27,1,-8,1,19,1,17,1,-23,1,5,1,1,1,8,1,-3,1,-10,1,-238,1,-17,1
1373,-28,1,-8,1,20,1,18,1,-24,1,6,1,2,1,7,1,-3,1,-12,1,-239,1,-19,1
1374,-34,1,-7,1,27,1,20,1,-31,1,10,1,4,1,9,1,-2,1,-13,1,-241,1,-18,1
1375,-35,1,-5,1,30,1,20,1,-33,1,12,1,3,1,10,1,-2,1,-12,1,-241,1,-18,1
1376,-37,1,-5,1,32,1,21,1,-35,1,13,1,3,1,10,1,-2,1,-11,1,-241,1,-17,1
1377,-36,1,-7,1,29,1,21,1,-33,1,11,1,3,1,9,1,-3,1,-13,1,-244,1,-18,1
1378,-35,1,-9,1,26,1,22,1,-31,1,8,1,1,1,8,1,-4,1,-14,1,-247,1,-19,1
1379,-35,1,-8,1,27,1,21,1,-31,1,9,1,3,1,10,1,-2,1,-11,1,-244,1,-16,1
1380,-35,1,-7,1,28,1,21,1,-32,1,10,1,5,1,12,1,0,1,-10,1,-243,1,-14,1
1381,-35,1,-8,1,27,1,21,1,-31,1,9,1,7,1,13,1,2,1,-9,1,-245,1,-14,1
1382,-36,1,-7,1,29,1,21,1,-33,1,11,1,6,1,13,1,3,1,-6,1,-244,1,-12,1
1383,-35,1,-5,1,30,1,20,1,-33,1,12,1,6,1,13,1,2,1,-6,1,-245,1,-12,1
1384,-35,1,-4,1,31,1,19,1,-33,1,13,1,5,1,13,1,2,1,-8,1,-248,1,-14,1
1385,-35,1,-6,1,29,1,20,1,-32,1,11,1,3,1,11,1,1,1,-9,1,-250,1,-15,1
1386,-40,1,-8,1,32,1,24,1,-36,1,12,1,4,1,11,1,2,1,-7,1,-250,1,-14,1
1387,-41,1,-8,1,33,1,24,1,-37,1,12,1,4,1,12,1,4,1,-7,1,-251,1,-14,1
1388,-42,1,-7,1,35,1,24,1,-39,1,14,1,5,1,12,1,6,1,-7,1,-251,1,-14,1
1389,-38,1,-7,1,31,1,22,1,-35,1,12,1,5,1,12,1,7,1,-6,1,-251,1,-13,1
1390,-36,1,-7,1,29,1,21,1,-33,1,11,1,7,1,13,1,7,1,-6,1,-253,1,-14,1
1391,-36,1,-8,1,28,1,22,1,-32,1,10,1,8,1,14,1,7,1,-6,1,-253,1,-14,1
1392,-37,1,-8,1,29,1,22,1,-33,1,10,1,10,1,17,1,8,1,-3,1,-251,1,-11,1
1393,-38,1,-10,1,28,1,24,1,-33,1,9,1,10,1,18,1,9,1,-2,1,-252,1,-13,1
1394,-39,1,-10,1,29,1,24,1,-34,1,9,1,10,1,18,1,9,1,-2,1,-254,1,-14,1
1395,-40,1,-9,1,31,1,24,1,-36,1,11,1,9,1,18,1,10,1,0,1,-251,1,-14,1
1396,-40,1,-9,1,31,1,24,1,-36,1,11,1,8,1,18,1,12,1,2,1,-251,1,-13,1
1397,-40,1,-10,1,30,1,25,1,-35,1,10,1,7,1,16,1,11,1,1,1,-253,1,-14,1
1398,-40,1,-10,1,30,1,25,1,-35,1,10,1,7,1,16,1,11,1,0,1,-253,1,-14,1
1399,-41,1,-10,1,31,1,25,1,-36,1,10,1,8,1,16,1,12,1,2,1,-252,1,-13,1
1400,-40,1,-11,1,29,1,25,1,-35,1,9,1,8,1,16,1,12,1,1,1,-254,1,-14,1
1401,-36,1,-8,1,28,1,22,1,-32,1,10,1,10,1,16,1,12,1,0,1,-256,1,-15,1
1402,-35,1,-8,1,27,1,21,1,-31,1,9,1,10,1,16,1,13,1,0,1,-255,1,-15,1
1403,-34,1,-8,1,26,1,21,1,-30,1,9,1,10,1,16,1,12,1,0,1,-256,1,-16,1
1404,-35,1,-9,1,26,1,22,1,-31,1,8,1,11,1,17,1,13,1,-1,1,-258,1,-18,1
1405,-38,1,-10,1,28,1,24,1,-33,1,9,1,10,1,16,1,13,1,1,1,-259,1,-16,1
1406,-41,1,-11,1,30,1,26,1,-36,1,9,1,10,1,17,1,13,1,2,1,-260,1,-16,1
1407,-42,1,-11,1,31,1,26,1,-37,1,10,1,11,1,18,1,14,1,2,1,-260,1,-16,1
1408,-41,1,-12,1,29,1,26,1,-35,1,8,1,12,1,19,1,15,1,2,1,-261,1,-15,1
1409,-41,1,-10,1,31,1,25,1,-36,1,10,1,12,1,20,1,15,1,3,1,-258,1,-12,1
1410,-39,1,-9,1,30,1,24,1,-35,1,10,1,11,1,20,1,15,1,3,1,-261,1,-14,1
1411,-38,1,-9,1,29,1,23,1,-34,1,10,1,12,1,20,1,15,1,2,1,-261,1,-15,1
1412,-38,1,-9,1,29,1,23,1,-34,1,10,1,12,1,20,1,15,1,3,1,-262,1,-16,1
1413,-37,1,-9,1,28,1,23,1,-33,1,9,1,11,1,19,1,15,1,2,1,-263,1,-17,1
1414,-40,1,-8,1,32,1,24,1,-36,1,12,1,12,1,19,1,15,1,2,1,-264,1,-18,1
1415,-42,1,-8,1,34,1,25,1,-38,1,13,1,11,1,20,1,15,1,4,1,-263,1,-16,1
1416,-43,1,-8,1,35,1,25,1,-39,1,13,1,11,1,18,1,15,1,4,1,-263,1,-16,1
1417,-41,1,-8,1,33,1,24,1,-37,1,12,1,10,1,18,1,14,1,2,1,-264,1,-18,1
1418,-40,1,-9,1,31,1,24,1,-36,1,11,1,10,1,18,1,14,1,1,1,-265,1,-18,1
1419,-40,1,-9,1,31,1,24,1,-36,1,11,1,9,1,18,1,14,1,2,1,-263,1,-17,1
1420,-38,1,-9,1,29,1,23,1,-34,1,10,1,11,1,19,1,14,1,1,1,-265,1,-20,1
1421,-38,1,-8,1,30,1,23,1,-34,1,11,1,12,1,20,1,14,1,0,1,-266,1,-21,1
1422,-39,1,-8,1,31,1,23,1,-35,1,11,1,11,1,19,1,13,1,0,1,-268,1,-22,1
1423,-40,1,-9,1,31,1,24,1,-36,1,11,1,11,1,19,1,13,1,0,1,-269,1,-24,1
1424,-40,1,-9,1,31,1,24,1,-36,1,11,1,11,1,19,1,13,1,-2,1,-273,1,-26,1
1425,-42,1,-9,1,33,1,25,1,-38,1,12,1,10,1,17,1,13,1,-2,1,-274,1,-27,1
1426,-42,1,-10,1,32,1,26,1,-37,1,11,1,8,1,16,1,12,1,-3,1,-275,1,-28,1
1427,-38,1,-10,1,28,1,24,1,-33,1,9,1,7,1,15,1,10,1,-6,1,-277,1,-32,1
1428,-39,1,-8,1,31,1,23,1,-35,1,11,1,10,1,17,1,12,1,-4,1,-276,1,-31,1
1429,-39,1,-6,1,33,1,22,1,-36,1,13,1,11,1,18,1,13,1,-1,1,-273,1,-31,1
1430,-38,1,-6,1,32,1,22,1,-35,1,13,1,12,1,20,1,12,1,-1,1,-275,1,-34,1
1431,-37,1,-6,1,31,1,21,1,-34,1,12,1,12,1,18,1,10,1,-3,1,-277,1,-38,1
1432,-36,1,-6,1,30,1,21,1,-33,1,12,1,11,1,17,1,10,1,-4,1,-278,1,-39,1
1433,-38,1,-6,1,32,1,22,1,-35,1,13,1,11,1,17,1,10,1,-4,1,-279,1,-40,1
1434,-39,1,-6,1,33,1,22,1,-36,1,13,1,11,1,17,1,10,1,-5,1,-283,1,-41,1
1435,-41,1,-7,1,34,1,24,1,-38,1,13,1,9,1,16,1,11,1,-4,1,-283,1,-40,1
1436,-39,1,-7,1,32,1,23,1,-36,1,12,1,8,1,15,1,10,1,-4,1,-283,1,-39,1
1437,-37,1,-8,1,29,1,22,1,-33,1,10,1,8,1,15,1,10,1,-6,1,-285,1,-41,1
1438,-37,1,-7,1,30,1,22,1,-34,1,11,1,8,1,16,1,10,1,-5,1,-285,1,-41,1
1439,-40,1,-6,1,34,1,23,1,-37,1,14,1,8,1,16,1,10,1,-3,1,-283,1,-39,1
1440,-40,1,-6,1,34,1,23,1,-37,1,14,1,9,1,17,1,9,1,-5,1,-286,1,-40,1
1441,-40,1,-6,1,34,1,23,1,-37,1,14,1,9,1,16,1,8,1,-7,1,-288,1,-42,1
1442,-40,1,-6,1,34,1,23,1,-37,1,14,1,10,1,15,1,7,1,-8,1,-290,1,-42,1
1443,-38,1,-6,1,32,1,22,1,-35,1,13,1,9,1,15,1,6,1,-9,1,-293,1,-43,1
1444,-38,1,-6,1,32,1,22,1,-35,1,13,1,11,1,16,1,6,1,-10,1,-296,1,-44,1
1445,-37,1,-6,1,31,1,21,1,-34,1,12,1,11,1,16,1,7,1,-8,1,-296,1,-43,1
1446,-40,1,-6,1,34,1,23,1,-37,1,14,1,10,1,16,1,6,1,-8,1,-296,1,-42,1
1447,-40,1,-6,1,34,1,23,1,-37,1,14,1,9,1,16,1,5,1,-10,1,-298,1,-44,1
1448,-40,1,-5,1,35,1,22,1,-38,1,15,1,8,1,16,1,6,1,-10,1,-299,1,-43,1
1449,-42,1,-4,1,38,1,23,1,-40,1,17,1,9,1,16,1,8,1,-7,1,-297,1,-40,1
1450,-42,1,-4,1,38,1,23,1,-40,1,17,1,10,1,15,1,8,1,-8,1,-297,1,-39,1
1451,-41,1,-3,1,38,1,22,1,-40,1,17,1,10,1,15,1,7,1,-9,1,-298,1,-39,1
1452,-40,1,-2,1,38,1,21,1,-39,1,18,1,9,1,14,1,7,1,-9,1,-298,1,-38,1
1453,-41,1,-2,1,39,1,21,1,-40,1,18,1,9,1,13,1,6,1,-8,1,-300,1,-39,1
1454,-41,1,-2,1,39,1,21,1,-40,1,18,1,9,1,13,1,4,1,-10,1,-304,1,-40,1
1455,-43,1,-1,1,42,1,22,1,-43,1,20,1,8,1,12,1,5,1,-9,1,-304,1,-39,1
1456,-45,1,0,1,45,1,22,1,-45,1,22,1,8,1,12,1,5,1,-8,1,-304,1,-38,1
1457,-44,1,0,1,44,1,22,1,-44,1,22,1,8,1,13,1,5,1,-9,1,-306,1,-40,1
1458,-43,1,1,1,44,1,21,1,-43,1,22,1,7,1,13,1,6,1,-8,1,-305,1,-40,1
1459,-43,1,3,1,46,1,20,1,-44,1,24,1,5,1,13,1,7,1,-6,1,-300,1,-40,1
1460,-41,1,6,1,47,1,17,1,-44,1,26,1,6,1,13,1,8,1,-7,1,-297,1,-42,1
1461,-41,1,7,1,48,1,17,1,-44,1,27,1,7,1,13,1,8,1,-8,1,-291,1,-42,1
1462,-40,1,8,1,48,1,16,1,-44,1,28,1,7,1,13,1,8,1,-7,1,-285,1,-40,1
1463,-40,1,9,1,49,1,15,1,-44,1,29,1,7,1,14,1,8,1,-6,1,-279,1,-41,1
1464,-38,1,10,1,48,1,14,1,-43,1,29,1,7,1,15,1,7,1,-7,1,-257,1,-42,1
1465,-37,1,11,1,48,1,13,1,-42,1,29,1,6,1,13,1,7,1,-7,1,-214,1,-41,1
1466,-37,1,12,1,49,1,12,1,-43,1,30,1,5,1,12,1,6,1,-7,1,-172,1,-39,1
1467,-37,1,13,1,50,1,12,1,-43,1,31,1,6,1,11,1,6,1,-8,1,-137,1,-40,1
1468,-37,1,13,1,50,1,12,1,-43,1,31,1,5,1,8,1,6,1,-7,1,-108,1,-38,1
1469,-38,1,14,1,52,1,12,1,-45,1,33,1,5,1,8,1,6,1,-4,1,-83,1,-36,1
1470,-39,1,15,1,54,1,12,1,-46,1,34,1,7,1,8,1,6,1,-5,1,-65,1,-36,1
1471,-40,1,16,1,56,1,12,1,-48,1,36,1,6,1,8,1,6,1,-5,1,-50,1,-35,1
1472,-41,1,17,1,58,1,12,1,-49,1,37,1,5,1,8,1,7,1,-4,1,-39,1,-34,1
1473,-41,1,17,1,58,1,12,1,-49,1,37,1,5,1,9,1,7,1,-6,1,-32,1,-34,1
1474,-40,1,17,1,57,1,11,1,-48,1,37,1,4,1,10,1,7,1,-9,1,-29,1,-36,1
1475,-40,1,16,1,56,1,12,1,-48,1,36,1,2,1,8,1,6,1,-10,1,-25,1,-36,1
1476,-41,1,15,1,56,1,13,1,-48,1,35,1,1,1,7,1,4,1,-11,1,-24,1,-35,1
1477,-40,1,13,1,53,1,13,1,-46,1,33,1,1,1,7,1,3,1,-11,1,-26,1,-37,1
1478,-37,1,13,1,50,1,12,1,-43,1,31,1,1,1,7,1,2,1,-12,1,-26,1,-38,1
1479,-33,1,14,1,47,1,9,1,-40,1,30,1,0,1,5,1,0,1,-11,1,-26,1,-38,1
1480,-31,1,14,1,45,1,8,1,-38,1,29,1,1,1,5,1,0,1,-13,1,-29,1,-41,1
1481,-38,1,14,1,52,1,12,1,-45,1,33,1,2,1,5,1,0,1,-12,1,-28,1,-39,1
1482,-40,1,15,1,55,1,12,1,-47,1,35,1,1,1,6,1,0,1,-10,1,-27,1,-39,1
1483,-42,1,17,1,59,1,12,1,-50,1,38,1,0,1,5,1,-1,1,-12,1,-29,1,-40,1
1484,-42,1,17,1,59,1,12,1,-50,1,38,1,0,1,5,1,-3,1,-15,1,-33,1,-44,1
1485,-40,1,19,1,59,1,10,1,-49,1,39,1,-1,1,5,1,-3,1,-14,1,-33,1,-43,1
1486,-38,1,21,1,59,1,8,1,-48,1,40,1,-2,1,6,1,-2,1,-13,1,-33,1,-43,1
1487,-37,1,22,1,59,1,7,1,-48,1,40,1,-2,1,6,1,-1,1,-13,1,-36,1,-42,1
1488,-33,1,23,1,56,1,5,1,-44,1,39,1,-1,1,5,1,0,1,-12,1,-37,1,-42,1
1489,-35,1,25,1,60,1,5,1,-47,1,42,1,0,1,4,1,2,1,-9,1,-35,1,-39,1
1490,-36,1,25,1,61,1,5,1,-48,1,43,1,0,1,4,1,1,1,-9,1,-36,1,-40,1
1491,-36,1,24,1,60,1,6,1,-48,1,42,1,0,1,3,1,1,1,-9,1,-37,1,-41,1
1492,-38,1,22,1,60,1,8,1,-49,1,41,1,-1,1,2,1,0,1,-9,1,-39,1,-42,1
1493,-36,1,24,1,60,1,6,1,-48,1,42,1,-1,1,3,1,-1,1,-10,1,-42,1,-45,1
1494,-38,1,24,1,62,1,7,1,-50,1,43,1,-1,1,4,1,0,1,-12,1,-45,1,-47,1
1495,-40,1,23,1,63,1,8,1,-51,1,43,1,0,1,5,1,0,1,-12,1,-47,1,-47,1
1496,-41,1,22,1,63,1,9,1,-52,1,42,1,1,1,6,1,0,1,-13,1,-49,1,-45,1
1497,-40,1,20,1,60,1,10,1,-50,1,40,1,2,1,7,1,1,1,-13,1,-54,1,-47,1
1498,-37,1,19,1,56,1,9,1,-46,1,37,1,1,1,7,1,1,1,-13,1,-57,1,-47,1
1499,-34,1,18,1,52,1,8,1,-43,1,35,1,2,1,7,1,1,1,-13,1,-59,1,-47,1
1500,-33,1,17,1,50,1,8,1,-41,1,33,1,4,1,8,1,2,1,-13,1,-62,1,-48,1
1501,-31,1,15,1,46,1,8,1,-38,1,30,1,5,1,6,1,1,1,-14,1,-65,1,-51,1
1502,-36,1,14,1,50,1,11,1,-43,1,32,1,6,1,8,1,1,1,-13,1,-64,1,-51,1
1503,-39,1,13,1,52,1,13,1,-45,1,32,1,8,1,11,1,2,1,-13,1,-64,1,-52,1
1504,-40,1,12,1,52,1,14,1,-46,1,32,1,10,1,14,1,2,1,-16,1,-67,1,-54,1
1505,-40,1,11,1,51,1,14,1,-45,1,31,1,8,1,14,1,1,1,-17,1,-66,1,-54,1
1506,-41,1,8,1,49,1,16,1,-45,1,28,1,8,1,14,1,2,1,-17,1,-67,1,-55,1
1507,-41,1,4,1,45,1,18,1,-43,1,24,1,10,1,13,1,2,1,-18,1,-70,1,-56,1
1508,-40,1,3,1,43,1,18,1,-41,1,23,1,10,1,11,1,2,1,-19,1,-72,1,-57,1
1509,-38,1,2,1,40,1,18,1,-39,1,21,1,10,1,11,1,2,1,-18,1,-72,1,-56,1
1510,-37,1,3,1,40,1,17,1,-38,1,21,1,12,1,12,1,3,1,-18,1,-74,1,-59,1
1511,-38,1,1,1,39,1,18,1,-38,1,20,1,13,1,13,1,2,1,-17,1,-75,1,-60,1
1512,-38,1,0,1,38,1,19,1,-38,1,19,1,13,1,14,1,1,1,-17,1,-74,1,-62,1
1513,-38,1,1,1,39,1,18,1,-38,1,20,1,12,1,14,1,0,1,-19,1,-75,1,-64,1
1514,-37,1,2,1,39,1,17,1,-38,1,20,1,12,1,14,1,0,1,-22,1,-78,1,-67,1
1515,-37,1,2,1,39,1,17,1,-38,1,20,1,11,1,14,1,-1,1,-23,1,-77,1,-66,1
1516,-39,1,2,1,41,1,18,1,-40,1,21,1,11,1,14,1,0,1,-22,1,-74,1,-64,1
1517,-40,1,1,1,41,1,19,1,-40,1,21,1,12,1,13,1,1,1,-22,1,-72,1,-64,1
1518,-39,1,0,1,39,1,19,1,-39,1,19,1,11,1,13,1,0,1,-22,1,-69,1,-64,1
1519,-39,1,0,1,39,1,19,1,-39,1,19,1,10,1,13,1,0,1,-22,1,-65,1,-63,1
1520,-39,1,-1,1,38,1,20,1,-39,1,18,1,12,1,13,1,0,1,-22,1,-61,1,-64,1
1521,-39,1,-1,1,38,1,20,1,-39,1,18,1,12,1,14,1,0,1,-20,1,-55,1,-65,1
1522,-39,1,-1,1,38,1,20,1,-39,1,18,1,12,1,13,1,0,1,-19,1,-48,1,-63,1
1523,-38,1,-1,1,37,1,19,1,-38,1,18,1,12,1,13,1,0,1,-20,1,-43,1,-63,1
1524,-37,1,-1,1,36,1,19,1,-37,1,17,1,12,1,13,1,0,1,-22,1,-40,1,-65,1
1525,-40,1,-2,1,38,1,21,1,-39,1,18,1,11,1,12,1,-1,1,-22,1,-35,1,-61,1
1526,-40,1,0,1,40,1,20,1,-40,1,20,1,11,1,12,1,0,1,-21,1,-31,1,-59,1
1527,-38,1,0,1,38,1,19,1,-38,1,19,1,9,1,12,1,-2,1,-23,1,-30,1,-58,1
1528,-35,1,1,1,36,1,17,1,-35,1,18,1,9,1,13,1,-1,1,-23,1,-26,1,-57,1
1529,-36,1,2,1,38,1,17,1,-37,1,20,1,9,1,13,1,-1,1,-22,1,-19,1,-54,1
1530,-35,1,1,1,36,1,17,1,-35,1,18,1,11,1,14,1,0,1,-22,1,-14,1,-55,1
1531,-34,1,1,1,35,1,16,1,-34,1,18,1,12,1,15,1,0,1,-20,1,-8,1,-55,1
1532,-35,1,0,1,35,1,17,1,-35,1,17,1,11,1,13,1,0,1,-20,1,-2,1,-54,1
1533,-34,1,-1,1,33,1,17,1,-34,1,16,1,10,1,11,1,-2,1,-21,1,0,1,-54,1
1534,-40,1,-2,1,38,1,21,1,-39,1,18,1,12,1,12,1,0,1,-21,1,4,1,-52,1
1535,-40,1,0,1,40,1,20,1,-40,1,20,1,13,1,13,1,2,1,-20,1,9,1,-47,1
1536,-38,1,1,1,39,1,18,1,-38,1,20,1,12,1,13,1,1,1,-20,1,12,1,-46,1
1537,-37,1,0,1,37,1,18,1,-37,1,18,1,13,1,14,1,0,1,-20,1,12,1,-46,1
1538,-36,1,0,1,36,1,18,1,-36,1,18,1,13,1,15,1,1,1,-20,1,14,1,-45,1
1539,-35,1,-3,1,32,1,19,1,-34,1,14,1,15,1,16,1,3,1,-20,1,17,1,-45,1
1540,-37,1,-7,1,30,1,22,1,-34,1,11,1,21,1,20,1,8,1,-22,1,17,1,-48,1
1541,-42,1,-11,1,31,1,26,1,-37,1,10,1,28,1,25,1,13,1,-25,1,17,1,-51,1
1542,-45,1,-15,1,30,1,30,1,-38,1,7,1,38,1,32,1,20,1,-29,1,16,1,-54,1
1543,-45,1,-17,1,28,1,31,1,-37,1,5,1,50,1,41,1,30,1,-32,1,12,1,-59,1
1544,-46,1,-20,1,26,1,33,1,-36,1,3,1,60,1,50,1,42,1,-33,1,8,1,-63,1
1545,-45,1,-20,1,25,1,32,1,-35,1,2,1,67,1,57,1,57,1,-27,1,11,1,-61,1
1546,-40,1,-17,1,23,1,28,1,-32,1,3,1,70,1,62,1,73,1,-18,1,16,1,-57,1
1547,-37,1,-11,1,26,1,24,1,-32,1,7,1,70,1,65,1,87,1,-4,1,25,1,-51,1
1548,-36,1,-1,1,35,1,18,1,-36,1,17,1,65,1,67,1,101,1,17,1,43,1,-38,1
1549,-33,1,10,1,43,1,11,1,-38,1,26,1,54,1,66,1,114,1,45,1,69,1,-22,1
1550,-26,1,26,1,52,1,0,1,-39,1,39,1,39,1,66,1,125,1,75,1,97,1,-5,1
1551,-18,1,41,1,59,1,-11,1,-38,1,50,1,24,1,64,1,136,1,110,1,129,1,16,1
1552,-10,1,58,1,68,1,-24,1,-39,1,63,1,7,1,63,1,147,1,150,1,164,1,39,1
1553,-2,1,74,1,76,1,-36,1,-39,1,75,1,-10,1,60,1,156,1,189,1,197,1,62,1
1554,4,1,90,1,86,1,-47,1,-41,1,88,1,-27,1,54,1,158,1,223,1,229,1,83,1
1555,9,1,109,1,100,1,-59,1,-45,1,105,1,-46,1,43,1,157,1,255,1,261,1,107,1
1556,12,1,127,1,115,1,-69,1,-51,1,121,1,-62,1,30,1,154,1,283,1,290,1,128,1
1557,14,1,144,1,130,1,-79,1,-58,1,137,1,-76,1,15,1,143,1,301,1,313,1,144,1
1558,15,1,153,1,138,1,-84,1,-61,1,146,1,-87,1,1,1,126,1,308,1,329,1,155,1
1559,16,1,147,1,131,1,-81,1,-57,1,139,1,-89,1,-7,1,104,1,302,1,334,1,155,1
1560,19,1,125,1,106,1,-72,1,-43,1,116,1,-84,1,-12,1,77,1,276,1,323,1,144,1
1561,14,1,94,1,80,1,-54,1,-33,1,87,1,-75,1,-13,1,43,1,235,1,301,1,127,1
1562,6,1,60,1,54,1,-33,1,-24,1,57,1,-65,1,-17,1,1,1,177,1,270,1,106,1
1563,-1,1,29,1,30,1,-14,1,-15,1,29,1,-56,1,-20,1,-39,1,112,1,232,1,80,1
1564,-7,1,3,1,10,1,2,1,-8,1,6,1,-45,1,-17,1,-65,1,57,1,194,1,55,1
1565,-12,1,-16,1,-4,1,14,1,-4,1,-10,1,-36,1,-16,1,-80,1,15,1,163,1,36,1
1566,-17,1,-31,1,-14,1,24,1,-2,1,-23,1,-29,1,-15,1,-88,1,-18,1,134,1,17,1
1567,-20,1,-43,1,-23,1,31,1,1,1,-33,1,-20,1,-13,1,-88,1,-39,1,110,1,1,1
1568,-23,1,-49,1,-26,1,36,1,1,1,-38,1,-13,1,-9,1,-82,1,-52,1,94,1,-9,1
1569,-25,1,-52,1,-27,1,38,1,1,1,-40,1,-6,1,-6,1,-72,1,-57,1,85,1,-17,1
1570,-27,1,-52,1,-25,1,39,1,-1,1,-39,1,0,1,-1,1,-62,1,-59,1,79,1,-22,1
1571,-27,1,-49,1,-22,1,38,1,-3,1,-36,1,6,1,4,1,-52,1,-57,1,77,1,-24,1
1572,-29,1,-46,1,-17,1,37,1,-6,1,-32,1,9,1,9,1,-43,1,-53,1,79,1,-24,1
1573,-31,1,-45,1,-14,1,38,1,-9,1,-30,1,11,1,11,1,-35,1,-49,1,82,1,-23,1
1574,-29,1,-41,1,-12,1,35,1,-9,1,-27,1,14,1,17,1,-27,1,-45,1,84,1,-23,1
1575,-29,1,-37,1,-8,1,33,1,-11,1,-23,1,17,1,21,1,-20,1,-40,1,87,1,-21,1
1576,-29,1,-37,1,-8,1,33,1,-11,1,-23,1,20,1,23,1,-15,1,-36,1,88,1,-22,1
1577,-28,1,-37,1,-9,1,32,1,-10,1,-23,1,22,1,24,1,-11,1,-36,1,86,1,-25,1
1578,-29,1,-34,1,-5,1,31,1,-12,1,-20,1,24,1,26,1,-5,1,-34,1,87,1,-25,1
1579,-29,1,-30,1,-1,1,29,1,-14,1,-16,1,25,1,26,1,-1,1,-31,1,89,1,-25,1
1580,-30,1,-28,1,2,1,29,1,-16,1,-13,1,26,1,25,1,0,1,-32,1,89,1,-27,1
1581,-27,1,-25,1,2,1,26,1,-15,1,-12,1,23,1,22,1,0,1,-32,1,89,1,-29,1
1582,-30,1,-21,1,9,1,25,1,-20,1,-6,1,22,1,20,1,0,1,-31,1,94,1,-25,1
1583,-32,1,-20,1,12,1,26,1,-22,1,-4,1,21,1,18,1,0,1,-30,1,96,1,-24,1
1584,-30,1,-20,1,10,1,25,1,-20,1,-5,1,18,1,16,1,-2,1,-32,1,98,1,-24,1
1585,-29,1,-21,1,8,1,25,1,-19,1,-7,1,15,1,14,1,-4,1,-31,1,101,1,-22,1
1586,-31,1,-21,1,10,1,26,1,-21,1,-6,1,16,1,15,1,-4,1,-30,1,104,1,-22,1
1587,-31,1,-21,1,10,1,26,1,-21,1,-6,1,18,1,15,1,-3,1,-32,1,104,1,-24,1
1588,-30,1,-21,1,9,1,25,1,-20,1,-6,1,19,1,16,1,-3,1,-33,1,104,1,-27,1
1589,-32,1,-21,1,11,1,26,1,-22,1,-5,1,19,1,15,1,-3,1,-34,1,105,1,-27,1
1590,-33,1,-22,1,11,1,27,1,-22,1,-6,1,20,1,15,1,-3,1,-36,1,105,1,-30,1
1591,-33,1,-20,1,13,1,26,1,-23,1,-4,1,20,1,15,1,-3,1,-36,1,107,1,-32,1
1592,-32,1,-20,1,12,1,26,1,-22,1,-4,1,18,1,14,1,-3,1,-35,1,110,1,-30,1
1593,-33,1,-19,1,14,1,26,1,-24,1,-3,1,19,1,14,1,-3,1,-35,1,113,1,-29,1
1594,-33,1,-19,1,14,1,26,1,-24,1,-3,1,18,1,15,1,-3,1,-36,1,115,1,-29,1
1595,-32,1,-19,1,13,1,25,1,-23,1,-3,1,17,1,15,1,-4,1,-35,1,117,1,-27,1
1596,-31,1,-19,1,12,1,25,1,-22,1,-4,1,17,1,16,1,-4,1,-35,1,120,1,-27,1
1597,-30,1,-20,1,10,1,25,1,-20,1,-5,1,19,1,17,1,-4,1,-36,1,119,1,-27,1
1598,-31,1,-21,1,10,1,26,1,-21,1,-6,1,19,1,18,1,-4,1,-37,1,120,1,-28,1
1599,-31,1,-22,1,9,1,26,1,-20,1,-7,1,19,1,17,1,-5,1,-37,1,121,1,-28,1
1600,-31,1,-23,1,8,1,27,1,-20,1,-8,1,20,1,15,1,-5,1,-38,1,122,1,-31,1
1601,-30,1,-23,1,7,1,26,1,-19,1,-8,1,19,1,14,1,-5,1,-38,1,123,1,-33,1
1602,-30,1,-24,1,6,1,27,1,-18,1,-9,1,18,1,12,1,-5,1,-38,1,125,1,-33,1
1603,-31,1,-24,1,7,1,27,1,-19,1,-9,1,18,1,11,1,-5,1,-38,1,124,1,-34,1
1604,-31,1,-23,1,8,1,27,1,-20,1,-8,1,17,1,11,1,-6,1,-39,1,125,1,-34,1
1605,-32,1,-23,1,9,1,27,1,-21,1,-7,1,16,1,12,1,-6,1,-38,1,127,1,-31,1
1606,-32,1,-23,1,9,1,27,1,-21,1,-7,1,15,1,12,1,-7,1,-38,1,128,1,-30,1
1607,-31,1,-23,1,8,1,27,1,-20,1,-8,1,16,1,14,1,-7,1,-38,1,129,1,-29,1
1608,-31,1,-23,1,8,1,27,1,-20,1,-8,1,15,1,14,1,-7,1,-38,1,130,1,-29,1
1609,-28,1,-23,1,5,1,25,1,-17,1,-9,1,15,1,13,1,-9,1,-38,1,132,1,-28,1
1610,-30,1,-22,1,8,1,26,1,-19,1,-7,1,16,1,13,1,-8,1,-38,1,132,1,-29,1
1611,-32,1,-22,1,10,1,27,1,-21,1,-6,1,18,1,12,1,-8,1,-39,1,132,1,-31,1
1612,-33,1,-22,1,11,1,27,1,-22,1,-6,1,17,1,11,1,-8,1,-39,1,133,1,-31,1
1613,-34,1,-24,1,10,1,29,1,-22,1,-7,1,17,1,11,1,-8,1,-40,1,132,1,-33,1
1614,-33,1,-25,1,8,1,29,1,-21,1,-9,1,17,1,12,1,-8,1,-41,1,131,1,-34,1
1615,-33,1,-25,1,8,1,29,1,-21,1,-9,1,16,1,11,1,-8,1,-40,1,133,1,-32,1
1616,-32,1,-25,1,7,1,28,1,-20,1,-9,1,16,1,12,1,-9,1,-40,1,134,1,-32,1
1617,-32,1,-28,1,4,1,30,1,-18,1,-12,1,15,1,12,1,-10,1,-42,1,133,1,-33,1
1618,-30,1,-27,1,3,1,28,1,-17,1,-12,1,16,1,13,1,-10,1,-42,1,135,1,-33,1
1619,-30,1,-27,1,3,1,28,1,-17,1,-12,1,16,1,11,1,-11,1,-41,1,136,1,-34,1
1620,-29,1,-26,1,3,1,27,1,-16,1,-12,1,17,1,12,1,-10,1,-42,1,136,1,-35,1
1621,-30,1,-24,1,6,1,27,1,-18,1,-9,1,19,1,11,1,-10,1,-41,1,137,1,-35,1
1622,-29,1,-25,1,4,1,27,1,-17,1,-11,1,18,1,10,1,-9,1,-41,1,137,1,-34,1
1623,-30,1,-26,1,4,1,28,1,-17,1,-11,1,17,1,10,1,-9,1,-41,1,137,1,-35,1
1624,-32,1,-27,1,5,1,29,1,-19,1,-11,1,17,1,11,1,-9,1,-42,1,137,1,-35,1
1625,-33,1,-28,1,5,1,30,1,-19,1,-12,1,16,1,10,1,-9,1,-41,1,138,1,-32,1
1626,-32,1,-28,1,4,1,30,1,-18,1,-12,1,16,1,10,1,-9,1,-40,1,139,1,-31,1
1627,-32,1,-28,1,4,1,30,1,-18,1,-12,1,17,1,12,1,-10,1,-41,1,140,1,-31,1
1628,-28,1,-27,1,1,1,27,1,-15,1,-13,1,16,1,11,1,-10,1,-42,1,141,1,-30,1
1629,-24,1,-26,1,-2,1,25,1,-11,1,-14,1,15,1,10,1,-12,1,-42,1,142,1,-30,1
1630,-22,1,-26,1,-4,1,24,1,-9,1,-15,1,15,1,10,1,-12,1,-44,1,141,1,-33,1
1631,-26,1,-27,1,-1,1,26,1,-13,1,-14,1,16,1,11,1,-11,1,-44,1,141,1,-34,1
1632,-29,1,-27,1,2,1,28,1,-16,1,-13,1,15,1,11,1,-9,1,-42,1,143,1,-34,1
1633,-32,1,-26,1,6,1,29,1,-19,1,-10,1,16,1,11,1,-8,1,-42,1,144,1,-34,1
1634,-33,1,-26,1,7,1,29,1,-20,1,-10,1,18,1,13,1,-7,1,-43,1,144,1,-33,1
1635,-31,1,-25,1,6,1,28,1,-19,1,-10,1,17,1,12,1,-8,1,-43,1,145,1,-30,1
1636,-30,1,-26,1,4,1,28,1,-17,1,-11,1,17,1,11,1,-9,1,-44,1,146,1,-28,1
1637,-29,1,-26,1,3,1,27,1,-16,1,-12,1,18,1,11,1,-9,1,-43,1,146,1,-28,1
1638,-28,1,-26,1,2,1,27,1,-15,1,-12,1,17,1,12,1,-9,1,-41,1,147,1,-28,1
1639,-29,1,-26,1,3,1,27,1,-16,1,-12,1,17,1,12,1,-7,1,-40,1,148,1,-28,1
1640,-29,1,-26,1,3,1,27,1,-16,1,-12,1,18,1,14,1,-6,1,-40,1,147,1,-31,1
1641,-30,1,-26,1,4,1,28,1,-17,1,-11,1,18,1,14,1,-5,1,-40,1,147,1,-33,1
1642,-31,1,-27,1,4,1,29,1,-18,1,-12,1,18,1,14,1,-5,1,-39,1,148,1,-33,1
1643,-31,1,-27,1,4,1,29,1,-18,1,-12,1,18,1,14,1,-4,1,-38,1,147,1,-34,1
1644,-29,1,-27,1,2,1,28,1,-16,1,-13,1,17,1,13,1,-4,1,-39,1,147,1,-34,1
1645,-29,1,-27,1,2,1,28,1,-16,1,-13,1,16,1,12,1,-4,1,-37,1,148,1,-31,1
1646,-30,1,-27,1,3,1,28,1,-17,1,-12,1,15,1,12,1,-3,1,-36,1,150,1,-29,1
1647,-28,1,-26,1,2,1,27,1,-15,1,-12,1,15,1,12,1,-3,1,-37,1,150,1,-28,1
1648,-25,1,-25,1,0,1,25,1,-13,1,-13,1,14,1,11,1,-2,1,-35,1,151,1,-27,1
1649,-27,1,-24,1,3,1,25,1,-15,1,-11,1,15,1,12,1,0,1,-34,1,154,1,-27,1
1650,-29,1,-24,1,5,1,26,1,-17,1,-10,1,17,1,14,1,1,1,-33,1,153,1,-28,1
1651,-29,1,-23,1,6,1,26,1,-18,1,-9,1,18,1,14,1,1,1,-33,1,152,1,-30,1
1652,-30,1,-23,1,7,1,26,1,-19,1,-8,1,18,1,13,1,0,1,-32,1,153,1,-32,1
1653,-29,1,-21,1,8,1,25,1,-19,1,-7,1,21,1,16,1,3,1,-30,1,153,1,-32,1
1654,-26,1,-19,1,7,1,22,1,-17,1,-6,1,22,1,17,1,5,1,-29,1,153,1,-33,1
1655,-28,1,-20,1,8,1,24,1,-18,1,-6,1,21,1,17,1,6,1,-27,1,156,1,-31,1
1656,-30,1,-19,1,11,1,24,1,-21,1,-4,1,20,1,16,1,8,1,-26,1,158,1,-28,1
1657,-28,1,-18,1,10,1,23,1,-19,1,-4,1,18,1,16,1,8,1,-27,1,158,1,-29,1
1658,-27,1,-16,1,11,1,21,1,-19,1,-3,1,16,1,15,1,9,1,-26,1,160,1,-27,1
1659,-27,1,-16,1,11,1,21,1,-19,1,-3,1,16,1,15,1,11,1,-24,1,161,1,-27,1
1660,-28,1,-16,1,12,1,22,1,-20,1,-2,1,17,1,16,1,12,1,-22,1,160,1,-29,1
1661,-30,1,-15,1,15,1,22,1,-23,1,0,1,17,1,17,1,14,1,-20,1,161,1,-29,1
1662,-31,1,-15,1,16,1,23,1,-24,1,0,1,18,1,17,1,16,1,-18,1,163,1,-29,1
1663,-30,1,-14,1,16,1,22,1,-23,1,1,1,18,1,18,1,18,1,-17,1,162,1,-29,1
1664,-28,1,-12,1,16,1,20,1,-22,1,2,1,20,1,20,1,19,1,-16,1,162,1,-27,1
1665,-27,1,-9,1,18,1,18,1,-23,1,4,1,19,1,20,1,20,1,-13,1,164,1,-20,1
1666,-27,1,-7,1,20,1,17,1,-24,1,6,1,19,1,19,1,21,1,-11,1,165,1,-14,1
1667,-24,1,-5,1,19,1,14,1,-22,1,7,1,19,1,18,1,22,1,-10,1,165,1,-11,1
1668,-24,1,-2,1,22,1,13,1,-23,1,10,1,18,1,19,1,24,1,-8,1,168,1,-6,1
1669,-24,1,-1,1,23,1,12,1,-24,1,11,1,17,1,19,1,26,1,-7,1,170,1,-3,1
1670,-24,1,-1,1,23,1,12,1,-24,1,11,1,18,1,21,1,28,1,-6,1,169,1,-3,1
1671,-25,1,-1,1,24,1,13,1,-25,1,11,1,19,1,22,1,29,1,-5,1,169,1,-2,1
1672,-20,1,0,1,20,1,10,1,-20,1,10,1,17,1,20,1,29,1,-5,1,168,1,0,1
1673,-21,1,1,1,22,1,10,1,-21,1,11,1,19,1,22,1,32,1,-4,1,169,1,3,1
1674,-25,1,2,1,27,1,11,1,-26,1,14,1,22,1,24,1,35,1,-1,1,170,1,8,1
1675,-25,1,4,1,29,1,10,1,-27,1,16,1,22,1,23,1,37,1,2,1,172,1,13,1
1676,-26,1,4,1,30,1,11,1,-28,1,17,1,21,1,23,1,38,1,5,1,174,1,17,1
1677,-25,1,6,1,31,1,9,1,-28,1,18,1,21,1,23,1,40,1,6,1,175,1,19,1
1678,-25,1,8,1,33,1,8,1,-29,1,20,1,20,1,24,1,41,1,8,1,177,1,22,1
1679,-24,1,9,1,33,1,7,1,-28,1,21,1,19,1,24,1,42,1,10,1,180,1,24,1
1680,-23,1,9,1,32,1,7,1,-27,1,20,1,19,1,24,1,42,1,10,1,178,1,24,1
1681,-22,1,10,1,32,1,6,1,-27,1,21,1,19,1,23,1,42,1,12,1,178,1,24,1
1682,-21,1,13,1,34,1,4,1,-27,1,23,1,19,1,23,1,44,1,14,1,180,1,25,1
1683,-19,1,14,1,33,1,2,1,-26,1,23,1,19,1,24,1,46,1,15,1,180,1,27,1
1684,-17,1,16,1,33,1,0,1,-25,1,24,1,19,1,24,1,46,1,16,1,180,1,28,1
1685,-18,1,17,1,35,1,0,1,-26,1,26,1,19,1,24,1,48,1,18,1,182,1,32,1
1686,-20,1,17,1,37,1,1,1,-28,1,27,1,18,1,24,1,47,1,20,1,183,1,33,1
1687,-20,1,17,1,37,1,1,1,-28,1,27,1,19,1,24,1,47,1,20,1,184,1,33,1
1688,-20,1,19,1,39,1,0,1,-29,1,29,1,18,1,24,1,47,1,20,1,184,1,35,1
1689,-20,1,19,1,39,1,0,1,-29,1,29,1,17,1,23,1,45,1,20,1,184,1,34,1
1690,-17,1,19,1,36,1,-1,1,-26,1,27,1,17,1,22,1,44,1,17,1,181,1,31,1
1691,-17,1,19,1,36,1,-1,1,-26,1,27,1,16,1,22,1,43,1,16,1,179,1,31,1
1692,-17,1,19,1,36,1,-1,1,-26,1,27,1,16,1,22,1,42,1,17,1,179,1,31,1
1693,-16,1,19,1,35,1,-1,1,-25,1,27,1,16,1,22,1,41,1,16,1,179,1,30,1
1694,-19,1,19,1,38,1,0,1,-28,1,28,1,18,1,23,1,40,1,16,1,179,1,32,1
1695,-21,1,20,1,41,1,0,1,-31,1,30,1,17,1,21,1,38,1,17,1,180,1,34,1
1696,-20,1,19,1,39,1,0,1,-29,1,29,1,15,1,19,1,35,1,16,1,180,1,35,1
1697,-20,1,19,1,39,1,0,1,-29,1,29,1,15,1,19,1,32,1,14,1,178,1,35,1
1698,-21,1,19,1,40,1,1,1,-30,1,29,1,14,1,18,1,31,1,14,1,178,1,35,1
1699,-21,1,17,1,38,1,2,1,-29,1,27,1,13,1,17,1,29,1,13,1,178,1,35,1
1700,-21,1,16,1,37,1,2,1,-29,1,26,1,13,1,17,1,27,1,10,1,175,1,32,1
1701,-21,1,16,1,37,1,2,1,-29,1,26,1,13,1,18,1,26,1,8,1,173,1,30,1
1702,-20,1,15,1,35,1,2,1,-27,1,25,1,12,1,17,1,24,1,6,1,173,1,30,1
1703,-19,1,14,1,33,1,2,1,-26,1,23,1,12,1,17,1,23,1,4,1,170,1,28,1
1704,-18,1,14,1,32,1,2,1,-25,1,23,1,12,1,16,1,21,1,3,1,169,1,27,1
1705,-20,1,13,1,33,1,3,1,-26,1,23,1,11,1,14,1,20,1,5,1,170,1,31,1
1706,-21,1,12,1,33,1,4,1,-27,1,22,1,11,1,13,1,18,1,5,1,170,1,33,1
1707,-20,1,11,1,31,1,4,1,-25,1,21,1,10,1,13,1,16,1,4,1,168,1,32,1
1708,-21,1,9,1,30,1,6,1,-25,1,19,1,8,1,11,1,15,1,3,1,167,1,33,1
1709,-19,1,9,1,28,1,5,1,-23,1,18,1,8,1,11,1,13,1,2,1,167,1,32,1
1710,-18,1,9,1,27,1,4,1,-22,1,18,1,9,1,12,1,13,1,-2,1,164,1,28,1
1711,-15,1,9,1,24,1,3,1,-19,1,16,1,8,1,10,1,11,1,-5,1,160,1,25,1
1712,-14,1,9,1,23,1,2,1,-18,1,16,1,8,1,10,1,9,1,-6,1,157,1,23,1
1713,-16,1,7,1,23,1,4,1,-19,1,15,1,8,1,11,1,8,1,-7,1,154,1,22,1
1714,-17,1,7,1,24,1,5,1,-20,1,15,1,9,1,11,1,8,1,-7,1,152,1,23,1
1715,-20,1,8,1,28,1,6,1,-24,1,18,1,9,1,11,1,8,1,-4,1,154,1,27,1
1716,-20,1,10,1,30,1,5,1,-25,1,20,1,8,1,10,1,6,1,-3,1,155,1,30,1
1717,-17,1,9,1,26,1,4,1,-21,1,17,1,7,1,9,1,4,1,-4,1,152,1,28,1
1718,-17,1,8,1,25,1,4,1,-21,1,16,1,6,1,9,1,4,1,-4,1,151,1,27,1
1719,-19,1,7,1,26,1,6,1,-22,1,16,1,6,1,9,1,2,1,-4,1,150,1,26,1
1720,-20,1,6,1,26,1,7,1,-23,1,16,1,7,1,9,1,2,1,-6,1,147,1,23,1
1721,-20,1,5,1,25,1,7,1,-22,1,15,1,8,1,10,1,3,1,-8,1,146,1,22,1
1722,-19,1,6,1,25,1,6,1,-22,1,15,1,8,1,10,1,4,1,-9,1,146,1,22,1
1723,-18,1,5,1,23,1,6,1,-20,1,14,1,7,1,9,1,3,1,-9,1,144,1,21,1
1724,-19,1,4,1,23,1,7,1,-21,1,13,1,7,1,9,1,3,1,-10,1,141,1,23,1
1725,-20,1,3,1,23,1,8,1,-21,1,13,1,5,1,8,1,1,1,-8,1,143,1,25,1
1726,-20,1,2,1,22,1,9,1,-21,1,12,1,5,1,9,1,1,1,-8,1,142,1,27,1
1727,-18,1,3,1,21,1,7,1,-19,1,12,1,5,1,10,1,0,1,-8,1,141,1,26,1
1728,-19,1,3,1,22,1,8,1,-20,1,12,1,5,1,10,1,-1,1,-7,1,140,1,26,1
1729,-20,1,4,1,24,1,8,1,-22,1,14,1,5,1,8,1,-2,1,-9,1,139,1,24,1
1730,-18,1,4,1,22,1,7,1,-20,1,13,1,6,1,8,1,-1,1,-12,1,135,1,20,1
1731,-18,1,3,1,21,1,7,1,-19,1,12,1,7,1,7,1,-1,1,-14,1,133,1,17,1
1732,-18,1,1,1,19,1,8,1,-18,1,10,1,7,1,7,1,0,1,-13,1,132,1,18,1
1733,-18,1,1,1,19,1,8,1,-18,1,10,1,7,1,7,1,-1,1,-14,1,130,1,17,1
1734,-18,1,1,1,19,1,8,1,-18,1,10,1,6,1,6,1,-1,1,-13,1,127,1,18,1
1735,-18,1,1,1,19,1,8,1,-18,1,10,1,4,1,6,1,-2,1,-12,1,130,1,22,1
1736,-19,1,2,1,21,1,8,1,-20,1,11,1,3,1,5,1,-4,1,-12,1,129,1,24,1
1737,-17,1,2,1,19,1,7,1,-18,1,10,1,4,1,6,1,-4,1,-14,1,128,1,23,1
1738,-15,1,4,1,19,1,5,1,-17,1,11,1,6,1,6,1,-3,1,-12,1,128,1,25,1
1739,-16,1,4,1,20,1,6,1,-18,1,12,1,7,1,7,1,-2,1,-11,1,128,1,24,1
1740,-18,1,3,1,21,1,7,1,-19,1,12,1,8,1,7,1,0,1,-13,1,125,1,22,1
1741,-19,1,3,1,22,1,8,1,-20,1,12,1,8,1,7,1,0,1,-14,1,123,1,19,1
1742,-17,1,3,1,20,1,7,1,-18,1,11,1,6,1,7,1,0,1,-15,1,122,1,18,1
1743,-18,1,2,1,20,1,8,1,-19,1,11,1,6,1,8,1,0,1,-15,1,120,1,16,1
1744,-19,1,2,1,21,1,8,1,-20,1,11,1,6,1,9,1,-2,1,-15,1,118,1,15,1
1745,-19,1,3,1,22,1,8,1,-20,1,12,1,5,1,9,1,-1,1,-13,1,118,1,17,1
1746,-18,1,3,1,21,1,7,1,-19,1,12,1,6,1,10,1,-1,1,-13,1,118,1,19,1
1747,-17,1,2,1,19,1,7,1,-18,1,10,1,8,1,10,1,-1,1,-14,1,116,1,17,1
1748,-18,1,2,1,20,1,8,1,-19,1,11,1,8,1,10,1,0,1,-15,1,116,1,18,1
1749,-20,1,2,1,22,1,9,1,-21,1,12,1,9,1,9,1,1,1,-14,1,115,1,18,1
1750,-19,1,2,1,21,1,8,1,-20,1,11,1,11,1,10,1,2,1,-16,1,114,1,16,1
1751,-20,1,2,1,22,1,9,1,-21,1,12,1,10,1,9,1,4,1,-16,1,112,1,14,1
1752,-18,1,2,1,20,1,8,1,-19,1,11,1,9,1,7,1,4,1,-15,1,112,1,14,1
1753,-17,1,1,1,18,1,8,1,-17,1,9,1,9,1,8,1,3,1,-15,1,110,1,12,1
1754,-18,1,2,1,20,1,8,1,-19,1,11,1,10,1,10,1,4,1,-14,1,109,1,12,1
1755,-18,1,2,1,20,1,8,1,-19,1,11,1,9,1,9,1,4,1,-12,1,110,1,14,1
1756,-18,1,1,1,19,1,8,1,-18,1,10,1,9,1,9,1,4,1,-11,1,111,1,16,1
1757,-17,1,1,1,18,1,8,1,-17,1,9,1,10,1,10,1,4,1,-12,1,110,1,14,1
1758,-19,1,1,1,20,1,9,1,-19,1,10,1,11,1,11,1,7,1,-10,1,111,1,16,1
1759,-21,1,1,1,22,1,10,1,-21,1,11,1,11,1,12,1,9,1,-7,1,112,1,17,1
1760,-22,1,0,1,22,1,11,1,-22,1,11,1,12,1,13,1,10,1,-7,1,111,1,15,1
1761,-21,1,0,1,21,1,10,1,-21,1,10,1,12,1,13,1,10,1,-7,1,109,1,14,1
1762,-21,1,0,1,21,1,10,1,-21,1,10,1,11,1,13,1,10,1,-7,1,109,1,14,1
1763,-20,1,0,1,20,1,10,1,-20,1,10,1,11,1,13,1,9,1,-8,1,107,1,13,1
1764,-20,1,0,1,20,1,10,1,-20,1,10,1,12,1,13,1,9,1,-9,1,106,1,13,1
1765,-20,1,0,1,20,1,10,1,-20,1,10,1,11,1,13,1,9,1,-8,1,106,1,15,1
1766,-21,1,-2,1,19,1,11,1,-20,1,8,1,12,1,13,1,9,1,-8,1,106,1,15,1
1767,-19,1,0,1,19,1,9,1,-19,1,9,1,13,1,13,1,9,1,-8,1,107,1,16,1
1768,-18,1,0,1,18,1,9,1,-18,1,9,1,12,1,13,1,11,1,-7,1,107,1,16,1
1769,-18,1,0,1,18,1,9,1,-18,1,9,1,11,1,13,1,10,1,-7,1,108,1,14,1
1770,-19,1,-2,1,17,1,10,1,-18,1,7,1,12,1,13,1,10,1,-9,1,106,1,9,1
1771,-17,1,0,1,17,1,8,1,-17,1,8,1,12,1,14,1,10,1,-10,1,104,1,8,1
1772,-16,1,0,1,16,1,8,1,-16,1,8,1,13,1,14,1,11,1,-9,1,104,1,9,1
1773,-16,1,1,1,17,1,7,1,-16,1,9,1,13,1,14,1,11,1,-10,1,101,1,7,1
1774,-16,1,0,1,16,1,8,1,-16,1,8,1,14,1,14,1,11,1,-10,1,100,1,8,1
1775,-17,1,1,1,18,1,8,1,-17,1,9,1,12,1,13,1,10,1,-9,1,102,1,11,1
1776,-17,1,1,1,18,1,8,1,-17,1,9,1,12,1,13,1,9,1,-9,1,102,1,12,1
1777,-16,1,1,1,17,1,7,1,-16,1,9,1,12,1,14,1,10,1,-9,1,102,1,13,1
1778,-14,1,1,1,15,1,6,1,-14,1,8,1,10,1,13,1,10,1,-8,1,103,1,13,1
1779,-14,1,0,1,14,1,7,1,-14,1,7,1,9,1,12,1,11,1,-8,1,102,1,12,1
1780,-16,1,0,1,16,1,8,1,-16,1,8,1,10,1,13,1,11,1,-10,1,101,1,10,1
1781,-16,1,1,1,17,1,7,1,-16,1,9,1,10,1,13,1,10,1,-10,1,99,1,8,1
