TS,I,If,II,IIf,III,IIIf,aVR,aVRf,aVL,aVLf,aVF,aVFf,V1,V1f,V2,V2f,V3,V3f,V4,V4f,V5,V5f,V6,V6f
1,17,1,-2,1,-19,1,-7,1,18,1,-10,1,-7,1,-8,1,-15,1,-12,1,-15,1,-23,1
2,14,1,-5,1,-19,1,-4,1,16,1,-12,1,-6,1,-6,1,-14,1,-10,1,-12,1,-20,1
3,12,1,-4,1,-16,1,-4,1,14,1,-10,1,-7,1,-7,1,-14,1,-10,1,-12,1,-21,1
4,17,1,-4,1,-21,1,-6,1,19,1,-12,1,-9,1,-8,1,-16,1,-12,1,-15,1,-24,1
5,18,1,-3,1,-21,1,-7,1,19,1,-12,1,-10,1,-9,1,-17,1,-13,1,-15,1,-24,1
6,18,1,-5,1,-23,1,-6,1,20,1,-14,1,-9,1,-8,1,-16,1,-12,1,-15,1,-24,1
7,15,1,-3,1,-18,1,-6,1,16,1,-10,1,-8,1,-8,1,-16,1,-12,1,-15,1,-23,1
8,12,1,-5,1,-17,1,-3,1,14,1,-11,1,-7,1,-8,1,-17,1,-12,1,-15,1,-24,1
9,15,1,-4,1,-19,1,-5,1,17,1,-11,1,-9,1,-9,1,-17,1,-13,1,-15,1,-24,1
10,16,1,-2,1,-18,1,-7,1,17,1,-10,1,-7,1,-9,1,-17,1,-13,1,-15,1,-24,1
11,11,1,-2,1,-13,1,-4,1,12,1,-7,1,-4,1,-7,1,-15,1,-11,1,-13,1,-22,1
12,15,1,-2,1,-17,1,-6,1,16,1,-9,1,-6,1,-8,1,-15,1,-11,1,-13,1,-21,1
13,17,1,-2,1,-19,1,-7,1,18,1,-10,1,-7,1,-8,1,-15,1,-12,1,-14,1,-22,1
14,15,1,-3,1,-18,1,-6,1,16,1,-10,1,-5,1,-9,1,-15,1,-13,1,-15,1,-24,1
15,16,1,-4,1,-20,1,-6,1,18,1,-12,1,-6,1,-9,1,-16,1,-12,1,-15,1,-24,1
16,16,1,-4,1,-20,1,-6,1,18,1,-12,1,-6,1,-9,1,-17,1,-13,1,-17,1,-26,1
17,15,1,-5,1,-20,1,-5,1,17,1,-12,1,-7,1,-9,1,-18,1,-13,1,-17,1,-25,1
18,10,1,-5,1,-15,1,-2,1,12,1,-10,1,-5,1,-7,1,-15,1,-12,1,-15,1,-23,1
19,14,1,-5,1,-19,1,-4,1,16,1,-12,1,-5,1,-7,1,-17,1,-13,1,-17,1,-24,1
20,16,1,-5,1,-21,1,-5,1,18,1,-13,1,-6,1,-8,1,-17,1,-13,1,-17,1,-24,1
21,17,1,-4,1,-21,1,-6,1,19,1,-12,1,-7,1,-8,1,-18,1,-14,1,-17,1,-25,1
22,11,1,-5,1,-16,1,-3,1,13,1,-10,1,-8,1,-8,1,-17,1,-14,1,-17,1,-24,1
23,13,1,-3,1,-16,1,-5,1,14,1,-9,1,-7,1,-7,1,-16,1,-12,1,-15,1,-24,1
24,16,1,0,1,-16,1,-8,1,16,1,-8,1,-6,1,-6,1,-14,1,-10,1,-13,1,-23,1
25,13,1,-2,1,-15,1,-5,1,14,1,-8,1,-5,1,-6,1,-14,1,-9,1,-13,1,-22,1
26,18,1,-4,1,-22,1,-7,1,20,1,-13,1,-8,1,-8,1,-17,1,-12,1,-15,1,-25,1
27,15,1,-3,1,-18,1,-6,1,16,1,-10,1,-7,1,-10,1,-18,1,-12,1,-16,1,-26,1
28,20,1,-1,1,-21,1,-9,1,20,1,-11,1,-8,1,-11,1,-17,1,-12,1,-17,1,-26,1
29,13,1,-4,1,-17,1,-4,1,15,1,-10,1,-6,1,-8,1,-16,1,-11,1,-15,1,-25,1
30,12,1,-3,1,-15,1,-4,1,13,1,-9,1,-6,1,-8,1,-15,1,-10,1,-14,1,-24,1
31,15,1,-3,1,-18,1,-6,1,16,1,-10,1,-6,1,-9,1,-17,1,-12,1,-16,1,-26,1
32,16,1,-4,1,-20,1,-6,1,18,1,-12,1,-7,1,-9,1,-17,1,-12,1,-16,1,-26,1
33,16,1,-3,1,-19,1,-6,1,17,1,-11,1,-7,1,-9,1,-17,1,-12,1,-16,1,-25,1
34,16,1,-4,1,-20,1,-6,1,18,1,-12,1,-7,1,-9,1,-17,1,-12,1,-16,1,-25,1
35,16,1,-2,1,-18,1,-7,1,17,1,-10,1,-7,1,-8,1,-18,1,-13,1,-15,1,-25,1
36,16,1,-3,1,-19,1,-6,1,17,1,-11,1,-7,1,-8,1,-17,1,-13,1,-15,1,-24,1
37,17,1,-3,1,-20,1,-7,1,18,1,-11,1,-8,1,-9,1,-18,1,-14,1,-16,1,-24,1
38,14,1,-4,1,-18,1,-5,1,16,1,-11,1,-9,1,-10,1,-18,1,-14,1,-19,1,-27,1
39,12,1,-6,1,-18,1,-3,1,15,1,-12,1,-8,1,-8,1,-17,1,-13,1,-17,1,-25,1
40,18,1,-4,1,-22,1,-7,1,20,1,-13,1,-8,1,-9,1,-18,1,-14,1,-18,1,-25,1
41,17,1,-4,1,-21,1,-6,1,19,1,-12,1,-8,1,-8,1,-17,1,-13,1,-17,1,-24,1
42,14,1,-3,1,-17,1,-5,1,15,1,-10,1,-8,1,-8,1,-16,1,-12,1,-15,1,-24,1
43,14,1,-5,1,-19,1,-4,1,16,1,-12,1,-9,1,-10,1,-17,1,-12,1,-16,1,-25,1
44,15,1,-7,1,-22,1,-4,1,18,1,-14,1,-11,1,-9,1,-16,1,-12,1,-16,1,-25,1
45,15,1,-9,1,-24,1,-3,1,19,1,-16,1,-10,1,-9,1,-16,1,-12,1,-16,1,-25,1
46,17,1,-4,1,-21,1,-6,1,19,1,-12,1,-10,1,-9,1,-17,1,-14,1,-16,1,-25,1
47,16,1,-3,1,-19,1,-6,1,17,1,-11,1,-9,1,-8,1,-17,1,-13,1,-15,1,-25,1
48,17,1,-4,1,-21,1,-6,1,19,1,-12,1,-10,1,-9,1,-18,1,-14,1,-17,1,-26,1
49,19,1,-3,1,-22,1,-8,1,20,1,-12,1,-10,1,-9,1,-18,1,-13,1,-17,1,-26,1
50,14,1,-3,1,-17,1,-5,1,15,1,-10,1,-9,1,-7,1,-16,1,-11,1,-14,1,-22,1
51,13,1,-4,1,-17,1,-4,1,15,1,-10,1,-7,1,-7,1,-16,1,-11,1,-16,1,-23,1
52,16,1,-5,1,-21,1,-5,1,18,1,-13,1,-10,1,-9,1,-18,1,-14,1,-18,1,-25,1
53,16,1,-5,1,-21,1,-5,1,18,1,-13,1,-12,1,-11,1,-20,1,-16,1,-20,1,-27,1
54,14,1,-4,1,-18,1,-5,1,16,1,-11,1,-10,1,-10,1,-18,1,-13,1,-16,1,-25,1
55,14,1,-3,1,-17,1,-5,1,15,1,-10,1,-8,1,-8,1,-16,1,-11,1,-14,1,-24,1
56,15,1,-2,1,-17,1,-6,1,16,1,-9,1,-9,1,-8,1,-16,1,-11,1,-14,1,-25,1
57,18,1,-1,1,-19,1,-8,1,18,1,-10,1,-9,1,-8,1,-16,1,-12,1,-15,1,-24,1
58,15,1,-3,1,-18,1,-6,1,16,1,-10,1,-8,1,-7,1,-15,1,-12,1,-14,1,-25,1
59,17,1,-2,1,-19,1,-7,1,18,1,-10,1,-7,1,-7,1,-15,1,-11,1,-15,1,-26,1
60,19,1,2,1,-17,1,-10,1,18,1,-7,1,-6,1,-4,1,-13,1,-9,1,-13,1,-23,1
61,21,1,0,1,-21,1,-10,1,21,1,-10,1,-6,1,-4,1,-13,1,-8,1,-12,1,-22,1
62,20,1,0,1,-20,1,-10,1,20,1,-10,1,-6,1,-4,1,-12,1,-8,1,-12,1,-22,1
63,23,1,-4,1,-27,1,-9,1,25,1,-15,1,-6,1,-3,1,-12,1,-8,1,-12,1,-22,1
64,21,1,0,1,-21,1,-10,1,21,1,-10,1,-4,1,-1,1,-10,1,-6,1,-10,1,-22,1
65,22,1,2,1,-20,1,-12,1,21,1,-9,1,-3,1,0,1,-10,1,-6,1,-11,1,-22,1
66,23,1,4,1,-19,1,-13,1,21,1,-7,1,0,1,2,1,-8,1,-6,1,-11,1,-22,1
67,24,1,6,1,-18,1,-15,1,21,1,-6,1,0,1,4,1,-7,1,-5,1,-11,1,-21,1
68,22,1,6,1,-16,1,-14,1,19,1,-5,1,0,1,4,1,-7,1,-4,1,-11,1,-22,1
69,23,1,8,1,-15,1,-15,1,19,1,-3,1,1,1,4,1,-6,1,-3,1,-10,1,-21,1
70,26,1,7,1,-19,1,-16,1,23,1,-6,1,1,1,5,1,-6,1,-3,1,-10,1,-19,1
71,27,1,6,1,-21,1,-16,1,24,1,-7,1,0,1,6,1,-4,1,-1,1,-8,1,-19,1
72,27,1,10,1,-17,1,-18,1,22,1,-3,1,-1,1,5,1,-5,1,-2,1,-8,1,-19,1
73,27,1,9,1,-18,1,-18,1,23,1,-4,1,0,1,7,1,-3,1,0,1,-8,1,-17,1
74,28,1,8,1,-20,1,-18,1,24,1,-6,1,1,1,9,1,-1,1,3,1,-6,1,-14,1
75,34,1,11,1,-23,1,-22,1,29,1,-6,1,0,1,10,1,0,1,3,1,-5,1,-14,1
76,35,1,17,1,-18,1,-26,1,27,1,0,1,0,1,11,1,1,1,4,1,-4,1,-13,1
77,29,1,18,1,-11,1,-23,1,20,1,4,1,2,1,15,1,4,1,7,1,-1,1,-11,1
78,39,1,20,1,-19,1,-29,1,29,1,1,1,-1,1,16,1,4,1,7,1,-2,1,-12,1
79,37,1,20,1,-17,1,-28,1,27,1,2,1,-2,1,17,1,6,1,9,1,0,1,-9,1
80,38,1,20,1,-18,1,-29,1,28,1,1,1,-5,1,15,1,5,1,9,1,0,1,-10,1
81,37,1,19,1,-18,1,-28,1,28,1,1,1,-5,1,14,1,5,1,9,1,0,1,-9,1
82,39,1,18,1,-21,1,-28,1,30,1,-1,1,-8,1,10,1,2,1,7,1,0,1,-9,1
83,39,1,17,1,-22,1,-28,1,31,1,-2,1,-13,1,7,1,0,1,4,1,-3,1,-11,1
84,39,1,14,1,-25,1,-26,1,32,1,-5,1,-14,1,3,1,-3,1,2,1,-5,1,-15,1
85,35,1,12,1,-23,1,-23,1,29,1,-5,1,-16,1,2,1,-3,1,2,1,-4,1,-13,1
86,32,1,9,1,-23,1,-20,1,28,1,-7,1,-17,1,-1,1,-7,1,0,1,-6,1,-14,1
87,30,1,7,1,-23,1,-18,1,27,1,-8,1,-18,1,-4,1,-9,1,-3,1,-9,1,-16,1
88,36,1,7,1,-29,1,-21,1,33,1,-11,1,-19,1,-6,1,-11,1,-4,1,-10,1,-17,1
89,36,1,7,1,-29,1,-21,1,33,1,-11,1,-20,1,-7,1,-12,1,-4,1,-10,1,-17,1
90,28,1,6,1,-22,1,-17,1,25,1,-8,1,-20,1,-9,1,-14,1,-6,1,-10,1,-17,1
91,34,1,4,1,-30,1,-19,1,32,1,-13,1,-21,1,-11,1,-16,1,-8,1,-12,1,-18,1
92,29,1,5,1,-24,1,-17,1,27,1,-9,1,-18,1,-10,1,-16,1,-8,1,-12,1,-18,1
93,32,1,0,1,-32,1,-16,1,32,1,-16,1,-20,1,-13,1,-19,1,-11,1,-16,1,-22,1
94,34,1,2,1,-32,1,-18,1,33,1,-15,1,-21,1,-14,1,-19,1,-12,1,-16,1,-23,1
95,31,1,2,1,-29,1,-16,1,30,1,-13,1,-21,1,-14,1,-18,1,-12,1,-15,1,-22,1
96,27,1,-1,1,-28,1,-13,1,27,1,-14,1,-19,1,-12,1,-18,1,-12,1,-16,1,-22,1
97,21,1,-4,1,-25,1,-8,1,23,1,-14,1,-16,1,-10,1,-16,1,-11,1,-16,1,-22,1
98,21,1,-2,1,-23,1,-9,1,22,1,-12,1,-14,1,-9,1,-15,1,-10,1,-15,1,-21,1
99,21,1,0,1,-21,1,-10,1,21,1,-10,1,-14,1,-9,1,-14,1,-11,1,-15,1,-22,1
100,19,1,-3,1,-22,1,-8,1,20,1,-12,1,-13,1,-8,1,-14,1,-10,1,-15,1,-22,1
101,17,1,-5,1,-22,1,-6,1,19,1,-13,1,-13,1,-10,1,-16,1,-12,1,-16,1,-25,1
102,14,1,-7,1,-21,1,-3,1,17,1,-14,1,-14,1,-12,1,-17,1,-14,1,-18,1,-27,1
103,17,1,-5,1,-22,1,-6,1,19,1,-13,1,-13,1,-12,1,-18,1,-15,1,-18,1,-25,1
104,16,1,-5,1,-21,1,-5,1,18,1,-13,1,-13,1,-13,1,-17,1,-14,1,-17,1,-25,1
105,15,1,-6,1,-21,1,-4,1,18,1,-13,1,-13,1,-13,1,-18,1,-15,1,-19,1,-26,1
106,10,1,-10,1,-20,1,0,1,15,1,-15,1,-13,1,-12,1,-18,1,-14,1,-18,1,-25,1
107,13,1,-11,1,-24,1,-1,1,18,1,-17,1,-14,1,-14,1,-21,1,-17,1,-21,1,-27,1
108,10,1,-9,1,-19,1,0,1,14,1,-14,1,-14,1,-15,1,-22,1,-17,1,-22,1,-28,1
109,14,1,-8,1,-22,1,-3,1,18,1,-15,1,-14,1,-15,1,-22,1,-19,1,-24,1,-29,1
110,14,1,-11,1,-25,1,-1,1,19,1,-18,1,-14,1,-15,1,-22,1,-19,1,-24,1,-29,1
111,6,1,-11,1,-17,1,2,1,11,1,-14,1,-10,1,-13,1,-19,1,-14,1,-19,1,-27,1
112,11,1,-12,1,-23,1,0,1,17,1,-17,1,-11,1,-13,1,-20,1,-15,1,-19,1,-27,1
113,11,1,-10,1,-21,1,0,1,16,1,-15,1,-14,1,-15,1,-22,1,-17,1,-21,1,-28,1
114,13,1,-8,1,-21,1,-2,1,17,1,-14,1,-14,1,-15,1,-21,1,-17,1,-21,1,-28,1
115,14,1,-9,1,-23,1,-2,1,18,1,-16,1,-15,1,-15,1,-22,1,-18,1,-21,1,-28,1
116,9,1,-11,1,-20,1,1,1,14,1,-15,1,-13,1,-15,1,-21,1,-19,1,-21,1,-29,1
117,9,1,-9,1,-18,1,0,1,13,1,-13,1,-14,1,-15,1,-21,1,-19,1,-22,1,-29,1
118,13,1,-10,1,-23,1,-1,1,18,1,-16,1,-14,1,-15,1,-22,1,-19,1,-23,1,-29,1
119,11,1,-11,1,-22,1,0,1,16,1,-16,1,-12,1,-14,1,-21,1,-18,1,-21,1,-27,1
120,9,1,-11,1,-20,1,1,1,14,1,-15,1,-12,1,-14,1,-22,1,-19,1,-22,1,-27,1
121,10,1,-10,1,-20,1,0,1,15,1,-15,1,-12,1,-13,1,-21,1,-18,1,-21,1,-27,1
122,11,1,-7,1,-18,1,-2,1,14,1,-12,1,-13,1,-13,1,-23,1,-19,1,-22,1,-28,1
123,10,1,-8,1,-18,1,-1,1,14,1,-13,1,-12,1,-14,1,-23,1,-19,1,-23,1,-28,1
124,12,1,-15,1,-27,1,1,1,19,1,-21,1,-10,1,-12,1,-21,1,-17,1,-21,1,-26,1
125,8,1,-11,1,-19,1,1,1,13,1,-15,1,-12,1,-12,1,-21,1,-18,1,-22,1,-27,1
126,10,1,-10,1,-20,1,0,1,15,1,-15,1,-14,1,-14,1,-22,1,-20,1,-23,1,-29,1
127,12,1,-11,1,-23,1,0,1,17,1,-17,1,-15,1,-13,1,-21,1,-19,1,-25,1,-30,1
128,7,1,-12,1,-19,1,2,1,13,1,-15,1,-12,1,-12,1,-20,1,-18,1,-25,1,-30,1
129,9,1,-10,1,-19,1,0,1,14,1,-14,1,-13,1,-13,1,-21,1,-18,1,-25,1,-29,1
130,10,1,-11,1,-21,1,0,1,15,1,-16,1,-14,1,-14,1,-22,1,-20,1,-25,1,-31,1
131,12,1,-9,1,-21,1,-1,1,16,1,-15,1,-13,1,-14,1,-22,1,-19,1,-24,1,-30,1
132,9,1,-10,1,-19,1,0,1,14,1,-14,1,-12,1,-13,1,-21,1,-16,1,-23,1,-30,1
133,6,1,-11,1,-17,1,2,1,11,1,-14,1,-10,1,-11,1,-20,1,-16,1,-23,1,-30,1
134,8,1,-10,1,-18,1,1,1,13,1,-14,1,-8,1,-10,1,-21,1,-17,1,-23,1,-30,1
135,4,1,-11,1,-15,1,3,1,9,1,-13,1,-4,1,-6,1,-19,1,-19,1,-25,1,-32,1
136,0,1,-6,1,-6,1,3,1,3,1,-6,1,2,1,-1,1,-14,1,-18,1,-25,1,-31,1
137,-6,1,-2,1,4,1,4,1,-5,1,1,1,10,1,9,1,-5,1,-13,1,-22,1,-28,1
138,-1,1,3,1,4,1,-1,1,-2,1,3,1,12,1,20,1,1,1,-7,1,-18,1,-26,1
139,-4,1,7,1,11,1,-1,1,-7,1,9,1,15,1,38,1,17,1,7,1,-6,1,-18,1
140,5,1,11,1,6,1,-8,1,0,1,9,1,13,1,56,1,32,1,23,1,7,1,-10,1
141,18,1,22,1,4,1,-20,1,7,1,13,1,8,1,81,1,53,1,46,1,25,1,2,1
142,32,1,41,1,9,1,-36,1,12,1,25,1,6,1,108,1,83,1,79,1,53,1,21,1
143,44,1,65,1,21,1,-54,1,12,1,43,1,2,1,125,1,118,1,120,1,89,1,49,1
144,59,1,87,1,28,1,-73,1,16,1,58,1,-4,1,124,1,146,1,156,1,123,1,77,1
145,83,1,110,1,27,1,-96,1,28,1,69,1,-13,1,121,1,170,1,189,1,153,1,100,1
146,108,1,132,1,24,1,-120,1,42,1,78,1,-24,1,111,1,191,1,225,1,187,1,127,1
147,134,1,142,1,8,1,-138,1,63,1,75,1,-46,1,89,1,200,1,251,1,213,1,147,1
148,157,1,152,1,-5,1,-154,1,81,1,74,1,-79,1,67,1,210,1,279,1,240,1,168,1
149,181,1,168,1,-13,1,-174,1,97,1,78,1,-112,1,47,1,225,1,313,1,272,1,193,1
150,201,1,178,1,-23,1,-189,1,112,1,78,1,-132,1,39,1,242,1,343,1,295,1,208,1
151,203,1,172,1,-31,1,-187,1,117,1,71,1,-142,1,31,1,254,1,362,1,307,1,213,1
152,201,1,161,1,-40,1,-181,1,121,1,61,1,-160,1,-1,1,241,1,353,1,299,1,204,1
153,191,1,135,1,-56,1,-163,1,124,1,40,1,-167,1,-49,1,195,1,308,1,265,1,181,1
154,176,1,89,1,-87,1,-132,1,132,1,1,1,-161,1,-89,1,127,1,231,1,201,1,138,1
155,156,1,40,1,-116,1,-98,1,136,1,-38,1,-158,1,-123,1,52,1,139,1,124,1,84,1
156,127,1,5,1,-122,1,-66,1,125,1,-58,1,-151,1,-158,1,-15,1,56,1,56,1,38,1
157,97,1,-20,1,-117,1,-38,1,107,1,-68,1,-139,1,-199,1,-79,1,-22,1,-6,1,-3,1
158,74,1,-28,1,-102,1,-23,1,88,1,-65,1,-128,1,-227,1,-121,1,-74,1,-46,1,-32,1
159,50,1,-25,1,-75,1,-12,1,62,1,-50,1,-115,1,-237,1,-139,1,-99,1,-66,1,-44,1
160,23,1,-24,1,-47,1,0,1,35,1,-35,1,-100,1,-219,1,-129,1,-94,1,-63,1,-42,1
161,14,1,-20,1,-34,1,3,1,24,1,-27,1,-94,1,-191,1,-111,1,-81,1,-59,1,-42,1
162,11,1,-14,1,-25,1,1,1,18,1,-19,1,-90,1,-168,1,-99,1,-71,1,-51,1,-38,1
163,12,1,-13,1,-25,1,0,1,18,1,-19,1,-87,1,-149,1,-94,1,-66,1,-48,1,-37,1
164,13,1,-14,1,-27,1,0,1,20,1,-20,1,-83,1,-132,1,-88,1,-63,1,-48,1,-38,1
165,11,1,-14,1,-25,1,1,1,18,1,-19,1,-72,1,-113,1,-79,1,-57,1,-45,1,-39,1
166,9,1,-11,1,-20,1,1,1,14,1,-15,1,-60,1,-94,1,-67,1,-50,1,-41,1,-36,1
167,10,1,-9,1,-19,1,0,1,14,1,-14,1,-52,1,-76,1,-57,1,-42,1,-35,1,-35,1
168,13,1,-10,1,-23,1,-1,1,18,1,-16,1,-42,1,-59,1,-46,1,-34,1,-31,1,-32,1
169,11,1,-8,1,-19,1,-1,1,15,1,-13,1,-33,1,-44,1,-38,1,-30,1,-29,1,-32,1
170,13,1,-8,1,-21,1,-2,1,17,1,-14,1,-26,1,-33,1,-31,1,-25,1,-27,1,-31,1
171,11,1,-10,1,-21,1,0,1,16,1,-15,1,-22,1,-29,1,-29,1,-25,1,-28,1,-31,1
172,12,1,-7,1,-19,1,-2,1,15,1,-13,1,-21,1,-26,1,-29,1,-25,1,-28,1,-32,1
173,9,1,-7,1,-16,1,-1,1,12,1,-11,1,-20,1,-22,1,-26,1,-23,1,-26,1,-32,1
174,10,1,-9,1,-19,1,0,1,14,1,-14,1,-18,1,-20,1,-25,1,-23,1,-25,1,-30,1
175,10,1,-10,1,-20,1,0,1,15,1,-15,1,-18,1,-20,1,-25,1,-23,1,-27,1,-31,1
176,10,1,-8,1,-18,1,-1,1,14,1,-13,1,-17,1,-19,1,-25,1,-23,1,-28,1,-31,1
177,11,1,-10,1,-21,1,0,1,16,1,-15,1,-15,1,-17,1,-24,1,-22,1,-27,1,-31,1
178,13,1,-9,1,-22,1,-2,1,17,1,-15,1,-15,1,-17,1,-24,1,-23,1,-27,1,-32,1
179,11,1,-12,1,-23,1,0,1,17,1,-17,1,-15,1,-18,1,-26,1,-25,1,-30,1,-36,1
180,9,1,-13,1,-22,1,2,1,15,1,-17,1,-13,1,-15,1,-25,1,-24,1,-29,1,-34,1
181,6,1,-13,1,-19,1,3,1,12,1,-16,1,-11,1,-14,1,-24,1,-23,1,-27,1,-33,1
182,6,1,-11,1,-17,1,2,1,11,1,-14,1,-9,1,-12,1,-22,1,-21,1,-26,1,-32,1
183,7,1,-10,1,-17,1,1,1,12,1,-13,1,-10,1,-12,1,-23,1,-23,1,-27,1,-33,1
184,11,1,-10,1,-21,1,0,1,16,1,-15,1,-12,1,-13,1,-24,1,-24,1,-29,1,-34,1
185,11,1,-11,1,-22,1,0,1,16,1,-16,1,-11,1,-13,1,-23,1,-24,1,-30,1,-35,1
186,5,1,-11,1,-16,1,3,1,10,1,-13,1,-10,1,-11,1,-21,1,-22,1,-27,1,-33,1
187,4,1,-11,1,-15,1,3,1,9,1,-13,1,-8,1,-10,1,-20,1,-22,1,-27,1,-33,1
188,3,1,-13,1,-16,1,5,1,9,1,-14,1,-7,1,-8,1,-19,1,-21,1,-26,1,-31,1
189,7,1,-12,1,-19,1,2,1,13,1,-15,1,-7,1,-9,1,-19,1,-21,1,-26,1,-31,1
190,11,1,-9,1,-20,1,-1,1,15,1,-14,1,-9,1,-9,1,-20,1,-22,1,-28,1,-33,1
191,11,1,-8,1,-19,1,-1,1,15,1,-13,1,-8,1,-8,1,-18,1,-21,1,-26,1,-32,1
192,6,1,-10,1,-16,1,2,1,11,1,-13,1,-7,1,-7,1,-17,1,-20,1,-25,1,-32,1
193,9,1,-10,1,-19,1,0,1,14,1,-14,1,-8,1,-8,1,-18,1,-21,1,-26,1,-32,1
194,7,1,-10,1,-17,1,1,1,12,1,-13,1,-8,1,-8,1,-18,1,-21,1,-26,1,-33,1
195,9,1,-8,1,-17,1,0,1,13,1,-12,1,-9,1,-9,1,-18,1,-21,1,-27,1,-34,1
196,6,1,-8,1,-14,1,1,1,10,1,-11,1,-7,1,-7,1,-16,1,-19,1,-25,1,-31,1
197,5,1,-11,1,-16,1,3,1,10,1,-13,1,-6,1,-6,1,-16,1,-18,1,-25,1,-31,1
198,8,1,-11,1,-19,1,1,1,13,1,-15,1,-6,1,-6,1,-17,1,-19,1,-27,1,-33,1
199,6,1,-10,1,-16,1,2,1,11,1,-13,1,-5,1,-5,1,-17,1,-19,1,-27,1,-32,1
200,4,1,-11,1,-15,1,3,1,9,1,-13,1,-4,1,-4,1,-17,1,-19,1,-27,1,-32,1
201,4,1,-12,1,-16,1,4,1,10,1,-14,1,-5,1,-4,1,-18,1,-20,1,-27,1,-33,1
202,8,1,-12,1,-20,1,2,1,14,1,-16,1,-6,1,-6,1,-19,1,-21,1,-29,1,-34,1
203,9,1,-11,1,-20,1,1,1,14,1,-15,1,-6,1,-5,1,-18,1,-20,1,-28,1,-33,1
204,12,1,-11,1,-23,1,0,1,17,1,-17,1,-6,1,-5,1,-18,1,-19,1,-27,1,-33,1
205,13,1,-10,1,-23,1,-1,1,18,1,-16,1,-7,1,-6,1,-18,1,-20,1,-27,1,-34,1
206,6,1,-8,1,-14,1,1,1,10,1,-11,1,-8,1,-6,1,-17,1,-19,1,-27,1,-33,1
207,5,1,-9,1,-14,1,2,1,9,1,-11,1,-7,1,-4,1,-15,1,-17,1,-25,1,-31,1
208,11,1,-8,1,-19,1,-1,1,15,1,-13,1,-8,1,-5,1,-15,1,-18,1,-26,1,-31,1
209,12,1,-6,1,-18,1,-3,1,15,1,-12,1,-7,1,-5,1,-14,1,-17,1,-25,1,-30,1
210,9,1,-8,1,-17,1,0,1,13,1,-12,1,-7,1,-4,1,-14,1,-17,1,-26,1,-31,1
211,10,1,-7,1,-17,1,-1,1,13,1,-12,1,-8,1,-5,1,-15,1,-18,1,-27,1,-32,1
212,10,1,-9,1,-19,1,0,1,14,1,-14,1,-7,1,-4,1,-14,1,-18,1,-26,1,-32,1
213,10,1,-8,1,-18,1,-1,1,14,1,-13,1,-7,1,-4,1,-16,1,-20,1,-26,1,-31,1
214,12,1,-7,1,-19,1,-2,1,15,1,-13,1,-8,1,-5,1,-16,1,-20,1,-26,1,-31,1
215,11,1,-6,1,-17,1,-2,1,14,1,-11,1,-8,1,-5,1,-15,1,-20,1,-26,1,-32,1
216,11,1,-5,1,-16,1,-3,1,13,1,-10,1,-8,1,-4,1,-14,1,-16,1,-25,1,-30,1
217,11,1,-4,1,-15,1,-3,1,13,1,-9,1,-7,1,-2,1,-12,1,-16,1,-23,1,-28,1
218,14,1,-7,1,-21,1,-3,1,17,1,-14,1,-9,1,-4,1,-15,1,-18,1,-25,1,-30,1
219,9,1,-8,1,-17,1,0,1,13,1,-12,1,-7,1,-3,1,-14,1,-17,1,-24,1,-29,1
220,11,1,-7,1,-18,1,-2,1,14,1,-12,1,-7,1,-3,1,-14,1,-17,1,-24,1,-30,1
221,15,1,-8,1,-23,1,-3,1,19,1,-15,1,-8,1,-5,1,-14,1,-18,1,-24,1,-30,1
222,15,1,-7,1,-22,1,-4,1,18,1,-14,1,-9,1,-5,1,-14,1,-17,1,-24,1,-29,1
223,7,1,-6,1,-13,1,0,1,10,1,-9,1,-7,1,-2,1,-11,1,-14,1,-21,1,-27,1
224,10,1,-8,1,-18,1,-1,1,14,1,-13,1,-9,1,-3,1,-12,1,-15,1,-22,1,-28,1
225,10,1,-7,1,-17,1,-1,1,13,1,-12,1,-9,1,-3,1,-12,1,-16,1,-24,1,-28,1
226,11,1,-5,1,-16,1,-3,1,13,1,-10,1,-8,1,-3,1,-12,1,-16,1,-23,1,-28,1
227,9,1,-5,1,-14,1,-2,1,11,1,-9,1,-7,1,-2,1,-11,1,-15,1,-21,1,-26,1
228,12,1,-5,1,-17,1,-3,1,14,1,-11,1,-8,1,-1,1,-11,1,-14,1,-19,1,-25,1
229,18,1,-4,1,-22,1,-7,1,20,1,-13,1,-10,1,-2,1,-13,1,-16,1,-21,1,-27,1
230,15,1,-4,1,-19,1,-5,1,17,1,-11,1,-10,1,-3,1,-13,1,-16,1,-21,1,-27,1
231,11,1,-6,1,-17,1,-2,1,14,1,-11,1,-8,1,0,1,-11,1,-14,1,-18,1,-24,1
232,12,1,-6,1,-18,1,-3,1,15,1,-12,1,-8,1,0,1,-9,1,-13,1,-17,1,-24,1
233,12,1,-2,1,-14,1,-5,1,13,1,-8,1,-11,1,-1,1,-10,1,-13,1,-18,1,-25,1
234,12,1,-2,1,-14,1,-5,1,13,1,-8,1,-10,1,0,1,-9,1,-12,1,-16,1,-25,1
235,12,1,-4,1,-16,1,-4,1,14,1,-10,1,-11,1,0,1,-9,1,-12,1,-16,1,-23,1
236,13,1,-9,1,-22,1,-2,1,17,1,-15,1,-11,1,0,1,-9,1,-13,1,-16,1,-24,1
237,16,1,-9,1,-25,1,-3,1,20,1,-17,1,-11,1,0,1,-9,1,-13,1,-17,1,-24,1
238,19,1,-3,1,-22,1,-8,1,20,1,-12,1,-12,1,-2,1,-10,1,-14,1,-18,1,-23,1
239,18,1,-3,1,-21,1,-7,1,19,1,-12,1,-11,1,0,1,-9,1,-13,1,-17,1,-23,1
240,8,1,-3,1,-11,1,-2,1,9,1,-7,1,-9,1,2,1,-6,1,-10,1,-15,1,-21,1
241,15,1,-4,1,-19,1,-5,1,17,1,-11,1,-12,1,0,1,-9,1,-14,1,-17,1,-23,1
242,17,1,-4,1,-21,1,-6,1,19,1,-12,1,-13,1,0,1,-10,1,-13,1,-17,1,-22,1
243,18,1,-3,1,-21,1,-7,1,19,1,-12,1,-14,1,0,1,-10,1,-12,1,-16,1,-22,1
244,19,1,-3,1,-22,1,-8,1,20,1,-12,1,-14,1,1,1,-9,1,-11,1,-16,1,-22,1
245,11,1,-5,1,-16,1,-3,1,13,1,-10,1,-14,1,3,1,-6,1,-9,1,-13,1,-20,1
246,10,1,-3,1,-13,1,-3,1,11,1,-8,1,-14,1,2,1,-6,1,-8,1,-12,1,-19,1
247,16,1,-3,1,-19,1,-6,1,17,1,-11,1,-13,1,3,1,-6,1,-7,1,-13,1,-18,1
248,18,1,-4,1,-22,1,-7,1,20,1,-13,1,-12,1,4,1,-6,1,-7,1,-12,1,-17,1
249,17,1,-2,1,-19,1,-7,1,18,1,-10,1,-14,1,4,1,-7,1,-7,1,-13,1,-20,1
250,19,1,-2,1,-21,1,-8,1,20,1,-11,1,-15,1,4,1,-6,1,-7,1,-13,1,-20,1
251,16,1,-1,1,-17,1,-7,1,16,1,-9,1,-13,1,6,1,-5,1,-5,1,-11,1,-18,1
252,17,1,1,1,-16,1,-9,1,17,1,-7,1,-14,1,5,1,-6,1,-6,1,-12,1,-19,1
253,17,1,-4,1,-21,1,-6,1,19,1,-12,1,-14,1,6,1,-5,1,-5,1,-11,1,-18,1
254,17,1,-2,1,-19,1,-7,1,18,1,-10,1,-13,1,8,1,-4,1,-3,1,-8,1,-16,1
255,17,1,-1,1,-18,1,-8,1,17,1,-9,1,-14,1,5,1,-5,1,-4,1,-8,1,-17,1
256,17,1,0,1,-17,1,-8,1,17,1,-8,1,-17,1,5,1,-7,1,-6,1,-10,1,-19,1
257,19,1,2,1,-17,1,-10,1,18,1,-7,1,-16,1,6,1,-6,1,-5,1,-9,1,-17,1
258,19,1,2,1,-17,1,-10,1,18,1,-7,1,-15,1,8,1,-6,1,-5,1,-8,1,-16,1
259,20,1,2,1,-18,1,-11,1,19,1,-8,1,-18,1,6,1,-7,1,-4,1,-8,1,-16,1
260,15,1,2,1,-13,1,-8,1,14,1,-5,1,-17,1,9,1,-4,1,-1,1,-6,1,-14,1
261,19,1,1,1,-18,1,-10,1,19,1,-8,1,-19,1,8,1,-5,1,-2,1,-7,1,-16,1
262,18,1,5,1,-13,1,-11,1,16,1,-4,1,-16,1,11,1,-1,1,1,1,-3,1,-12,1
263,20,1,5,1,-15,1,-12,1,18,1,-5,1,-17,1,11,1,-1,1,1,1,-3,1,-12,1
264,20,1,3,1,-17,1,-11,1,19,1,-7,1,-18,1,11,1,-3,1,0,1,-3,1,-12,1
265,24,1,7,1,-17,1,-15,1,21,1,-5,1,-19,1,11,1,-2,1,1,1,-2,1,-12,1
266,26,1,8,1,-18,1,-17,1,22,1,-5,1,-20,1,11,1,-1,1,2,1,-2,1,-11,1
267,22,1,8,1,-14,1,-15,1,18,1,-3,1,-18,1,12,1,-1,1,2,1,-1,1,-9,1
268,26,1,8,1,-18,1,-17,1,22,1,-5,1,-21,1,11,1,-3,1,1,1,-3,1,-10,1
269,27,1,9,1,-18,1,-18,1,23,1,-4,1,-23,1,11,1,-3,1,2,1,-3,1,-9,1
270,24,1,9,1,-15,1,-16,1,20,1,-3,1,-23,1,13,1,-1,1,4,1,-1,1,-9,1
271,27,1,10,1,-17,1,-18,1,22,1,-3,1,-22,1,12,1,-2,1,4,1,-1,1,-8,1
272,26,1,12,1,-14,1,-19,1,20,1,-1,1,-21,1,13,1,-1,1,6,1,1,1,-6,1
273,24,1,11,1,-13,1,-17,1,19,1,-1,1,-21,1,15,1,1,1,8,1,4,1,-5,1
274,26,1,13,1,-13,1,-19,1,20,1,0,1,-22,1,15,1,1,1,8,1,4,1,-5,1
275,30,1,15,1,-15,1,-22,1,23,1,0,1,-24,1,14,1,1,1,9,1,4,1,-3,1
276,28,1,15,1,-13,1,-21,1,21,1,1,1,-25,1,15,1,2,1,9,1,6,1,-2,1
277,29,1,15,1,-14,1,-22,1,22,1,1,1,-25,1,14,1,2,1,9,1,6,1,-2,1
278,29,1,16,1,-13,1,-22,1,21,1,2,1,-24,1,16,1,3,1,11,1,8,1,0,1
279,34,1,17,1,-17,1,-25,1,26,1,0,1,-27,1,14,1,1,1,10,1,7,1,-1,1
280,38,1,15,1,-23,1,-26,1,31,1,-4,1,-29,1,13,1,0,1,9,1,6,1,-2,1
281,35,1,15,1,-20,1,-25,1,28,1,-2,1,-31,1,12,1,0,1,10,1,7,1,-1,1
282,29,1,18,1,-11,1,-23,1,20,1,4,1,-28,1,15,1,3,1,13,1,11,1,2,1
283,38,1,20,1,-18,1,-29,1,28,1,1,1,-30,1,12,1,0,1,12,1,10,1,1,1
284,34,1,19,1,-15,1,-26,1,25,1,2,1,-31,1,12,1,1,1,14,1,12,1,3,1
285,33,1,20,1,-13,1,-26,1,23,1,4,1,-30,1,14,1,2,1,15,1,13,1,5,1
286,37,1,22,1,-15,1,-29,1,26,1,4,1,-32,1,11,1,1,1,14,1,12,1,4,1
287,33,1,22,1,-11,1,-27,1,22,1,6,1,-31,1,13,1,2,1,17,1,14,1,6,1
288,40,1,22,1,-18,1,-31,1,29,1,2,1,-33,1,10,1,0,1,14,1,12,1,5,1
289,37,1,23,1,-14,1,-30,1,26,1,5,1,-33,1,10,1,-1,1,14,1,14,1,5,1
290,38,1,24,1,-14,1,-31,1,26,1,5,1,-34,1,8,1,-1,1,15,1,14,1,5,1
291,37,1,24,1,-13,1,-30,1,25,1,6,1,-32,1,8,1,0,1,16,1,17,1,7,1
292,41,1,26,1,-15,1,-33,1,28,1,6,1,-35,1,6,1,-2,1,13,1,16,1,7,1
293,41,1,25,1,-16,1,-33,1,29,1,5,1,-35,1,5,1,-4,1,13,1,16,1,6,1
294,38,1,26,1,-12,1,-32,1,25,1,7,1,-35,1,6,1,-3,1,14,1,18,1,8,1
295,43,1,25,1,-18,1,-34,1,31,1,4,1,-35,1,4,1,-5,1,14,1,18,1,7,1
296,44,1,26,1,-18,1,-35,1,31,1,4,1,-37,1,2,1,-7,1,13,1,17,1,7,1
297,42,1,26,1,-16,1,-34,1,29,1,5,1,-37,1,1,1,-8,1,13,1,18,1,8,1
298,42,1,26,1,-16,1,-34,1,29,1,5,1,-36,1,1,1,-8,1,13,1,18,1,8,1
299,44,1,24,1,-20,1,-34,1,32,1,2,1,-35,1,0,1,-9,1,12,1,17,1,9,1
300,45,1,25,1,-20,1,-35,1,33,1,3,1,-35,1,0,1,-11,1,12,1,16,1,9,1
301,37,1,29,1,-8,1,-33,1,23,1,11,1,-33,1,0,1,-10,1,14,1,19,1,10,1
302,42,1,28,1,-14,1,-35,1,28,1,7,1,-35,1,-3,1,-12,1,12,1,17,1,9,1
303,45,1,25,1,-20,1,-35,1,33,1,3,1,-37,1,-5,1,-14,1,10,1,15,1,8,1
304,43,1,22,1,-21,1,-32,1,32,1,1,1,-37,1,-6,1,-14,1,11,1,15,1,7,1
305,46,1,22,1,-24,1,-34,1,35,1,-1,1,-37,1,-7,1,-15,1,10,1,14,1,7,1
306,44,1,24,1,-20,1,-34,1,32,1,2,1,-33,1,-5,1,-14,1,12,1,16,1,9,1
307,43,1,25,1,-18,1,-34,1,31,1,4,1,-34,1,-5,1,-14,1,11,1,13,1,7,1
308,43,1,24,1,-19,1,-33,1,31,1,3,1,-35,1,-8,1,-16,1,8,1,11,1,5,1
309,35,1,23,1,-12,1,-29,1,24,1,6,1,-31,1,-7,1,-15,1,8,1,12,1,6,1
310,40,1,21,1,-19,1,-30,1,30,1,1,1,-31,1,-7,1,-15,1,7,1,10,1,4,1
311,37,1,20,1,-17,1,-28,1,27,1,2,1,-30,1,-8,1,-15,1,5,1,8,1,2,1
312,38,1,21,1,-17,1,-29,1,28,1,2,1,-27,1,-6,1,-14,1,5,1,7,1,2,1
313,38,1,20,1,-18,1,-29,1,28,1,1,1,-27,1,-6,1,-16,1,3,1,6,1,0,1
314,37,1,17,1,-20,1,-27,1,29,1,-1,1,-26,1,-6,1,-15,1,3,1,6,1,-1,1
315,34,1,16,1,-18,1,-25,1,26,1,-1,1,-23,1,-5,1,-14,1,3,1,5,1,-2,1
316,33,1,16,1,-17,1,-24,1,25,1,0,1,-21,1,-5,1,-13,1,3,1,4,1,-3,1
317,32,1,16,1,-16,1,-24,1,24,1,0,1,-20,1,-5,1,-13,1,2,1,2,1,-3,1
318,32,1,16,1,-16,1,-24,1,24,1,0,1,-16,1,-3,1,-11,1,2,1,1,1,-6,1
319,32,1,15,1,-17,1,-23,1,25,1,-1,1,-13,1,-2,1,-10,1,3,1,0,1,-7,1
320,31,1,12,1,-19,1,-21,1,25,1,-3,1,-11,1,-2,1,-10,1,2,1,-2,1,-7,1
321,29,1,12,1,-17,1,-20,1,23,1,-2,1,-11,1,-2,1,-9,1,1,1,-3,1,-9,1
322,26,1,9,1,-17,1,-17,1,22,1,-4,1,-11,1,-1,1,-9,1,1,1,-3,1,-11,1
323,24,1,6,1,-18,1,-15,1,21,1,-6,1,-6,1,0,1,-7,1,1,1,-4,1,-11,1
324,20,1,7,1,-13,1,-13,1,17,1,-3,1,-4,1,3,1,-4,1,2,1,-4,1,-11,1
325,21,1,7,1,-14,1,-14,1,18,1,-3,1,-4,1,3,1,-5,1,1,1,-5,1,-10,1
326,20,1,7,1,-13,1,-13,1,17,1,-3,1,-4,1,3,1,-6,1,0,1,-8,1,-12,1
327,24,1,6,1,-18,1,-15,1,21,1,-6,1,-5,1,1,1,-7,1,-2,1,-10,1,-17,1
328,23,1,3,1,-20,1,-13,1,22,1,-8,1,-4,1,2,1,-7,1,-4,1,-11,1,-17,1
329,11,1,1,1,-10,1,-6,1,11,1,-4,1,0,1,6,1,-4,1,0,1,-9,1,-14,1
330,13,1,1,1,-12,1,-7,1,13,1,-5,1,-1,1,5,1,-4,1,-2,1,-10,1,-16,1
331,13,1,1,1,-12,1,-7,1,13,1,-5,1,0,1,5,1,-4,1,-3,1,-10,1,-17,1
332,14,1,0,1,-14,1,-7,1,14,1,-7,1,1,1,4,1,-4,1,-3,1,-10,1,-17,1
333,22,1,0,1,-22,1,-11,1,22,1,-11,1,-2,1,1,1,-7,1,-6,1,-14,1,-21,1
334,17,1,0,1,-17,1,-8,1,17,1,-8,1,0,1,3,1,-4,1,-4,1,-12,1,-19,1
335,10,1,0,1,-10,1,-5,1,10,1,-5,1,3,1,4,1,-2,1,-2,1,-11,1,-18,1
336,16,1,-2,1,-18,1,-7,1,17,1,-10,1,0,1,2,1,-4,1,-5,1,-14,1,-22,1
337,13,1,-4,1,-17,1,-4,1,15,1,-10,1,0,1,3,1,-3,1,-5,1,-14,1,-21,1
338,18,1,-3,1,-21,1,-7,1,19,1,-12,1,0,1,2,1,-5,1,-6,1,-16,1,-23,1
339,14,1,-2,1,-16,1,-6,1,15,1,-9,1,2,1,4,1,-4,1,-6,1,-15,1,-22,1
340,12,1,-3,1,-15,1,-4,1,13,1,-9,1,2,1,4,1,-5,1,-6,1,-16,1,-21,1
341,10,1,-7,1,-17,1,-1,1,13,1,-12,1,1,1,3,1,-5,1,-6,1,-16,1,-21,1
342,11,1,-4,1,-15,1,-3,1,13,1,-9,1,0,1,3,1,-4,1,-5,1,-15,1,-21,1
343,13,1,-3,1,-16,1,-5,1,14,1,-9,1,0,1,4,1,-4,1,-5,1,-14,1,-20,1
344,16,1,-3,1,-19,1,-6,1,17,1,-11,1,-1,1,2,1,-5,1,-6,1,-16,1,-22,1
345,17,1,-4,1,-21,1,-6,1,19,1,-12,1,-2,1,1,1,-5,1,-6,1,-17,1,-23,1
346,15,1,-1,1,-16,1,-7,1,15,1,-8,1,-2,1,2,1,-4,1,-4,1,-16,1,-22,1
347,12,1,-4,1,-16,1,-4,1,14,1,-10,1,0,1,2,1,-4,1,-5,1,-16,1,-21,1
348,12,1,-4,1,-16,1,-4,1,14,1,-10,1,-1,1,2,1,-5,1,-6,1,-17,1,-22,1
349,15,1,-6,1,-21,1,-4,1,18,1,-13,1,-2,1,1,1,-6,1,-7,1,-18,1,-23,1
350,13,1,-9,1,-22,1,-2,1,17,1,-15,1,0,1,1,1,-5,1,-7,1,-18,1,-22,1
351,12,1,-5,1,-17,1,-3,1,14,1,-11,1,-1,1,1,1,-5,1,-7,1,-18,1,-23,1
352,13,1,-3,1,-16,1,-5,1,14,1,-9,1,-1,1,0,1,-6,1,-7,1,-19,1,-24,1
353,17,1,-5,1,-22,1,-6,1,19,1,-13,1,-2,1,2,1,-5,1,-6,1,-17,1,-24,1
354,11,1,-3,1,-14,1,-4,1,12,1,-8,1,0,1,3,1,-4,1,-4,1,-15,1,-21,1
355,14,1,-4,1,-18,1,-5,1,16,1,-11,1,-2,1,0,1,-6,1,-7,1,-18,1,-24,1
356,13,1,-6,1,-19,1,-3,1,16,1,-12,1,-2,1,0,1,-7,1,-7,1,-17,1,-24,1
357,15,1,-5,1,-20,1,-5,1,17,1,-12,1,-3,1,0,1,-7,1,-8,1,-18,1,-25,1
358,18,1,-3,1,-21,1,-7,1,19,1,-12,1,-2,1,0,1,-8,1,-8,1,-18,1,-25,1
359,11,1,-3,1,-14,1,-4,1,12,1,-8,1,1,1,3,1,-6,1,-5,1,-15,1,-21,1
360,10,1,-5,1,-15,1,-2,1,12,1,-10,1,1,1,4,1,-5,1,-5,1,-15,1,-21,1
361,10,1,-7,1,-17,1,-1,1,13,1,-12,1,0,1,3,1,-5,1,-6,1,-16,1,-21,1
362,7,1,-4,1,-11,1,-1,1,9,1,-7,1,-2,1,3,1,-4,1,-6,1,-14,1,-21,1
363,14,1,-4,1,-18,1,-5,1,16,1,-11,1,-1,1,1,1,-6,1,-8,1,-16,1,-22,1
364,15,1,0,1,-15,1,-7,1,15,1,-7,1,-2,1,1,1,-8,1,-8,1,-17,1,-24,1
365,12,1,-2,1,-14,1,-5,1,13,1,-8,1,-1,1,2,1,-6,1,-6,1,-15,1,-22,1
366,13,1,-4,1,-17,1,-4,1,15,1,-10,1,-2,1,1,1,-7,1,-7,1,-15,1,-22,1
367,12,1,-4,1,-16,1,-4,1,14,1,-10,1,-2,1,1,1,-7,1,-6,1,-16,1,-22,1
368,14,1,-3,1,-17,1,-5,1,15,1,-10,1,-1,1,1,1,-8,1,-6,1,-15,1,-22,1
369,16,1,-3,1,-19,1,-6,1,17,1,-11,1,-2,1,3,1,-5,1,-5,1,-13,1,-20,1
370,16,1,0,1,-16,1,-8,1,16,1,-8,1,-1,1,3,1,-5,1,-5,1,-14,1,-20,1
371,15,1,0,1,-15,1,-7,1,15,1,-7,1,-1,1,2,1,-6,1,-6,1,-14,1,-21,1
372,13,1,-4,1,-17,1,-4,1,15,1,-10,1,-1,1,2,1,-7,1,-7,1,-15,1,-21,1
373,15,1,0,1,-15,1,-7,1,15,1,-7,1,-2,1,3,1,-6,1,-5,1,-14,1,-21,1
374,17,1,-1,1,-18,1,-8,1,17,1,-9,1,-1,1,2,1,-6,1,-5,1,-13,1,-19,1
375,20,1,1,1,-19,1,-10,1,20,1,-9,1,-3,1,0,1,-7,1,-7,1,-15,1,-21,1
376,21,1,0,1,-21,1,-10,1,21,1,-10,1,-2,1,1,1,-6,1,-6,1,-15,1,-20,1
377,18,1,-1,1,-19,1,-8,1,18,1,-10,1,-2,1,2,1,-6,1,-6,1,-15,1,-20,1
378,8,1,-1,1,-9,1,-3,1,8,1,-5,1,1,1,6,1,-3,1,-3,1,-12,1,-17,1
379,10,1,0,1,-10,1,-5,1,10,1,-5,1,0,1,4,1,-4,1,-4,1,-14,1,-19,1
380,13,1,0,1,-13,1,-6,1,13,1,-6,1,-1,1,3,1,-6,1,-5,1,-15,1,-18,1
381,14,1,0,1,-14,1,-7,1,14,1,-7,1,0,1,4,1,-6,1,-5,1,-15,1,-19,1
382,16,1,0,1,-16,1,-8,1,16,1,-8,1,-1,1,4,1,-5,1,-4,1,-13,1,-18,1
383,17,1,3,1,-14,1,-10,1,16,1,-5,1,-1,1,5,1,-4,1,-3,1,-12,1,-17,1
384,12,1,1,1,-11,1,-6,1,12,1,-5,1,-1,1,5,1,-3,1,-2,1,-11,1,-16,1
385,17,1,1,1,-16,1,-9,1,17,1,-7,1,-2,1,3,1,-5,1,-3,1,-12,1,-17,1
386,16,1,2,1,-14,1,-9,1,15,1,-6,1,-3,1,3,1,-5,1,-3,1,-12,1,-18,1
387,17,1,0,1,-17,1,-8,1,17,1,-8,1,-2,1,3,1,-5,1,-3,1,-12,1,-17,1
388,16,1,2,1,-14,1,-9,1,15,1,-6,1,-2,1,3,1,-5,1,-4,1,-12,1,-17,1
389,13,1,2,1,-11,1,-7,1,12,1,-4,1,-1,1,3,1,-4,1,-3,1,-13,1,-18,1
390,15,1,1,1,-14,1,-8,1,15,1,-6,1,-1,1,4,1,-3,1,-2,1,-12,1,-18,1
391,15,1,2,1,-13,1,-8,1,14,1,-5,1,-1,1,5,1,-3,1,-2,1,-10,1,-16,1
392,15,1,2,1,-13,1,-8,1,14,1,-5,1,-1,1,6,1,-2,1,0,1,-9,1,-15,1
393,14,1,2,1,-12,1,-8,1,13,1,-5,1,-1,1,5,1,-2,1,0,1,-9,1,-16,1
394,18,1,2,1,-16,1,-10,1,17,1,-7,1,-3,1,3,1,-5,1,-2,1,-11,1,-17,1
395,17,1,2,1,-15,1,-9,1,16,1,-6,1,-2,1,3,1,-4,1,-1,1,-10,1,-16,1
396,11,1,1,1,-10,1,-6,1,11,1,-4,1,0,1,6,1,-2,1,1,1,-8,1,-14,1
397,19,1,1,1,-18,1,-10,1,19,1,-8,1,-4,1,4,1,-4,1,-1,1,-11,1,-16,1
398,12,1,-2,1,-14,1,-5,1,13,1,-8,1,0,1,6,1,0,1,1,1,-8,1,-14,1
399,12,1,0,1,-12,1,-6,1,12,1,-6,1,1,1,7,1,0,1,2,1,-8,1,-13,1
400,13,1,0,1,-13,1,-6,1,13,1,-6,1,0,1,6,1,-2,1,-1,1,-9,1,-15,1
401,18,1,4,1,-14,1,-11,1,16,1,-5,1,-2,1,4,1,-3,1,-1,1,-11,1,-15,1
402,18,1,3,1,-15,1,-10,1,17,1,-6,1,-3,1,4,1,-3,1,-2,1,-12,1,-16,1
403,14,1,-1,1,-15,1,-6,1,14,1,-8,1,-2,1,4,1,-2,1,0,1,-10,1,-16,1
404,15,1,-1,1,-16,1,-7,1,15,1,-8,1,-2,1,4,1,-2,1,0,1,-10,1,-15,1
405,14,1,1,1,-13,1,-7,1,14,1,-6,1,-3,1,4,1,-3,1,-2,1,-11,1,-17,1
406,17,1,3,1,-14,1,-10,1,16,1,-5,1,-4,1,3,1,-5,1,-3,1,-13,1,-19,1
407,15,1,1,1,-14,1,-8,1,15,1,-6,1,-4,1,3,1,-4,1,-2,1,-12,1,-18,1
408,17,1,1,1,-16,1,-9,1,17,1,-7,1,-4,1,3,1,-6,1,-3,1,-14,1,-19,1
409,18,1,5,1,-13,1,-11,1,16,1,-4,1,-5,1,1,1,-8,1,-4,1,-15,1,-20,1
410,19,1,4,1,-15,1,-11,1,17,1,-5,1,-4,1,1,1,-7,1,-4,1,-14,1,-19,1
411,19,1,1,1,-18,1,-10,1,19,1,-8,1,-3,1,2,1,-6,1,-4,1,-13,1,-19,1
412,18,1,1,1,-17,1,-9,1,18,1,-8,1,-4,1,1,1,-7,1,-4,1,-12,1,-18,1
413,13,1,1,1,-12,1,-7,1,13,1,-5,1,-2,1,3,1,-6,1,-3,1,-12,1,-15,1
414,14,1,0,1,-14,1,-7,1,14,1,-7,1,-3,1,3,1,-6,1,-4,1,-12,1,-15,1
415,18,1,2,1,-16,1,-10,1,17,1,-7,1,-3,1,1,1,-7,1,-4,1,-12,1,-16,1
416,17,1,1,1,-16,1,-9,1,17,1,-7,1,-3,1,1,1,-8,1,-6,1,-13,1,-17,1
417,16,1,0,1,-16,1,-8,1,16,1,-8,1,-4,1,0,1,-8,1,-6,1,-13,1,-16,1
418,16,1,0,1,-16,1,-8,1,16,1,-8,1,-3,1,2,1,-7,1,-5,1,-13,1,-15,1
419,15,1,-1,1,-16,1,-7,1,15,1,-8,1,-4,1,2,1,-8,1,-6,1,-14,1,-17,1
420,16,1,-1,1,-17,1,-7,1,16,1,-9,1,-2,1,2,1,-8,1,-5,1,-14,1,-17,1
421,16,1,-1,1,-17,1,-7,1,16,1,-9,1,-1,1,1,1,-9,1,-6,1,-15,1,-17,1
422,16,1,1,1,-15,1,-8,1,16,1,-7,1,-2,1,0,1,-9,1,-6,1,-14,1,-17,1
423,15,1,0,1,-15,1,-7,1,15,1,-7,1,-2,1,0,1,-9,1,-7,1,-15,1,-17,1
424,14,1,-2,1,-16,1,-6,1,15,1,-9,1,-2,1,0,1,-9,1,-7,1,-15,1,-17,1
425,14,1,0,1,-14,1,-7,1,14,1,-7,1,-2,1,-2,1,-11,1,-9,1,-16,1,-18,1
426,14,1,-1,1,-15,1,-6,1,14,1,-8,1,-1,1,-1,1,-10,1,-7,1,-15,1,-17,1
427,15,1,-3,1,-18,1,-6,1,16,1,-10,1,-2,1,-1,1,-10,1,-7,1,-16,1,-17,1
428,14,1,-1,1,-15,1,-6,1,14,1,-8,1,-2,1,-1,1,-10,1,-8,1,-16,1,-17,1
429,12,1,0,1,-12,1,-6,1,12,1,-6,1,-1,1,-1,1,-10,1,-7,1,-16,1,-17,1
430,16,1,-1,1,-17,1,-7,1,16,1,-9,1,-2,1,-1,1,-11,1,-8,1,-16,1,-17,1
431,17,1,-1,1,-18,1,-8,1,17,1,-9,1,-3,1,-2,1,-13,1,-10,1,-19,1,-18,1
432,15,1,-2,1,-17,1,-6,1,16,1,-9,1,-3,1,-3,1,-14,1,-10,1,-18,1,-18,1
433,15,1,-2,1,-17,1,-6,1,16,1,-9,1,-4,1,-4,1,-15,1,-11,1,-19,1,-20,1
434,22,1,0,1,-22,1,-11,1,22,1,-11,1,-5,1,-6,1,-16,1,-12,1,-20,1,-21,1
435,10,1,4,1,-6,1,-7,1,8,1,-1,1,0,1,-1,1,-11,1,-6,1,-13,1,-15,1
436,10,1,1,1,-9,1,-5,1,10,1,-4,1,-1,1,-1,1,-12,1,-7,1,-13,1,-15,1
437,14,1,0,1,-14,1,-7,1,14,1,-7,1,-3,1,-3,1,-15,1,-10,1,-18,1,-18,1
438,9,1,-2,1,-11,1,-3,1,10,1,-6,1,-1,1,-3,1,-14,1,-9,1,-16,1,-18,1
439,7,1,-4,1,-11,1,-1,1,9,1,-7,1,0,1,-2,1,-13,1,-8,1,-15,1,-16,1
440,10,1,-4,1,-14,1,-3,1,12,1,-9,1,-1,1,-3,1,-15,1,-10,1,-17,1,-18,1
441,15,1,-1,1,-16,1,-7,1,15,1,-8,1,-1,1,-4,1,-15,1,-10,1,-17,1,-18,1
442,16,1,0,1,-16,1,-8,1,16,1,-8,1,-3,1,-5,1,-17,1,-11,1,-19,1,-20,1
443,14,1,0,1,-14,1,-7,1,14,1,-7,1,-2,1,-3,1,-16,1,-13,1,-19,1,-20,1
444,12,1,0,1,-12,1,-6,1,12,1,-6,1,-2,1,-3,1,-16,1,-12,1,-18,1,-20,1
445,10,1,0,1,-10,1,-5,1,10,1,-5,1,-3,1,-4,1,-16,1,-12,1,-19,1,-20,1
446,13,1,-2,1,-15,1,-5,1,14,1,-8,1,-2,1,-4,1,-16,1,-12,1,-19,1,-20,1
447,14,1,-1,1,-15,1,-6,1,14,1,-8,1,-3,1,-4,1,-16,1,-13,1,-19,1,-21,1
448,14,1,0,1,-14,1,-7,1,14,1,-7,1,-4,1,-5,1,-18,1,-14,1,-21,1,-21,1
449,14,1,-1,1,-15,1,-6,1,14,1,-8,1,-3,1,-4,1,-17,1,-12,1,-20,1,-19,1
450,16,1,-3,1,-19,1,-6,1,17,1,-11,1,-3,1,-4,1,-16,1,-11,1,-19,1,-18,1
451,20,1,-2,1,-22,1,-9,1,21,1,-12,1,-6,1,-6,1,-19,1,-14,1,-22,1,-21,1
452,9,1,-2,1,-11,1,-3,1,10,1,-6,1,-2,1,-4,1,-17,1,-12,1,-20,1,-20,1
453,12,1,-4,1,-16,1,-4,1,14,1,-10,1,-4,1,-5,1,-18,1,-13,1,-20,1,-20,1
454,15,1,4,1,-11,1,-9,1,13,1,-3,1,-5,1,-8,1,-19,1,-15,1,-22,1,-22,1
455,17,1,2,1,-15,1,-9,1,16,1,-6,1,-5,1,-7,1,-19,1,-15,1,-22,1,-21,1
456,13,1,-3,1,-16,1,-5,1,14,1,-9,1,-3,1,-5,1,-17,1,-13,1,-20,1,-20,1
457,10,1,-4,1,-14,1,-3,1,12,1,-9,1,-2,1,-4,1,-16,1,-13,1,-20,1,-20,1
458,9,1,-4,1,-13,1,-2,1,11,1,-8,1,-2,1,-4,1,-16,1,-13,1,-20,1,-18,1
459,10,1,-1,1,-11,1,-4,1,10,1,-6,1,-2,1,-5,1,-18,1,-13,1,-20,1,-20,1
460,12,1,-3,1,-15,1,-4,1,13,1,-9,1,-3,1,-6,1,-18,1,-13,1,-20,1,-20,1
461,14,1,-4,1,-18,1,-5,1,16,1,-11,1,-3,1,-6,1,-17,1,-13,1,-20,1,-20,1
462,11,1,-3,1,-14,1,-4,1,12,1,-8,1,-4,1,-6,1,-17,1,-13,1,-20,1,-21,1
463,12,1,-4,1,-16,1,-4,1,14,1,-10,1,-3,1,-7,1,-17,1,-13,1,-20,1,-22,1
464,14,1,-1,1,-15,1,-6,1,14,1,-8,1,-5,1,-7,1,-19,1,-14,1,-22,1,-23,1
465,14,1,-4,1,-18,1,-5,1,16,1,-11,1,-5,1,-7,1,-18,1,-13,1,-21,1,-23,1
466,12,1,-4,1,-16,1,-4,1,14,1,-10,1,-4,1,-7,1,-17,1,-13,1,-20,1,-22,1
467,13,1,-2,1,-15,1,-5,1,14,1,-8,1,-4,1,-8,1,-18,1,-13,1,-20,1,-21,1
468,15,1,-5,1,-20,1,-5,1,17,1,-12,1,-4,1,-8,1,-18,1,-13,1,-21,1,-21,1
469,16,1,-1,1,-17,1,-7,1,16,1,-9,1,-4,1,-8,1,-19,1,-14,1,-23,1,-23,1
470,10,1,-2,1,-12,1,-4,1,11,1,-7,1,-2,1,-5,1,-16,1,-12,1,-20,1,-20,1
471,9,1,-3,1,-12,1,-3,1,10,1,-7,1,-1,1,-5,1,-17,1,-12,1,-19,1,-19,1
472,16,1,-5,1,-21,1,-5,1,18,1,-13,1,-4,1,-7,1,-18,1,-14,1,-22,1,-21,1
473,17,1,-4,1,-21,1,-6,1,19,1,-12,1,-4,1,-8,1,-18,1,-14,1,-22,1,-22,1
474,13,1,-5,1,-18,1,-4,1,15,1,-11,1,-4,1,-7,1,-19,1,-15,1,-22,1,-22,1
475,17,1,-3,1,-20,1,-7,1,18,1,-11,1,-6,1,-9,1,-20,1,-17,1,-23,1,-24,1
476,10,1,-4,1,-14,1,-3,1,12,1,-9,1,-3,1,-7,1,-18,1,-15,1,-22,1,-22,1
477,12,1,-4,1,-16,1,-4,1,14,1,-10,1,-4,1,-8,1,-18,1,-15,1,-22,1,-22,1
478,11,1,-1,1,-12,1,-5,1,11,1,-6,1,-3,1,-8,1,-18,1,-16,1,-23,1,-22,1
479,12,1,-4,1,-16,1,-4,1,14,1,-10,1,-3,1,-7,1,-18,1,-15,1,-22,1,-22,1
480,14,1,-4,1,-18,1,-5,1,16,1,-11,1,-4,1,-9,1,-20,1,-17,1,-24,1,-24,1
481,13,1,-5,1,-18,1,-4,1,15,1,-11,1,-3,1,-9,1,-19,1,-17,1,-24,1,-24,1
482,10,1,-5,1,-15,1,-2,1,12,1,-10,1,-1,1,-7,1,-17,1,-14,1,-21,1,-21,1
483,17,1,-3,1,-20,1,-7,1,18,1,-11,1,-4,1,-9,1,-19,1,-17,1,-22,1,-23,1
484,12,1,-3,1,-15,1,-4,1,13,1,-9,1,-3,1,-8,1,-18,1,-16,1,-21,1,-22,1
485,8,1,-7,1,-15,1,0,1,11,1,-11,1,-1,1,-8,1,-18,1,-15,1,-20,1,-21,1
486,11,1,-4,1,-15,1,-3,1,13,1,-9,1,-2,1,-9,1,-18,1,-16,1,-21,1,-21,1
487,14,1,-2,1,-16,1,-6,1,15,1,-9,1,-4,1,-9,1,-18,1,-17,1,-22,1,-23,1
488,12,1,-4,1,-16,1,-4,1,14,1,-10,1,-2,1,-8,1,-17,1,-16,1,-22,1,-22,1
489,12,1,-3,1,-15,1,-4,1,13,1,-9,1,-2,1,-8,1,-19,1,-17,1,-23,1,-23,1
490,5,1,-4,1,-9,1,0,1,7,1,-6,1,0,1,-7,1,-16,1,-15,1,-22,1,-21,1
491,11,1,-4,1,-15,1,-3,1,13,1,-9,1,-1,1,-8,1,-19,1,-18,1,-25,1,-24,1
492,13,1,-4,1,-17,1,-4,1,15,1,-10,1,-1,1,-9,1,-20,1,-18,1,-23,1,-23,1
493,13,1,-4,1,-17,1,-4,1,15,1,-10,1,-1,1,-8,1,-19,1,-16,1,-21,1,-24,1
494,14,1,-4,1,-18,1,-5,1,16,1,-11,1,-3,1,-10,1,-20,1,-18,1,-23,1,-25,1
495,10,1,-4,1,-14,1,-3,1,12,1,-9,1,-2,1,-10,1,-20,1,-16,1,-23,1,-23,1
496,11,1,-2,1,-13,1,-4,1,12,1,-7,1,0,1,-7,1,-18,1,-15,1,-21,1,-21,1
497,14,1,-2,1,-16,1,-6,1,15,1,-9,1,-1,1,-7,1,-19,1,-15,1,-22,1,-21,1
498,11,1,-4,1,-15,1,-3,1,13,1,-9,1,-2,1,-7,1,-19,1,-15,1,-21,1,-21,1
499,7,1,-5,1,-12,1,-1,1,9,1,-8,1,-1,1,-7,1,-19,1,-15,1,-22,1,-22,1
500,9,1,-9,1,-18,1,0,1,13,1,-13,1,-3,1,-8,1,-21,1,-17,1,-24,1,-23,1
501,16,1,-5,1,-21,1,-5,1,18,1,-13,1,-3,1,-8,1,-20,1,-17,1,-24,1,-22,1
502,14,1,-6,1,-20,1,-4,1,17,1,-13,1,0,1,-6,1,-18,1,-14,1,-22,1,-21,1
503,8,1,-5,1,-13,1,-1,1,10,1,-9,1,0,1,-6,1,-17,1,-13,1,-20,1,-20,1
504,12,1,-3,1,-15,1,-4,1,13,1,-9,1,-2,1,-9,1,-20,1,-15,1,-23,1,-23,1
505,14,1,-4,1,-18,1,-5,1,16,1,-11,1,-3,1,-9,1,-18,1,-15,1,-23,1,-23,1
506,16,1,-4,1,-20,1,-6,1,18,1,-12,1,-4,1,-10,1,-18,1,-17,1,-22,1,-24,1
507,13,1,-4,1,-17,1,-4,1,15,1,-10,1,-2,1,-9,1,-19,1,-16,1,-22,1,-23,1
508,10,1,-7,1,-17,1,-1,1,13,1,-12,1,0,1,-7,1,-17,1,-14,1,-20,1,-21,1
509,10,1,-7,1,-17,1,-1,1,13,1,-12,1,-1,1,-9,1,-17,1,-15,1,-21,1,-22,1
510,9,1,-4,1,-13,1,-2,1,11,1,-8,1,-1,1,-9,1,-18,1,-16,1,-22,1,-23,1
511,12,1,-6,1,-18,1,-3,1,15,1,-12,1,0,1,-7,1,-17,1,-15,1,-21,1,-21,1
512,12,1,-6,1,-18,1,-3,1,15,1,-12,1,0,1,-7,1,-17,1,-15,1,-20,1,-22,1
513,10,1,-2,1,-12,1,-4,1,11,1,-7,1,-1,1,-9,1,-17,1,-14,1,-20,1,-21,1
514,12,1,-3,1,-15,1,-4,1,13,1,-9,1,-1,1,-8,1,-17,1,-14,1,-20,1,-21,1
515,13,1,-1,1,-14,1,-6,1,13,1,-7,1,-2,1,-9,1,-18,1,-15,1,-21,1,-22,1
516,11,1,-4,1,-15,1,-3,1,13,1,-9,1,-2,1,-9,1,-18,1,-15,1,-21,1,-22,1
517,10,1,-7,1,-17,1,-1,1,13,1,-12,1,-1,1,-9,1,-18,1,-15,1,-22,1,-22,1
518,11,1,-6,1,-17,1,-2,1,14,1,-11,1,-1,1,-9,1,-19,1,-15,1,-22,1,-22,1
519,12,1,-4,1,-16,1,-4,1,14,1,-10,1,-4,1,-9,1,-19,1,-15,1,-22,1,-24,1
520,13,1,-4,1,-17,1,-4,1,15,1,-10,1,-3,1,-9,1,-19,1,-15,1,-23,1,-24,1
521,13,1,-5,1,-18,1,-4,1,15,1,-11,1,-1,1,-9,1,-21,1,-15,1,-23,1,-24,1
522,16,1,-6,1,-22,1,-5,1,19,1,-14,1,-2,1,-10,1,-20,1,-16,1,-24,1,-25,1
523,13,1,-5,1,-18,1,-4,1,15,1,-11,1,-1,1,-8,1,-18,1,-14,1,-22,1,-24,1
524,13,1,-5,1,-18,1,-4,1,15,1,-11,1,-2,1,-7,1,-17,1,-14,1,-21,1,-22,1
525,13,1,-5,1,-18,1,-4,1,15,1,-11,1,-2,1,-8,1,-17,1,-14,1,-21,1,-22,1
526,12,1,-6,1,-18,1,-3,1,15,1,-12,1,-2,1,-8,1,-17,1,-14,1,-22,1,-22,1
527,11,1,-7,1,-18,1,-2,1,14,1,-12,1,-1,1,-8,1,-18,1,-14,1,-21,1,-22,1
528,11,1,-7,1,-18,1,-2,1,14,1,-12,1,-2,1,-8,1,-19,1,-14,1,-21,1,-22,1
529,12,1,-4,1,-16,1,-4,1,14,1,-10,1,-3,1,-9,1,-20,1,-16,1,-22,1,-23,1
530,14,1,-4,1,-18,1,-5,1,16,1,-11,1,-3,1,-9,1,-21,1,-16,1,-23,1,-23,1
531,14,1,-5,1,-19,1,-4,1,16,1,-12,1,-2,1,-8,1,-19,1,-15,1,-21,1,-21,1
532,13,1,-3,1,-16,1,-5,1,14,1,-9,1,-2,1,-8,1,-18,1,-15,1,-21,1,-22,1
533,11,1,-3,1,-14,1,-4,1,12,1,-8,1,-2,1,-8,1,-19,1,-17,1,-21,1,-22,1
534,11,1,-5,1,-16,1,-3,1,13,1,-10,1,-4,1,-8,1,-18,1,-17,1,-21,1,-21,1
535,12,1,-4,1,-16,1,-4,1,14,1,-10,1,-4,1,-8,1,-18,1,-16,1,-21,1,-21,1
536,10,1,-3,1,-13,1,-3,1,11,1,-8,1,-3,1,-6,1,-17,1,-14,1,-20,1,-19,1
537,16,1,-1,1,-17,1,-7,1,16,1,-9,1,-3,1,-6,1,-17,1,-14,1,-20,1,-19,1
538,18,1,1,1,-17,1,-9,1,18,1,-8,1,0,1,-6,1,-18,1,-14,1,-20,1,-18,1
539,19,1,1,1,-18,1,-10,1,19,1,-8,1,1,1,-7,1,-18,1,-15,1,-21,1,-19,1
540,18,1,2,1,-16,1,-10,1,17,1,-7,1,2,1,-5,1,-17,1,-14,1,-21,1,-20,1
541,17,1,2,1,-15,1,-9,1,16,1,-6,1,2,1,-3,1,-15,1,-14,1,-19,1,-18,1
542,20,1,3,1,-17,1,-11,1,19,1,-7,1,4,1,-1,1,-13,1,-11,1,-17,1,-17,1
543,21,1,6,1,-15,1,-13,1,18,1,-4,1,6,1,0,1,-10,1,-9,1,-16,1,-16,1
544,21,1,7,1,-14,1,-14,1,18,1,-3,1,7,1,2,1,-11,1,-9,1,-16,1,-16,1
545,17,1,6,1,-11,1,-11,1,14,1,-2,1,9,1,4,1,-8,1,-7,1,-14,1,-14,1
546,15,1,6,1,-9,1,-10,1,12,1,-1,1,9,1,4,1,-7,1,-7,1,-14,1,-14,1
547,22,1,8,1,-14,1,-15,1,18,1,-3,1,8,1,4,1,-8,1,-8,1,-16,1,-15,1
548,26,1,8,1,-18,1,-17,1,22,1,-5,1,7,1,5,1,-8,1,-7,1,-15,1,-14,1
549,25,1,7,1,-18,1,-16,1,22,1,-5,1,7,1,5,1,-8,1,-7,1,-14,1,-14,1
550,28,1,7,1,-21,1,-17,1,25,1,-7,1,6,1,5,1,-7,1,-7,1,-14,1,-13,1
551,29,1,10,1,-19,1,-19,1,24,1,-4,1,6,1,6,1,-6,1,-6,1,-14,1,-13,1
552,29,1,12,1,-17,1,-20,1,23,1,-2,1,6,1,9,1,-4,1,-4,1,-11,1,-12,1
553,28,1,13,1,-15,1,-20,1,22,1,-1,1,7,1,12,1,-1,1,-1,1,-10,1,-10,1
554,26,1,15,1,-11,1,-20,1,19,1,2,1,8,1,16,1,3,1,2,1,-5,1,-6,1
555,32,1,20,1,-12,1,-26,1,22,1,4,1,7,1,15,1,2,1,2,1,-4,1,-7,1
556,36,1,21,1,-15,1,-28,1,26,1,3,1,5,1,15,1,2,1,3,1,-4,1,-7,1
557,33,1,21,1,-12,1,-27,1,23,1,5,1,3,1,17,1,4,1,5,1,-2,1,-3,1
558,32,1,22,1,-10,1,-27,1,21,1,6,1,1,1,16,1,2,1,4,1,-3,1,-4,1
559,31,1,22,1,-9,1,-26,1,20,1,7,1,0,1,13,1,0,1,3,1,-4,1,-4,1
560,34,1,22,1,-12,1,-28,1,23,1,5,1,-2,1,10,1,-2,1,0,1,-6,1,-6,1
561,31,1,16,1,-15,1,-23,1,23,1,1,1,-2,1,9,1,-2,1,1,1,-6,1,-7,1
562,31,1,15,1,-16,1,-23,1,24,1,0,1,-5,1,5,1,-5,1,-1,1,-8,1,-8,1
563,32,1,10,1,-22,1,-21,1,27,1,-6,1,-10,1,0,1,-9,1,-4,1,-11,1,-10,1
564,29,1,9,1,-20,1,-19,1,25,1,-5,1,-10,1,-3,1,-10,1,-4,1,-11,1,-10,1
565,31,1,13,1,-18,1,-22,1,25,1,-2,1,-10,1,-5,1,-11,1,-5,1,-12,1,-11,1
566,30,1,11,1,-19,1,-20,1,25,1,-4,1,-10,1,-6,1,-12,1,-8,1,-13,1,-13,1
567,33,1,9,1,-24,1,-21,1,29,1,-7,1,-12,1,-9,1,-16,1,-10,1,-17,1,-14,1
568,32,1,5,1,-27,1,-18,1,30,1,-11,1,-13,1,-10,1,-16,1,-12,1,-18,1,-16,1
569,26,1,1,1,-25,1,-13,1,26,1,-12,1,-11,1,-9,1,-16,1,-12,1,-17,1,-16,1
570,28,1,1,1,-27,1,-14,1,28,1,-13,1,-11,1,-10,1,-19,1,-14,1,-20,1,-18,1
571,32,1,1,1,-31,1,-16,1,32,1,-15,1,-14,1,-13,1,-22,1,-16,1,-22,1,-19,1
572,31,1,-1,1,-32,1,-15,1,31,1,-16,1,-12,1,-13,1,-21,1,-16,1,-22,1,-19,1
573,26,1,0,1,-26,1,-13,1,26,1,-13,1,-10,1,-12,1,-20,1,-15,1,-22,1,-19,1
574,18,1,-2,1,-20,1,-8,1,19,1,-11,1,-7,1,-10,1,-18,1,-13,1,-21,1,-17,1
575,20,1,-1,1,-21,1,-9,1,20,1,-11,1,-8,1,-9,1,-18,1,-12,1,-19,1,-17,1
576,19,1,0,1,-19,1,-9,1,19,1,-9,1,-6,1,-8,1,-16,1,-10,1,-17,1,-15,1
577,16,1,0,1,-16,1,-8,1,16,1,-8,1,-6,1,-6,1,-15,1,-11,1,-16,1,-15,1
578,17,1,-4,1,-21,1,-6,1,19,1,-12,1,-7,1,-9,1,-18,1,-13,1,-19,1,-18,1
579,15,1,-5,1,-20,1,-5,1,17,1,-12,1,-6,1,-10,1,-19,1,-16,1,-21,1,-20,1
580,10,1,-7,1,-17,1,-1,1,13,1,-12,1,-4,1,-9,1,-19,1,-16,1,-22,1,-20,1
581,10,1,-9,1,-19,1,0,1,14,1,-14,1,-5,1,-9,1,-19,1,-17,1,-23,1,-21,1
582,11,1,-8,1,-19,1,-1,1,15,1,-13,1,-6,1,-11,1,-20,1,-17,1,-23,1,-22,1
583,10,1,-9,1,-19,1,0,1,14,1,-14,1,-6,1,-13,1,-22,1,-19,1,-25,1,-23,1
584,13,1,-9,1,-22,1,-2,1,17,1,-15,1,-6,1,-15,1,-23,1,-20,1,-26,1,-23,1
585,12,1,-7,1,-19,1,-2,1,15,1,-13,1,-7,1,-15,1,-23,1,-20,1,-26,1,-24,1
586,8,1,-9,1,-17,1,0,1,12,1,-13,1,-8,1,-15,1,-23,1,-20,1,-26,1,-24,1
587,10,1,-10,1,-20,1,0,1,15,1,-15,1,-9,1,-16,1,-24,1,-20,1,-26,1,-25,1
588,11,1,-7,1,-18,1,-2,1,14,1,-12,1,-8,1,-15,1,-23,1,-19,1,-26,1,-24,1
589,11,1,-8,1,-19,1,-1,1,15,1,-13,1,-4,1,-14,1,-22,1,-19,1,-26,1,-23,1
590,11,1,-9,1,-20,1,-1,1,15,1,-14,1,-4,1,-14,1,-23,1,-19,1,-26,1,-24,1
591,8,1,-9,1,-17,1,0,1,12,1,-13,1,-4,1,-14,1,-23,1,-19,1,-26,1,-24,1
592,7,1,-11,1,-18,1,2,1,12,1,-14,1,-4,1,-14,1,-23,1,-19,1,-26,1,-24,1
593,9,1,-9,1,-18,1,0,1,13,1,-13,1,-5,1,-15,1,-23,1,-19,1,-26,1,-24,1
594,7,1,-10,1,-17,1,1,1,12,1,-13,1,-4,1,-14,1,-23,1,-19,1,-26,1,-22,1
595,10,1,-8,1,-18,1,-1,1,14,1,-13,1,-5,1,-15,1,-23,1,-19,1,-26,1,-23,1
596,9,1,-7,1,-16,1,-1,1,12,1,-11,1,-4,1,-14,1,-22,1,-19,1,-27,1,-23,1
597,3,1,-7,1,-10,1,2,1,6,1,-8,1,-2,1,-12,1,-19,1,-16,1,-23,1,-21,1
598,10,1,-7,1,-17,1,-1,1,13,1,-12,1,-5,1,-15,1,-23,1,-20,1,-27,1,-24,1
599,7,1,-9,1,-16,1,1,1,11,1,-12,1,-4,1,-14,1,-23,1,-20,1,-28,1,-25,1
600,9,1,-9,1,-18,1,0,1,13,1,-13,1,-5,1,-14,1,-23,1,-21,1,-28,1,-26,1
601,9,1,-9,1,-18,1,0,1,13,1,-13,1,-5,1,-14,1,-23,1,-20,1,-26,1,-26,1
602,12,1,-8,1,-20,1,-2,1,16,1,-14,1,-6,1,-16,1,-24,1,-21,1,-28,1,-28,1
603,4,1,-8,1,-12,1,2,1,8,1,-10,1,-4,1,-11,1,-20,1,-17,1,-23,1,-24,1
604,6,1,-8,1,-14,1,1,1,10,1,-11,1,-3,1,-11,1,-20,1,-17,1,-24,1,-23,1
605,9,1,-9,1,-18,1,0,1,13,1,-13,1,-5,1,-12,1,-20,1,-18,1,-25,1,-25,1
606,5,1,-11,1,-16,1,3,1,10,1,-13,1,-3,1,-12,1,-20,1,-18,1,-26,1,-24,1
607,7,1,-8,1,-15,1,0,1,11,1,-11,1,-5,1,-12,1,-21,1,-19,1,-28,1,-25,1
608,9,1,-7,1,-16,1,-1,1,12,1,-11,1,-6,1,-13,1,-23,1,-21,1,-29,1,-28,1
609,5,1,-8,1,-13,1,1,1,9,1,-10,1,-4,1,-12,1,-21,1,-20,1,-27,1,-28,1
610,8,1,-11,1,-19,1,1,1,13,1,-15,1,-2,1,-12,1,-22,1,-22,1,-29,1,-29,1
611,8,1,-10,1,-18,1,1,1,13,1,-14,1,-1,1,-11,1,-22,1,-24,1,-32,1,-31,1
612,-3,1,-9,1,-6,1,6,1,1,1,-8,1,5,1,-5,1,-18,1,-22,1,-32,1,-30,1
613,-1,1,-6,1,-5,1,3,1,2,1,-6,1,9,1,-2,1,-17,1,-24,1,-34,1,-31,1
614,-5,1,-3,1,2,1,4,1,-4,1,-1,1,16,1,5,1,-10,1,-21,1,-30,1,-28,1
615,-10,1,2,1,12,1,4,1,-11,1,7,1,21,1,20,1,3,1,-10,1,-21,1,-21,1
616,-3,1,9,1,12,1,-3,1,-7,1,10,1,22,1,34,1,15,1,0,1,-16,1,-19,1
617,0,1,16,1,16,1,-8,1,-8,1,16,1,21,1,52,1,31,1,17,1,-2,1,-11,1
618,12,1,23,1,11,1,-17,1,1,1,17,1,19,1,77,1,51,1,40,1,16,1,2,1
619,28,1,41,1,13,1,-34,1,8,1,27,1,15,1,104,1,80,1,73,1,44,1,21,1
620,39,1,63,1,24,1,-51,1,8,1,44,1,14,1,123,1,116,1,114,1,79,1,48,1
621,56,1,86,1,30,1,-71,1,13,1,58,1,6,1,119,1,144,1,148,1,111,1,73,1
622,75,1,111,1,36,1,-93,1,20,1,74,1,-1,1,116,1,170,1,182,1,144,1,99,1
623,102,1,133,1,31,1,-117,1,36,1,82,1,-11,1,104,1,193,1,218,1,178,1,124,1
624,115,1,146,1,31,1,-130,1,42,1,89,1,-31,1,84,1,207,1,251,1,210,1,149,1
625,142,1,157,1,15,1,-149,1,64,1,86,1,-66,1,61,1,216,1,280,1,238,1,170,1
626,171,1,172,1,1,1,-171,1,85,1,87,1,-101,1,41,1,231,1,314,1,270,1,194,1
627,191,1,185,1,-6,1,-188,1,99,1,90,1,-122,1,34,1,251,1,348,1,298,1,214,1
628,201,1,184,1,-17,1,-192,1,109,1,84,1,-138,1,26,1,265,1,369,1,312,1,220,1
629,201,1,168,1,-33,1,-184,1,117,1,68,1,-154,1,5,1,260,1,371,1,308,1,214,1
630,194,1,146,1,-48,1,-170,1,121,1,49,1,-162,1,-38,1,224,1,338,1,283,1,196,1
631,179,1,109,1,-70,1,-144,1,125,1,20,1,-159,1,-79,1,163,1,269,1,229,1,158,1
632,161,1,56,1,-105,1,-108,1,133,1,-24,1,-152,1,-114,1,85,1,175,1,150,1,104,1
633,137,1,14,1,-123,1,-75,1,130,1,-54,1,-149,1,-146,1,17,1,90,1,80,1,55,1
634,108,1,-10,1,-118,1,-49,1,113,1,-64,1,-142,1,-183,1,-49,1,10,1,16,1,14,1
635,84,1,-27,1,-111,1,-28,1,97,1,-69,1,-130,1,-215,1,-102,1,-56,1,-33,1,-18,1
636,58,1,-31,1,-89,1,-13,1,73,1,-60,1,-118,1,-232,1,-133,1,-94,1,-61,1,-37,1
637,38,1,-27,1,-65,1,-5,1,51,1,-46,1,-106,1,-227,1,-138,1,-105,1,-71,1,-44,1
638,21,1,-19,1,-40,1,-1,1,30,1,-29,1,-95,1,-200,1,-119,1,-91,1,-65,1,-40,1
639,7,1,-13,1,-20,1,3,1,13,1,-16,1,-85,1,-170,1,-101,1,-75,1,-55,1,-34,1
640,18,1,-14,1,-32,1,-2,1,25,1,-23,1,-87,1,-156,1,-98,1,-73,1,-56,1,-38,1
641,14,1,-15,1,-29,1,0,1,21,1,-22,1,-81,1,-136,1,-91,1,-68,1,-53,1,-35,1
642,7,1,-15,1,-22,1,4,1,14,1,-18,1,-67,1,-114,1,-79,1,-60,1,-47,1,-34,1
643,7,1,-12,1,-19,1,2,1,13,1,-15,1,-53,1,-93,1,-66,1,-50,1,-41,1,-31,1
644,9,1,-12,1,-21,1,1,1,15,1,-16,1,-45,1,-75,1,-56,1,-43,1,-37,1,-30,1
645,15,1,-10,1,-25,1,-2,1,20,1,-17,1,-37,1,-59,1,-46,1,-37,1,-33,1,-27,1
646,8,1,-10,1,-18,1,1,1,13,1,-14,1,-27,1,-43,1,-37,1,-30,1,-30,1,-27,1
647,12,1,-9,1,-21,1,-1,1,16,1,-15,1,-21,1,-34,1,-31,1,-27,1,-28,1,-27,1
648,12,1,-8,1,-20,1,-2,1,16,1,-14,1,-14,1,-26,1,-27,1,-24,1,-27,1,-25,1
649,10,1,-8,1,-18,1,-1,1,14,1,-13,1,-12,1,-22,1,-26,1,-24,1,-27,1,-25,1
650,8,1,-9,1,-17,1,0,1,12,1,-13,1,-11,1,-22,1,-27,1,-25,1,-28,1,-26,1
651,11,1,-8,1,-19,1,-1,1,15,1,-13,1,-11,1,-21,1,-27,1,-26,1,-29,1,-28,1
652,15,1,-7,1,-22,1,-4,1,18,1,-14,1,-10,1,-21,1,-27,1,-27,1,-30,1,-30,1
653,12,1,-7,1,-19,1,-2,1,15,1,-13,1,-8,1,-19,1,-25,1,-26,1,-29,1,-28,1
654,7,1,-7,1,-14,1,0,1,10,1,-10,1,-7,1,-16,1,-23,1,-26,1,-28,1,-28,1
655,11,1,-7,1,-18,1,-2,1,14,1,-12,1,-9,1,-17,1,-26,1,-27,1,-30,1,-29,1
656,6,1,-9,1,-15,1,1,1,10,1,-12,1,-6,1,-15,1,-23,1,-26,1,-30,1,-29,1
657,6,1,-9,1,-15,1,1,1,10,1,-12,1,-6,1,-15,1,-23,1,-26,1,-30,1,-29,1
658,9,1,-9,1,-18,1,0,1,13,1,-13,1,-5,1,-14,1,-23,1,-27,1,-31,1,-30,1
659,5,1,-9,1,-14,1,2,1,9,1,-11,1,-4,1,-12,1,-21,1,-26,1,-29,1,-28,1
660,6,1,-8,1,-14,1,1,1,10,1,-11,1,-5,1,-13,1,-23,1,-27,1,-31,1,-30,1
661,10,1,-7,1,-17,1,-1,1,13,1,-12,1,-4,1,-12,1,-23,1,-28,1,-33,1,-31,1
662,4,1,-10,1,-14,1,3,1,9,1,-12,1,-2,1,-10,1,-21,1,-27,1,-31,1,-29,1
663,3,1,-11,1,-14,1,4,1,8,1,-12,1,-2,1,-9,1,-20,1,-25,1,-29,1,-29,1
664,7,1,-7,1,-14,1,0,1,10,1,-10,1,-3,1,-9,1,-20,1,-24,1,-28,1,-30,1
665,7,1,-8,1,-15,1,0,1,11,1,-11,1,-1,1,-7,1,-18,1,-22,1,-25,1,-27,1
666,11,1,-9,1,-20,1,-1,1,15,1,-14,1,-3,1,-9,1,-20,1,-24,1,-29,1,-30,1
667,8,1,-9,1,-17,1,0,1,12,1,-13,1,-2,1,-9,1,-22,1,-24,1,-29,1,-31,1
668,3,1,-9,1,-12,1,3,1,7,1,-10,1,0,1,-7,1,-19,1,-23,1,-27,1,-29,1
669,4,1,-11,1,-15,1,3,1,9,1,-13,1,-1,1,-7,1,-19,1,-23,1,-29,1,-30,1
670,3,1,-10,1,-13,1,3,1,8,1,-11,1,-1,1,-8,1,-20,1,-25,1,-30,1,-32,1
671,8,1,-9,1,-17,1,0,1,12,1,-13,1,0,1,-7,1,-20,1,-25,1,-30,1,-31,1
672,0,1,-8,1,-8,1,4,1,4,1,-8,1,1,1,-4,1,-17,1,-22,1,-27,1,-28,1
673,4,1,-7,1,-11,1,1,1,7,1,-9,1,0,1,-5,1,-18,1,-23,1,-27,1,-27,1
674,13,1,-7,1,-20,1,-3,1,16,1,-13,1,-2,1,-7,1,-19,1,-24,1,-28,1,-29,1
675,6,1,-6,1,-12,1,0,1,9,1,-9,1,0,1,-6,1,-17,1,-23,1,-26,1,-27,1
676,6,1,-7,1,-13,1,0,1,9,1,-10,1,0,1,-7,1,-18,1,-23,1,-27,1,-29,1
677,8,1,-9,1,-17,1,0,1,12,1,-13,1,-2,1,-7,1,-18,1,-24,1,-28,1,-29,1
678,11,1,-11,1,-22,1,0,1,16,1,-16,1,-1,1,-7,1,-19,1,-25,1,-28,1,-29,1
679,5,1,-8,1,-13,1,1,1,9,1,-10,1,1,1,-6,1,-18,1,-24,1,-28,1,-29,1
680,8,1,-7,1,-15,1,0,1,11,1,-11,1,0,1,-6,1,-19,1,-25,1,-29,1,-30,1
681,11,1,-8,1,-19,1,-1,1,15,1,-13,1,-2,1,-7,1,-20,1,-26,1,-30,1,-31,1
682,7,1,-7,1,-14,1,0,1,10,1,-10,1,0,1,-6,1,-19,1,-25,1,-30,1,-29,1
683,5,1,-8,1,-13,1,1,1,9,1,-10,1,1,1,-6,1,-18,1,-24,1,-28,1,-29,1
684,8,1,-9,1,-17,1,0,1,12,1,-13,1,0,1,-5,1,-17,1,-23,1,-26,1,-28,1
685,7,1,-8,1,-15,1,0,1,11,1,-11,1,1,1,-4,1,-15,1,-22,1,-24,1,-28,1
686,8,1,-8,1,-16,1,0,1,12,1,-12,1,0,1,-4,1,-15,1,-23,1,-25,1,-28,1
687,6,1,-8,1,-14,1,1,1,10,1,-11,1,0,1,-6,1,-15,1,-21,1,-25,1,-28,1
688,3,1,-7,1,-10,1,2,1,6,1,-8,1,0,1,-4,1,-14,1,-22,1,-25,1,-27,1
689,9,1,-7,1,-16,1,-1,1,12,1,-11,1,-2,1,-7,1,-17,1,-25,1,-28,1,-29,1
690,11,1,-7,1,-18,1,-2,1,14,1,-12,1,-1,1,-6,1,-16,1,-24,1,-28,1,-29,1
691,9,1,-9,1,-18,1,0,1,13,1,-13,1,0,1,-6,1,-16,1,-23,1,-26,1,-29,1
692,8,1,-8,1,-16,1,0,1,12,1,-12,1,0,1,-5,1,-15,1,-23,1,-25,1,-29,1
693,8,1,-5,1,-13,1,-1,1,10,1,-9,1,1,1,-3,1,-14,1,-21,1,-23,1,-26,1
694,11,1,-5,1,-16,1,-3,1,13,1,-10,1,0,1,-5,1,-15,1,-22,1,-24,1,-28,1
695,10,1,-6,1,-16,1,-2,1,13,1,-11,1,-1,1,-4,1,-14,1,-22,1,-24,1,-29,1
696,6,1,-5,1,-11,1,0,1,8,1,-8,1,0,1,-3,1,-13,1,-20,1,-23,1,-28,1
697,8,1,-5,1,-13,1,-1,1,10,1,-9,1,-2,1,-4,1,-14,1,-21,1,-25,1,-29,1
698,10,1,-6,1,-16,1,-2,1,13,1,-11,1,-2,1,-3,1,-13,1,-20,1,-24,1,-27,1
699,12,1,-7,1,-19,1,-2,1,15,1,-13,1,-3,1,-5,1,-14,1,-22,1,-25,1,-29,1
700,11,1,-6,1,-17,1,-2,1,14,1,-11,1,-1,1,-4,1,-13,1,-22,1,-26,1,-28,1
701,7,1,-6,1,-13,1,0,1,10,1,-9,1,0,1,-2,1,-11,1,-19,1,-24,1,-27,1
702,5,1,-8,1,-13,1,1,1,9,1,-10,1,1,1,-1,1,-10,1,-18,1,-21,1,-25,1
703,11,1,-8,1,-19,1,-1,1,15,1,-13,1,-1,1,-3,1,-11,1,-19,1,-22,1,-26,1
704,10,1,-4,1,-14,1,-3,1,12,1,-9,1,-2,1,-3,1,-11,1,-20,1,-22,1,-26,1
705,13,1,-5,1,-18,1,-4,1,15,1,-11,1,-2,1,-4,1,-13,1,-20,1,-22,1,-27,1
706,10,1,-4,1,-14,1,-3,1,12,1,-9,1,-1,1,-1,1,-11,1,-18,1,-19,1,-24,1
707,7,1,-9,1,-16,1,1,1,11,1,-12,1,-1,1,-1,1,-10,1,-17,1,-18,1,-23,1
708,7,1,-7,1,-14,1,0,1,10,1,-10,1,-2,1,-2,1,-10,1,-18,1,-20,1,-25,1
709,11,1,-4,1,-15,1,-3,1,13,1,-9,1,-3,1,-2,1,-10,1,-18,1,-20,1,-25,1
710,13,1,-4,1,-17,1,-4,1,15,1,-10,1,-2,1,-1,1,-9,1,-16,1,-19,1,-24,1
711,13,1,-4,1,-17,1,-4,1,15,1,-10,1,-2,1,0,1,-9,1,-15,1,-18,1,-24,1
712,12,1,-3,1,-15,1,-4,1,13,1,-9,1,-2,1,0,1,-10,1,-16,1,-18,1,-24,1
713,12,1,-2,1,-14,1,-5,1,13,1,-8,1,-2,1,0,1,-8,1,-16,1,-18,1,-23,1
714,12,1,-2,1,-14,1,-5,1,13,1,-8,1,-3,1,1,1,-8,1,-16,1,-18,1,-23,1
715,12,1,-4,1,-16,1,-4,1,14,1,-10,1,-4,1,0,1,-9,1,-16,1,-18,1,-23,1
716,14,1,-3,1,-17,1,-5,1,15,1,-10,1,-4,1,0,1,-9,1,-16,1,-18,1,-24,1
717,17,1,-3,1,-20,1,-7,1,18,1,-11,1,-4,1,0,1,-9,1,-16,1,-17,1,-23,1
718,13,1,-1,1,-14,1,-6,1,13,1,-7,1,-4,1,1,1,-8,1,-15,1,-19,1,-25,1
719,10,1,0,1,-10,1,-5,1,10,1,-5,1,-3,1,2,1,-8,1,-14,1,-18,1,-23,1
720,11,1,0,1,-11,1,-5,1,11,1,-5,1,-2,1,4,1,-6,1,-13,1,-16,1,-22,1
721,13,1,0,1,-13,1,-6,1,13,1,-6,1,-3,1,3,1,-7,1,-11,1,-15,1,-22,1
722,14,1,0,1,-14,1,-7,1,14,1,-7,1,-5,1,2,1,-8,1,-12,1,-16,1,-23,1
723,15,1,0,1,-15,1,-7,1,15,1,-7,1,-5,1,3,1,-8,1,-11,1,-14,1,-22,1
724,12,1,0,1,-12,1,-6,1,12,1,-6,1,-5,1,4,1,-7,1,-9,1,-13,1,-20,1
725,17,1,1,1,-16,1,-9,1,17,1,-7,1,-6,1,3,1,-7,1,-9,1,-13,1,-20,1
726,14,1,0,1,-14,1,-7,1,14,1,-7,1,-5,1,4,1,-6,1,-7,1,-12,1,-19,1
727,16,1,0,1,-16,1,-8,1,16,1,-8,1,-6,1,4,1,-7,1,-8,1,-11,1,-19,1
728,14,1,1,1,-13,1,-7,1,14,1,-6,1,-5,1,4,1,-6,1,-7,1,-11,1,-18,1
729,16,1,1,1,-15,1,-8,1,16,1,-7,1,-5,1,4,1,-6,1,-7,1,-12,1,-19,1
730,17,1,2,1,-15,1,-9,1,16,1,-6,1,-8,1,4,1,-6,1,-7,1,-12,1,-20,1
731,12,1,3,1,-9,1,-7,1,11,1,-3,1,-5,1,6,1,-4,1,-5,1,-9,1,-17,1
732,15,1,4,1,-11,1,-9,1,13,1,-3,1,-6,1,7,1,-4,1,-4,1,-8,1,-16,1
733,15,1,3,1,-12,1,-9,1,14,1,-4,1,-8,1,6,1,-6,1,-5,1,-8,1,-17,1
734,16,1,5,1,-11,1,-10,1,14,1,-3,1,-6,1,7,1,-6,1,-5,1,-7,1,-19,1
735,19,1,5,1,-14,1,-12,1,17,1,-4,1,-8,1,5,1,-6,1,-6,1,-7,1,-18,1
736,19,1,4,1,-15,1,-11,1,17,1,-5,1,-8,1,6,1,-5,1,-4,1,-7,1,-17,1
737,16,1,4,1,-12,1,-10,1,14,1,-4,1,-7,1,8,1,-3,1,-2,1,-4,1,-15,1
738,12,1,7,1,-5,1,-9,1,9,1,1,1,-5,1,10,1,-1,1,0,1,-2,1,-13,1
739,19,1,7,1,-12,1,-13,1,16,1,-2,1,-8,1,8,1,-3,1,-2,1,-4,1,-15,1
740,22,1,7,1,-15,1,-14,1,19,1,-4,1,-9,1,8,1,-5,1,-3,1,-4,1,-15,1
741,15,1,7,1,-8,1,-11,1,12,1,0,1,-7,1,11,1,-2,1,-1,1,-1,1,-12,1
742,17,1,8,1,-9,1,-12,1,13,1,0,1,-7,1,12,1,-1,1,0,1,0,1,-10,1
743,27,1,9,1,-18,1,-18,1,23,1,-4,1,-11,1,9,1,-4,1,-2,1,-3,1,-13,1
744,21,1,10,1,-11,1,-15,1,16,1,0,1,-10,1,11,1,-1,1,0,1,0,1,-11,1
745,21,1,11,1,-10,1,-16,1,16,1,1,1,-10,1,12,1,0,1,1,1,1,1,-9,1
746,22,1,10,1,-12,1,-16,1,17,1,-1,1,-10,1,13,1,1,1,3,1,3,1,-7,1
747,25,1,13,1,-12,1,-19,1,19,1,1,1,-12,1,13,1,0,1,3,1,2,1,-8,1
748,24,1,13,1,-11,1,-18,1,18,1,1,1,-13,1,13,1,-1,1,2,1,2,1,-7,1
749,25,1,13,1,-12,1,-19,1,19,1,1,1,-13,1,14,1,1,1,5,1,4,1,-6,1
750,22,1,14,1,-8,1,-18,1,15,1,3,1,-12,1,16,1,2,1,7,1,6,1,-5,1
751,28,1,13,1,-15,1,-20,1,22,1,-1,1,-13,1,15,1,1,1,6,1,5,1,-5,1
752,27,1,13,1,-14,1,-20,1,21,1,0,1,-14,1,16,1,3,1,8,1,7,1,-4,1
753,28,1,18,1,-10,1,-23,1,19,1,4,1,-16,1,15,1,2,1,8,1,7,1,-3,1
754,32,1,22,1,-10,1,-27,1,21,1,6,1,-17,1,14,1,2,1,8,1,7,1,-3,1
755,32,1,19,1,-13,1,-25,1,23,1,3,1,-18,1,15,1,2,1,10,1,10,1,-1,1
756,30,1,24,1,-6,1,-27,1,18,1,9,1,-19,1,14,1,2,1,10,1,11,1,-1,1
757,31,1,23,1,-8,1,-27,1,20,1,8,1,-20,1,15,1,3,1,11,1,12,1,0,1
758,33,1,22,1,-11,1,-27,1,22,1,6,1,-19,1,14,1,3,1,12,1,12,1,1,1
759,34,1,23,1,-11,1,-28,1,23,1,6,1,-21,1,14,1,3,1,12,1,13,1,2,1
760,33,1,23,1,-10,1,-28,1,22,1,7,1,-21,1,14,1,2,1,12,1,13,1,2,1
761,34,1,24,1,-10,1,-29,1,22,1,7,1,-22,1,14,1,2,1,12,1,13,1,3,1
762,36,1,24,1,-12,1,-30,1,24,1,6,1,-21,1,13,1,2,1,14,1,15,1,5,1
763,38,1,25,1,-13,1,-31,1,26,1,6,1,-23,1,12,1,2,1,14,1,15,1,6,1
764,35,1,26,1,-9,1,-30,1,22,1,9,1,-22,1,13,1,3,1,15,1,17,1,8,1
765,41,1,25,1,-16,1,-33,1,29,1,5,1,-26,1,10,1,0,1,13,1,15,1,7,1
766,36,1,28,1,-8,1,-32,1,22,1,10,1,-25,1,11,1,2,1,15,1,17,1,8,1
767,33,1,29,1,-4,1,-31,1,19,1,13,1,-24,1,13,1,3,1,17,1,19,1,11,1
768,42,1,30,1,-12,1,-36,1,27,1,9,1,-27,1,10,1,1,1,14,1,18,1,9,1
769,40,1,30,1,-10,1,-35,1,25,1,10,1,-28,1,9,1,0,1,15,1,18,1,10,1
770,38,1,31,1,-7,1,-34,1,23,1,12,1,-27,1,9,1,1,1,15,1,19,1,11,1
771,39,1,31,1,-8,1,-35,1,24,1,12,1,-28,1,6,1,-1,1,14,1,19,1,11,1
772,40,1,32,1,-8,1,-36,1,24,1,12,1,-29,1,4,1,-3,1,14,1,19,1,10,1
773,44,1,31,1,-13,1,-37,1,29,1,9,1,-28,1,4,1,-4,1,14,1,20,1,12,1
774,42,1,30,1,-12,1,-36,1,27,1,9,1,-29,1,3,1,-4,1,14,1,20,1,12,1
775,42,1,32,1,-10,1,-37,1,26,1,11,1,-30,1,1,1,-5,1,13,1,18,1,11,1
776,39,1,31,1,-8,1,-35,1,24,1,12,1,-29,1,1,1,-5,1,15,1,20,1,12,1
777,43,1,33,1,-10,1,-38,1,27,1,12,1,-32,1,-1,1,-7,1,13,1,19,1,11,1
778,42,1,28,1,-14,1,-35,1,28,1,7,1,-30,1,0,1,-7,1,13,1,20,1,13,1
779,42,1,27,1,-15,1,-34,1,29,1,6,1,-31,1,-2,1,-9,1,11,1,18,1,11,1
780,43,1,29,1,-14,1,-36,1,29,1,8,1,-32,1,-4,1,-10,1,11,1,17,1,10,1
781,39,1,29,1,-10,1,-34,1,25,1,10,1,-29,1,-2,1,-8,1,12,1,19,1,11,1
782,41,1,31,1,-10,1,-36,1,26,1,11,1,-30,1,-3,1,-9,1,11,1,18,1,11,1
783,44,1,30,1,-14,1,-37,1,29,1,8,1,-31,1,-4,1,-10,1,9,1,17,1,10,1
784,44,1,26,1,-18,1,-35,1,31,1,4,1,-29,1,-5,1,-10,1,9,1,16,1,11,1
785,39,1,28,1,-11,1,-33,1,25,1,9,1,-28,1,-5,1,-10,1,9,1,16,1,10,1
786,39,1,26,1,-13,1,-32,1,26,1,7,1,-27,1,-4,1,-10,1,10,1,17,1,10,1
787,41,1,26,1,-15,1,-33,1,28,1,6,1,-27,1,-6,1,-13,1,8,1,14,1,7,1
788,38,1,25,1,-13,1,-31,1,26,1,6,1,-24,1,-4,1,-11,1,8,1,14,1,7,1
789,35,1,22,1,-13,1,-28,1,24,1,5,1,-23,1,-4,1,-11,1,7,1,12,1,5,1
790,35,1,24,1,-11,1,-29,1,23,1,7,1,-22,1,-5,1,-12,1,6,1,11,1,3,1
791,37,1,23,1,-14,1,-30,1,26,1,5,1,-18,1,-3,1,-10,1,7,1,11,1,3,1
792,32,1,20,1,-12,1,-26,1,22,1,4,1,-15,1,-1,1,-7,1,9,1,12,1,4,1
793,35,1,20,1,-15,1,-27,1,25,1,3,1,-15,1,-2,1,-9,1,6,1,9,1,2,1
794,31,1,19,1,-12,1,-25,1,22,1,4,1,-12,1,0,1,-7,1,6,1,9,1,1,1
795,29,1,17,1,-12,1,-23,1,21,1,3,1,-11,1,0,1,-6,1,6,1,8,1,0,1
796,27,1,16,1,-11,1,-21,1,19,1,3,1,-9,1,1,1,-4,1,6,1,8,1,0,1
797,27,1,15,1,-12,1,-21,1,20,1,2,1,-8,1,1,1,-5,1,3,1,5,1,-3,1
798,23,1,14,1,-9,1,-18,1,16,1,3,1,-6,1,1,1,-5,1,2,1,3,1,-5,1
799,18,1,13,1,-5,1,-15,1,12,1,4,1,-3,1,3,1,-2,1,4,1,3,1,-5,1
800,24,1,11,1,-13,1,-17,1,19,1,-1,1,-4,1,1,1,-4,1,1,1,1,1,-7,1
801,24,1,10,1,-14,1,-17,1,19,1,-2,1,-3,1,1,1,-6,1,-1,1,-2,1,-10,1
802,19,1,10,1,-9,1,-14,1,14,1,1,1,0,1,2,1,-5,1,-1,1,-3,1,-11,1
803,20,1,8,1,-12,1,-14,1,16,1,-2,1,0,1,3,1,-5,1,-1,1,-3,1,-11,1
804,15,1,6,1,-9,1,-10,1,12,1,-1,1,1,1,5,1,-2,1,0,1,-2,1,-11,1
805,17,1,10,1,-7,1,-13,1,12,1,2,1,2,1,4,1,-1,1,0,1,-3,1,-13,1
806,18,1,8,1,-10,1,-13,1,14,1,-1,1,0,1,3,1,-1,1,-2,1,-4,1,-15,1
807,17,1,6,1,-11,1,-11,1,14,1,-2,1,1,1,3,1,-1,1,-2,1,-5,1,-15,1
808,15,1,4,1,-11,1,-9,1,13,1,-3,1,1,1,4,1,-1,1,-3,1,-5,1,-15,1
809,13,1,3,1,-10,1,-8,1,12,1,-3,1,3,1,5,1,1,1,-2,1,-6,1,-14,1
810,15,1,4,1,-11,1,-9,1,13,1,-3,1,2,1,3,1,-1,1,-4,1,-8,1,-18,1
811,17,1,3,1,-14,1,-10,1,16,1,-5,1,3,1,5,1,-2,1,-4,1,-7,1,-18,1
812,12,1,2,1,-10,1,-7,1,11,1,-4,1,3,1,5,1,-2,1,-3,1,-6,1,-17,1
813,15,1,0,1,-15,1,-7,1,15,1,-7,1,2,1,4,1,-2,1,-4,1,-8,1,-18,1
814,11,1,2,1,-9,1,-6,1,10,1,-3,1,2,1,6,1,0,1,-1,1,-6,1,-16,1
815,18,1,0,1,-18,1,-9,1,18,1,-9,1,2,1,2,1,-4,1,-5,1,-9,1,-20,1
816,12,1,0,1,-12,1,-6,1,12,1,-6,1,3,1,4,1,-2,1,-3,1,-8,1,-19,1
817,12,1,1,1,-11,1,-6,1,12,1,-5,1,3,1,4,1,0,1,-2,1,-7,1,-18,1
818,15,1,1,1,-14,1,-8,1,15,1,-6,1,4,1,3,1,-1,1,-3,1,-9,1,-19,1
819,15,1,1,1,-14,1,-8,1,15,1,-6,1,3,1,3,1,-1,1,-5,1,-10,1,-19,1
820,14,1,-1,1,-15,1,-6,1,14,1,-8,1,3,1,2,1,-3,1,-7,1,-12,1,-21,1
821,13,1,-2,1,-15,1,-5,1,14,1,-8,1,2,1,2,1,-3,1,-7,1,-12,1,-22,1
822,7,1,0,1,-7,1,-3,1,7,1,-3,1,5,1,4,1,-1,1,-4,1,-9,1,-19,1
823,14,1,0,1,-14,1,-7,1,14,1,-7,1,4,1,3,1,-2,1,-5,1,-10,1,-19,1
824,14,1,0,1,-14,1,-7,1,14,1,-7,1,2,1,3,1,-3,1,-6,1,-11,1,-20,1
825,11,1,-1,1,-12,1,-5,1,11,1,-6,1,2,1,3,1,-2,1,-5,1,-10,1,-20,1
826,14,1,-1,1,-15,1,-6,1,14,1,-8,1,1,1,1,1,-5,1,-6,1,-11,1,-21,1
827,12,1,-3,1,-15,1,-4,1,13,1,-9,1,2,1,2,1,-3,1,-5,1,-11,1,-20,1
828,13,1,0,1,-13,1,-6,1,13,1,-6,1,2,1,1,1,-3,1,-5,1,-12,1,-21,1
829,8,1,-1,1,-9,1,-3,1,8,1,-5,1,3,1,3,1,-2,1,-5,1,-11,1,-20,1
830,13,1,-2,1,-15,1,-5,1,14,1,-8,1,2,1,2,1,-3,1,-5,1,-12,1,-21,1
831,13,1,-2,1,-15,1,-5,1,14,1,-8,1,3,1,3,1,-2,1,-5,1,-11,1,-20,1
832,11,1,0,1,-11,1,-5,1,11,1,-5,1,3,1,3,1,-3,1,-6,1,-11,1,-20,1
833,11,1,0,1,-11,1,-5,1,11,1,-5,1,1,1,1,1,-5,1,-6,1,-11,1,-20,1
834,11,1,1,1,-10,1,-6,1,11,1,-4,1,0,1,0,1,-6,1,-7,1,-13,1,-22,1
835,11,1,-2,1,-13,1,-4,1,12,1,-7,1,2,1,1,1,-4,1,-5,1,-11,1,-21,1
836,13,1,0,1,-13,1,-6,1,13,1,-6,1,2,1,2,1,-4,1,-6,1,-11,1,-20,1
837,13,1,-1,1,-14,1,-6,1,13,1,-7,1,2,1,1,1,-4,1,-6,1,-12,1,-21,1
838,11,1,-1,1,-12,1,-5,1,11,1,-6,1,3,1,2,1,-3,1,-5,1,-12,1,-20,1
839,14,1,-1,1,-15,1,-6,1,14,1,-8,1,2,1,1,1,-4,1,-5,1,-11,1,-20,1
840,10,1,-3,1,-13,1,-3,1,11,1,-8,1,3,1,3,1,-3,1,-4,1,-11,1,-20,1
841,12,1,-4,1,-16,1,-4,1,14,1,-10,1,4,1,4,1,-2,1,-4,1,-11,1,-21,1
842,11,1,1,1,-10,1,-6,1,11,1,-4,1,2,1,2,1,-5,1,-7,1,-12,1,-22,1
843,14,1,0,1,-14,1,-7,1,14,1,-7,1,2,1,2,1,-4,1,-6,1,-12,1,-21,1
844,15,1,-2,1,-17,1,-6,1,16,1,-9,1,2,1,2,1,-4,1,-7,1,-12,1,-22,1
845,8,1,-2,1,-10,1,-3,1,9,1,-6,1,4,1,5,1,0,1,-3,1,-7,1,-18,1
846,12,1,-2,1,-14,1,-5,1,13,1,-8,1,2,1,3,1,-1,1,-3,1,-7,1,-19,1
847,16,1,-2,1,-18,1,-7,1,17,1,-10,1,1,1,2,1,-3,1,-5,1,-9,1,-20,1
848,17,1,1,1,-16,1,-9,1,17,1,-7,1,1,1,1,1,-3,1,-5,1,-9,1,-20,1
849,6,1,-1,1,-7,1,-2,1,6,1,-4,1,6,1,6,1,0,1,-1,1,-5,1,-16,1
850,14,1,-1,1,-15,1,-6,1,14,1,-8,1,2,1,3,1,-2,1,-4,1,-10,1,-18,1
851,12,1,0,1,-12,1,-6,1,12,1,-6,1,2,1,3,1,-3,1,-4,1,-11,1,-20,1
852,12,1,1,1,-11,1,-6,1,12,1,-5,1,3,1,4,1,-2,1,-3,1,-9,1,-18,1
853,15,1,0,1,-15,1,-7,1,15,1,-7,1,1,1,3,1,-3,1,-3,1,-10,1,-19,1
854,12,1,3,1,-9,1,-7,1,11,1,-3,1,1,1,2,1,-3,1,-4,1,-10,1,-19,1
855,14,1,4,1,-10,1,-9,1,12,1,-3,1,1,1,2,1,-4,1,-5,1,-11,1,-19,1
856,14,1,1,1,-13,1,-7,1,14,1,-6,1,1,1,2,1,-4,1,-4,1,-10,1,-19,1
857,13,1,1,1,-12,1,-7,1,13,1,-5,1,1,1,3,1,-3,1,-3,1,-9,1,-18,1
858,13,1,2,1,-11,1,-7,1,12,1,-4,1,2,1,3,1,-2,1,-3,1,-10,1,-18,1
859,13,1,0,1,-13,1,-6,1,13,1,-6,1,2,1,3,1,-2,1,-3,1,-10,1,-18,1
860,14,1,0,1,-14,1,-7,1,14,1,-7,1,2,1,4,1,-2,1,-3,1,-10,1,-19,1
861,14,1,-1,1,-15,1,-6,1,14,1,-8,1,3,1,4,1,-2,1,-4,1,-11,1,-19,1
862,14,1,0,1,-14,1,-7,1,14,1,-7,1,3,1,4,1,-1,1,-3,1,-10,1,-17,1
863,13,1,4,1,-9,1,-8,1,11,1,-2,1,2,1,4,1,-2,1,-3,1,-10,1,-17,1
864,15,1,4,1,-11,1,-9,1,13,1,-3,1,1,1,3,1,-2,1,-4,1,-9,1,-16,1
865,15,1,4,1,-11,1,-9,1,13,1,-3,1,0,1,3,1,-2,1,-4,1,-9,1,-17,1
866,16,1,4,1,-12,1,-10,1,14,1,-4,1,1,1,3,1,-2,1,-2,1,-9,1,-17,1
867,16,1,3,1,-13,1,-9,1,15,1,-5,1,1,1,2,1,-3,1,-4,1,-10,1,-17,1
868,15,1,5,1,-10,1,-10,1,13,1,-2,1,0,1,2,1,-3,1,-5,1,-11,1,-17,1
869,14,1,3,1,-11,1,-8,1,13,1,-4,1,2,1,4,1,-2,1,-4,1,-10,1,-16,1
870,13,1,1,1,-12,1,-7,1,13,1,-5,1,1,1,4,1,-2,1,-4,1,-9,1,-16,1
871,14,1,1,1,-13,1,-7,1,14,1,-6,1,3,1,3,1,-2,1,-3,1,-9,1,-16,1
872,14,1,1,1,-13,1,-7,1,14,1,-6,1,3,1,4,1,-2,1,-3,1,-10,1,-17,1
873,13,1,2,1,-11,1,-7,1,12,1,-4,1,2,1,3,1,-3,1,-3,1,-10,1,-17,1
874,13,1,6,1,-7,1,-9,1,10,1,0,1,2,1,4,1,-2,1,-3,1,-10,1,-17,1
875,15,1,5,1,-10,1,-10,1,13,1,-2,1,1,1,4,1,-1,1,-2,1,-9,1,-17,1
876,13,1,4,1,-9,1,-8,1,11,1,-2,1,2,1,5,1,0,1,-1,1,-8,1,-15,1
877,18,1,3,1,-15,1,-10,1,17,1,-6,1,0,1,3,1,-2,1,-2,1,-10,1,-18,1
878,15,1,3,1,-12,1,-9,1,14,1,-4,1,1,1,3,1,-1,1,-2,1,-10,1,-17,1
879,11,1,4,1,-7,1,-7,1,9,1,-1,1,3,1,6,1,0,1,0,1,-8,1,-14,1
880,13,1,3,1,-10,1,-8,1,12,1,-3,1,1,1,4,1,-1,1,-1,1,-9,1,-16,1
881,13,1,4,1,-9,1,-8,1,11,1,-2,1,2,1,4,1,-1,1,-1,1,-10,1,-17,1
882,15,1,5,1,-10,1,-10,1,13,1,-2,1,3,1,4,1,-2,1,0,1,-10,1,-15,1
883,18,1,4,1,-14,1,-11,1,16,1,-5,1,1,1,3,1,-2,1,-2,1,-10,1,-17,1
884,14,1,3,1,-11,1,-8,1,13,1,-4,1,2,1,3,1,-1,1,0,1,-10,1,-16,1
885,15,1,3,1,-12,1,-9,1,14,1,-4,1,0,1,3,1,-3,1,-2,1,-10,1,-17,1
886,16,1,3,1,-13,1,-9,1,15,1,-5,1,1,1,2,1,-3,1,-4,1,-10,1,-18,1
887,12,1,3,1,-9,1,-7,1,11,1,-3,1,2,1,3,1,-2,1,-3,1,-10,1,-16,1
888,17,1,5,1,-12,1,-11,1,15,1,-3,1,1,1,2,1,-2,1,-4,1,-12,1,-17,1
889,14,1,4,1,-10,1,-9,1,12,1,-3,1,2,1,3,1,-1,1,-2,1,-10,1,-15,1
890,14,1,2,1,-12,1,-8,1,13,1,-5,1,2,1,3,1,-1,1,-2,1,-11,1,-16,1
891,14,1,1,1,-13,1,-7,1,14,1,-6,1,3,1,2,1,-2,1,-4,1,-13,1,-19,1
892,12,1,6,1,-6,1,-9,1,9,1,0,1,1,1,1,1,-5,1,-5,1,-14,1,-19,1
893,12,1,3,1,-9,1,-7,1,11,1,-3,1,1,1,1,1,-4,1,-4,1,-13,1,-18,1
894,15,1,2,1,-13,1,-8,1,14,1,-5,1,0,1,1,1,-4,1,-5,1,-13,1,-17,1
895,16,1,0,1,-16,1,-8,1,16,1,-8,1,0,1,0,1,-5,1,-5,1,-13,1,-18,1
896,9,1,1,1,-8,1,-5,1,9,1,-3,1,3,1,2,1,-3,1,-3,1,-11,1,-16,1
897,17,1,8,1,-9,1,-12,1,13,1,0,1,1,1,0,1,-6,1,-6,1,-14,1,-17,1
898,17,1,7,1,-10,1,-12,1,14,1,-1,1,0,1,-1,1,-6,1,-6,1,-12,1,-18,1
899,15,1,4,1,-11,1,-9,1,13,1,-3,1,0,1,0,1,-4,1,-4,1,-12,1,-16,1
900,15,1,2,1,-13,1,-8,1,14,1,-5,1,0,1,0,1,-5,1,-6,1,-12,1,-18,1
901,17,1,3,1,-14,1,-10,1,16,1,-5,1,0,1,-1,1,-6,1,-7,1,-14,1,-20,1
902,13,1,1,1,-12,1,-7,1,13,1,-5,1,1,1,-1,1,-6,1,-7,1,-14,1,-19,1
903,6,1,1,1,-5,1,-3,1,6,1,-2,1,3,1,1,1,-4,1,-5,1,-11,1,-17,1
904,18,1,3,1,-15,1,-10,1,17,1,-6,1,0,1,-1,1,-6,1,-8,1,-16,1,-20,1
905,10,1,2,1,-8,1,-6,1,9,1,-3,1,2,1,0,1,-5,1,-7,1,-14,1,-20,1
906,4,1,1,1,-3,1,-2,1,4,1,-1,1,3,1,0,1,-6,1,-6,1,-13,1,-16,1
907,14,1,0,1,-14,1,-7,1,14,1,-7,1,1,1,-2,1,-8,1,-8,1,-14,1,-18,1
908,17,1,2,1,-15,1,-9,1,16,1,-6,1,1,1,-2,1,-8,1,-9,1,-15,1,-19,1
909,13,1,3,1,-10,1,-8,1,12,1,-3,1,3,1,-1,1,-7,1,-8,1,-13,1,-19,1
910,16,1,3,1,-13,1,-9,1,15,1,-5,1,2,1,-2,1,-8,1,-9,1,-15,1,-20,1
911,16,1,2,1,-14,1,-9,1,15,1,-6,1,1,1,-3,1,-8,1,-10,1,-16,1,-21,1
912,17,1,1,1,-16,1,-9,1,17,1,-7,1,0,1,-3,1,-9,1,-11,1,-16,1,-21,1
913,16,1,0,1,-16,1,-8,1,16,1,-8,1,0,1,-3,1,-9,1,-10,1,-15,1,-19,1
914,16,1,3,1,-13,1,-9,1,15,1,-5,1,0,1,-4,1,-9,1,-10,1,-16,1,-20,1
915,15,1,1,1,-14,1,-8,1,15,1,-6,1,0,1,-3,1,-8,1,-10,1,-16,1,-21,1
916,11,1,2,1,-9,1,-6,1,10,1,-3,1,0,1,-2,1,-7,1,-8,1,-14,1,-19,1
917,12,1,2,1,-10,1,-7,1,11,1,-4,1,2,1,-3,1,-7,1,-9,1,-15,1,-19,1
918,14,1,0,1,-14,1,-7,1,14,1,-7,1,1,1,-3,1,-8,1,-10,1,-16,1,-20,1
919,13,1,0,1,-13,1,-6,1,13,1,-6,1,0,1,-4,1,-8,1,-10,1,-16,1,-20,1
920,13,1,0,1,-13,1,-6,1,13,1,-6,1,0,1,-4,1,-10,1,-11,1,-17,1,-21,1
921,16,1,0,1,-16,1,-8,1,16,1,-8,1,-2,1,-6,1,-12,1,-13,1,-19,1,-23,1
922,12,1,0,1,-12,1,-6,1,12,1,-6,1,0,1,-4,1,-11,1,-12,1,-18,1,-21,1
923,11,1,-1,1,-12,1,-5,1,11,1,-6,1,1,1,-4,1,-11,1,-11,1,-17,1,-21,1
924,10,1,1,1,-9,1,-5,1,10,1,-4,1,2,1,-3,1,-10,1,-10,1,-15,1,-19,1
925,14,1,2,1,-12,1,-8,1,13,1,-5,1,1,1,-5,1,-11,1,-11,1,-15,1,-20,1
926,15,1,2,1,-13,1,-8,1,14,1,-5,1,-1,1,-6,1,-12,1,-12,1,-16,1,-20,1
927,14,1,1,1,-13,1,-7,1,14,1,-6,1,-1,1,-6,1,-11,1,-11,1,-16,1,-21,1
928,13,1,0,1,-13,1,-6,1,13,1,-6,1,0,1,-6,1,-11,1,-12,1,-16,1,-20,1
929,12,1,1,1,-11,1,-6,1,12,1,-5,1,0,1,-6,1,-12,1,-13,1,-17,1,-21,1
930,13,1,1,1,-12,1,-7,1,13,1,-5,1,0,1,-6,1,-11,1,-12,1,-17,1,-21,1
931,14,1,1,1,-13,1,-7,1,14,1,-6,1,0,1,-6,1,-11,1,-12,1,-17,1,-20,1
932,18,1,0,1,-18,1,-9,1,18,1,-9,1,-1,1,-7,1,-13,1,-13,1,-19,1,-22,1
933,23,1,0,1,-23,1,-11,1,23,1,-11,1,-5,1,-9,1,-17,1,-17,1,-22,1,-26,1
934,6,1,0,1,-6,1,-3,1,6,1,-3,1,0,1,-4,1,-12,1,-12,1,-17,1,-20,1
935,12,1,-1,1,-13,1,-5,1,12,1,-7,1,-1,1,-5,1,-13,1,-12,1,-17,1,-20,1
936,16,1,-2,1,-18,1,-7,1,17,1,-10,1,-2,1,-6,1,-11,1,-13,1,-17,1,-20,1
937,10,1,-3,1,-13,1,-3,1,11,1,-8,1,0,1,-5,1,-10,1,-11,1,-16,1,-19,1
938,9,1,-1,1,-10,1,-4,1,9,1,-5,1,-1,1,-6,1,-13,1,-14,1,-19,1,-23,1
939,10,1,0,1,-10,1,-5,1,10,1,-5,1,0,1,-6,1,-14,1,-14,1,-19,1,-23,1
940,8,1,-1,1,-9,1,-3,1,8,1,-5,1,0,1,-5,1,-11,1,-12,1,-17,1,-21,1
941,11,1,0,1,-11,1,-5,1,11,1,-5,1,1,1,-5,1,-11,1,-12,1,-18,1,-22,1
942,17,1,1,1,-16,1,-9,1,17,1,-7,1,-2,1,-6,1,-14,1,-13,1,-20,1,-23,1
943,16,1,2,1,-14,1,-9,1,15,1,-6,1,-2,1,-7,1,-15,1,-14,1,-20,1,-23,1
944,9,1,-1,1,-10,1,-4,1,9,1,-5,1,0,1,-5,1,-12,1,-13,1,-19,1,-20,1
945,14,1,-2,1,-16,1,-6,1,15,1,-9,1,-2,1,-7,1,-14,1,-14,1,-20,1,-22,1
946,14,1,-3,1,-17,1,-5,1,15,1,-10,1,-2,1,-7,1,-13,1,-13,1,-18,1,-20,1
947,15,1,-2,1,-17,1,-6,1,16,1,-9,1,-2,1,-7,1,-13,1,-14,1,-18,1,-22,1
948,15,1,-1,1,-16,1,-7,1,15,1,-8,1,-1,1,-7,1,-13,1,-14,1,-18,1,-21,1
949,12,1,0,1,-12,1,-6,1,12,1,-6,1,-1,1,-7,1,-14,1,-15,1,-19,1,-21,1
950,12,1,-4,1,-16,1,-4,1,14,1,-10,1,-1,1,-7,1,-13,1,-14,1,-19,1,-23,1
951,13,1,-6,1,-19,1,-3,1,16,1,-12,1,0,1,-4,1,-12,1,-12,1,-17,1,-21,1
952,13,1,0,1,-13,1,-6,1,13,1,-6,1,-1,1,-6,1,-13,1,-13,1,-18,1,-22,1
953,12,1,1,1,-11,1,-6,1,12,1,-5,1,-2,1,-8,1,-14,1,-15,1,-21,1,-24,1
954,13,1,-2,1,-15,1,-5,1,14,1,-8,1,-3,1,-8,1,-14,1,-15,1,-20,1,-24,1
955,15,1,0,1,-15,1,-7,1,15,1,-7,1,-3,1,-8,1,-15,1,-15,1,-18,1,-24,1
956,11,1,0,1,-11,1,-5,1,11,1,-5,1,-1,1,-7,1,-13,1,-14,1,-17,1,-23,1
957,15,1,-1,1,-16,1,-7,1,15,1,-8,1,-2,1,-8,1,-14,1,-14,1,-18,1,-24,1
958,14,1,-3,1,-17,1,-5,1,15,1,-10,1,-3,1,-9,1,-14,1,-15,1,-19,1,-24,1
959,19,1,-1,1,-20,1,-9,1,19,1,-10,1,-3,1,-9,1,-15,1,-16,1,-21,1,-26,1
960,10,1,0,1,-10,1,-5,1,10,1,-5,1,-1,1,-6,1,-13,1,-15,1,-19,1,-23,1
961,11,1,-1,1,-12,1,-5,1,11,1,-6,1,-2,1,-6,1,-13,1,-16,1,-19,1,-22,1
962,8,1,0,1,-8,1,-4,1,8,1,-4,1,0,1,-5,1,-13,1,-14,1,-19,1,-21,1
963,12,1,0,1,-12,1,-6,1,12,1,-6,1,-1,1,-6,1,-14,1,-14,1,-18,1,-21,1
964,13,1,0,1,-13,1,-6,1,13,1,-6,1,-3,1,-7,1,-14,1,-14,1,-18,1,-22,1
965,12,1,0,1,-12,1,-6,1,12,1,-6,1,-2,1,-7,1,-14,1,-14,1,-18,1,-22,1
966,17,1,1,1,-16,1,-9,1,17,1,-7,1,-4,1,-9,1,-15,1,-17,1,-20,1,-24,1
967,15,1,0,1,-15,1,-7,1,15,1,-7,1,-3,1,-8,1,-15,1,-17,1,-20,1,-24,1
968,11,1,-2,1,-13,1,-4,1,12,1,-7,1,-3,1,-8,1,-15,1,-16,1,-20,1,-24,1
969,11,1,-3,1,-14,1,-4,1,12,1,-8,1,-2,1,-7,1,-14,1,-15,1,-20,1,-22,1
970,14,1,0,1,-14,1,-7,1,14,1,-7,1,-2,1,-7,1,-14,1,-15,1,-21,1,-23,1
971,16,1,0,1,-16,1,-8,1,16,1,-8,1,-3,1,-8,1,-16,1,-17,1,-22,1,-24,1
972,13,1,0,1,-13,1,-6,1,13,1,-6,1,-4,1,-8,1,-16,1,-17,1,-22,1,-24,1
973,12,1,-1,1,-13,1,-5,1,12,1,-7,1,-4,1,-8,1,-15,1,-16,1,-21,1,-24,1
974,10,1,0,1,-10,1,-5,1,10,1,-5,1,-3,1,-7,1,-13,1,-14,1,-19,1,-22,1
975,11,1,0,1,-11,1,-5,1,11,1,-5,1,-3,1,-7,1,-13,1,-14,1,-19,1,-23,1
976,11,1,-2,1,-13,1,-4,1,12,1,-7,1,-4,1,-9,1,-15,1,-16,1,-22,1,-25,1
977,15,1,-2,1,-17,1,-6,1,16,1,-9,1,-5,1,-10,1,-16,1,-16,1,-22,1,-25,1
978,17,1,-2,1,-19,1,-7,1,18,1,-10,1,-3,1,-9,1,-15,1,-16,1,-20,1,-24,1
979,11,1,0,1,-11,1,-5,1,11,1,-5,1,-1,1,-6,1,-13,1,-13,1,-18,1,-21,1
980,8,1,-1,1,-9,1,-3,1,8,1,-5,1,-1,1,-6,1,-12,1,-13,1,-18,1,-21,1
981,15,1,-1,1,-16,1,-7,1,15,1,-8,1,-2,1,-9,1,-16,1,-15,1,-21,1,-23,1
982,17,1,0,1,-17,1,-8,1,17,1,-8,1,-5,1,-12,1,-17,1,-17,1,-22,1,-25,1
983,12,1,-1,1,-13,1,-5,1,12,1,-7,1,-2,1,-9,1,-15,1,-15,1,-20,1,-23,1
984,9,1,-1,1,-10,1,-4,1,9,1,-5,1,-1,1,-8,1,-13,1,-14,1,-19,1,-21,1
985,15,1,0,1,-15,1,-7,1,15,1,-7,1,-3,1,-9,1,-15,1,-16,1,-22,1,-25,1
986,13,1,-2,1,-15,1,-5,1,14,1,-8,1,-2,1,-7,1,-14,1,-14,1,-20,1,-23,1
987,10,1,-2,1,-12,1,-4,1,11,1,-7,1,-1,1,-6,1,-13,1,-14,1,-19,1,-22,1
988,9,1,-4,1,-13,1,-2,1,11,1,-8,1,-1,1,-7,1,-13,1,-15,1,-20,1,-23,1
989,10,1,-5,1,-15,1,-2,1,12,1,-10,1,-2,1,-8,1,-14,1,-15,1,-22,1,-24,1
990,17,1,-2,1,-19,1,-7,1,18,1,-10,1,-4,1,-10,1,-15,1,-16,1,-22,1,-25,1
991,18,1,-3,1,-21,1,-7,1,19,1,-12,1,-3,1,-9,1,-16,1,-16,1,-21,1,-25,1
992,9,1,-4,1,-13,1,-2,1,11,1,-8,1,-1,1,-7,1,-15,1,-15,1,-20,1,-23,1
993,10,1,-3,1,-13,1,-3,1,11,1,-8,1,0,1,-6,1,-13,1,-13,1,-20,1,-23,1
994,13,1,-3,1,-16,1,-5,1,14,1,-9,1,-2,1,-8,1,-15,1,-15,1,-21,1,-24,1
995,12,1,-1,1,-13,1,-5,1,12,1,-7,1,-3,1,-9,1,-14,1,-14,1,-20,1,-23,1
996,9,1,-2,1,-11,1,-3,1,10,1,-6,1,-2,1,-9,1,-15,1,-14,1,-20,1,-23,1
997,10,1,-6,1,-16,1,-2,1,13,1,-11,1,-1,1,-9,1,-14,1,-14,1,-20,1,-23,1
998,13,1,-2,1,-15,1,-5,1,14,1,-8,1,-3,1,-8,1,-15,1,-14,1,-20,1,-23,1
999,14,1,-1,1,-15,1,-6,1,14,1,-8,1,-3,1,-10,1,-15,1,-15,1,-22,1,-24,1
1000,13,1,-2,1,-15,1,-5,1,14,1,-8,1,-2,1,-9,1,-15,1,-15,1,-21,1,-23,1
1001,12,1,-2,1,-14,1,-5,1,13,1,-8,1,-1,1,-7,1,-13,1,-13,1,-19,1,-21,1
1002,12,1,-1,1,-13,1,-5,1,12,1,-7,1,-1,1,-7,1,-13,1,-14,1,-18,1,-22,1
1003,13,1,-1,1,-14,1,-6,1,13,1,-7,1,-2,1,-9,1,-15,1,-15,1,-20,1,-24,1
1004,14,1,-1,1,-15,1,-6,1,14,1,-8,1,-3,1,-9,1,-14,1,-15,1,-20,1,-23,1
1005,14,1,-2,1,-16,1,-6,1,15,1,-9,1,-1,1,-9,1,-14,1,-14,1,-20,1,-22,1
1006,12,1,-2,1,-14,1,-5,1,13,1,-8,1,-2,1,-9,1,-14,1,-14,1,-20,1,-22,1
1007,16,1,-1,1,-17,1,-7,1,16,1,-9,1,-2,1,-9,1,-16,1,-16,1,-20,1,-23,1
1008,10,1,-4,1,-14,1,-3,1,12,1,-9,1,-2,1,-8,1,-15,1,-15,1,-20,1,-23,1
1009,13,1,-4,1,-17,1,-4,1,15,1,-10,1,-3,1,-9,1,-16,1,-15,1,-21,1,-24,1
1010,13,1,-3,1,-16,1,-5,1,14,1,-9,1,-2,1,-8,1,-15,1,-15,1,-20,1,-24,1
1011,14,1,-3,1,-17,1,-5,1,15,1,-10,1,-2,1,-8,1,-15,1,-15,1,-20,1,-22,1
1012,13,1,-2,1,-15,1,-5,1,14,1,-8,1,-2,1,-8,1,-16,1,-16,1,-20,1,-22,1
1013,14,1,-1,1,-15,1,-6,1,14,1,-8,1,-3,1,-8,1,-16,1,-17,1,-20,1,-21,1
1014,14,1,-2,1,-16,1,-6,1,15,1,-9,1,-4,1,-9,1,-17,1,-18,1,-21,1,-23,1
1015,14,1,-3,1,-17,1,-5,1,15,1,-10,1,-3,1,-9,1,-16,1,-16,1,-19,1,-22,1
1016,14,1,-4,1,-18,1,-5,1,16,1,-11,1,-5,1,-9,1,-16,1,-16,1,-20,1,-24,1
1017,12,1,-6,1,-18,1,-3,1,15,1,-12,1,-4,1,-10,1,-17,1,-17,1,-22,1,-24,1
1018,11,1,-3,1,-14,1,-4,1,12,1,-8,1,-2,1,-8,1,-15,1,-15,1,-20,1,-20,1
1019,19,1,-1,1,-20,1,-9,1,19,1,-10,1,-5,1,-11,1,-17,1,-18,1,-23,1,-24,1
1020,11,1,-2,1,-13,1,-4,1,12,1,-7,1,-4,1,-9,1,-16,1,-17,1,-21,1,-23,1
1021,10,1,-1,1,-11,1,-4,1,10,1,-6,1,-1,1,-7,1,-15,1,-15,1,-18,1,-21,1
1022,12,1,-1,1,-13,1,-5,1,12,1,-7,1,-2,1,-8,1,-16,1,-15,1,-19,1,-22,1
1023,11,1,0,1,-11,1,-5,1,11,1,-5,1,-1,1,-7,1,-15,1,-14,1,-18,1,-20,1
1024,14,1,-1,1,-15,1,-6,1,14,1,-8,1,-4,1,-8,1,-16,1,-15,1,-19,1,-22,1
1025,14,1,-2,1,-16,1,-6,1,15,1,-9,1,-4,1,-9,1,-17,1,-16,1,-20,1,-22,1
1026,15,1,-2,1,-17,1,-6,1,16,1,-9,1,-4,1,-10,1,-17,1,-17,1,-20,1,-22,1
1027,13,1,-4,1,-17,1,-4,1,15,1,-10,1,-3,1,-10,1,-17,1,-16,1,-20,1,-22,1
1028,11,1,-1,1,-12,1,-5,1,11,1,-6,1,-1,1,-8,1,-15,1,-14,1,-19,1,-20,1
1029,18,1,1,1,-17,1,-9,1,18,1,-8,1,-2,1,-9,1,-16,1,-16,1,-20,1,-22,1
1030,14,1,2,1,-12,1,-8,1,13,1,-5,1,0,1,-6,1,-13,1,-14,1,-18,1,-20,1
1031,15,1,0,1,-15,1,-7,1,15,1,-7,1,1,1,-4,1,-11,1,-12,1,-17,1,-17,1
1032,17,1,2,1,-15,1,-9,1,16,1,-6,1,-1,1,-5,1,-12,1,-12,1,-17,1,-18,1
1033,19,1,3,1,-16,1,-11,1,18,1,-6,1,-1,1,-5,1,-12,1,-12,1,-17,1,-19,1
1034,19,1,4,1,-15,1,-11,1,17,1,-5,1,0,1,-4,1,-11,1,-11,1,-17,1,-19,1
1035,19,1,3,1,-16,1,-11,1,18,1,-6,1,0,1,-3,1,-10,1,-10,1,-16,1,-18,1
1036,23,1,5,1,-18,1,-14,1,21,1,-6,1,1,1,-3,1,-11,1,-11,1,-17,1,-18,1
1037,21,1,8,1,-13,1,-14,1,17,1,-2,1,5,1,1,1,-8,1,-9,1,-15,1,-18,1
1038,14,1,10,1,-4,1,-12,1,9,1,3,1,10,1,7,1,-5,1,-5,1,-10,1,-13,1
1039,23,1,9,1,-14,1,-16,1,19,1,-2,1,9,1,5,1,-6,1,-8,1,-14,1,-16,1
1040,21,1,10,1,-11,1,-15,1,16,1,0,1,9,1,5,1,-6,1,-8,1,-14,1,-17,1
1041,25,1,10,1,-15,1,-17,1,20,1,-2,1,8,1,4,1,-6,1,-8,1,-16,1,-17,1
1042,30,1,10,1,-20,1,-20,1,25,1,-5,1,6,1,3,1,-7,1,-8,1,-15,1,-17,1
1043,21,1,12,1,-9,1,-16,1,15,1,2,1,8,1,7,1,-3,1,-4,1,-12,1,-13,1
1044,26,1,11,1,-15,1,-18,1,21,1,-2,1,6,1,6,1,-3,1,-5,1,-13,1,-15,1
1045,27,1,13,1,-14,1,-20,1,21,1,0,1,6,1,6,1,-2,1,-4,1,-11,1,-14,1
1046,28,1,15,1,-13,1,-21,1,21,1,1,1,7,1,8,1,0,1,-3,1,-9,1,-13,1
1047,32,1,17,1,-15,1,-24,1,24,1,1,1,7,1,10,1,0,1,-2,1,-8,1,-12,1
1048,31,1,20,1,-11,1,-25,1,21,1,5,1,6,1,11,1,1,1,0,1,-6,1,-10,1
1049,31,1,19,1,-12,1,-25,1,22,1,4,1,9,1,14,1,4,1,3,1,-4,1,-9,1
1050,33,1,21,1,-12,1,-27,1,23,1,5,1,8,1,16,1,5,1,3,1,-3,1,-8,1
1051,33,1,22,1,-11,1,-27,1,22,1,6,1,8,1,18,1,7,1,5,1,0,1,-4,1
1052,38,1,25,1,-13,1,-31,1,26,1,6,1,3,1,16,1,7,1,5,1,-1,1,-5,1
1053,39,1,26,1,-13,1,-32,1,26,1,7,1,1,1,14,1,5,1,3,1,-2,1,-6,1
1054,37,1,23,1,-14,1,-30,1,26,1,5,1,-1,1,11,1,4,1,2,1,-2,1,-6,1
1055,36,1,23,1,-13,1,-29,1,25,1,5,1,-3,1,9,1,3,1,2,1,-3,1,-7,1
1056,35,1,18,1,-17,1,-26,1,26,1,1,1,-6,1,6,1,1,1,0,1,-4,1,-8,1
1057,36,1,14,1,-22,1,-25,1,29,1,-4,1,-11,1,0,1,-4,1,-4,1,-8,1,-11,1
1058,39,1,13,1,-26,1,-26,1,33,1,-6,1,-13,1,-3,1,-6,1,-7,1,-10,1,-13,1
1059,34,1,13,1,-21,1,-23,1,28,1,-4,1,-12,1,-5,1,-7,1,-8,1,-10,1,-12,1
1060,26,1,13,1,-13,1,-19,1,20,1,0,1,-9,1,-3,1,-6,1,-7,1,-9,1,-10,1
1061,31,1,9,1,-22,1,-20,1,27,1,-6,1,-11,1,-6,1,-9,1,-10,1,-11,1,-13,1
1062,35,1,10,1,-25,1,-22,1,30,1,-7,1,-11,1,-9,1,-13,1,-14,1,-14,1,-16,1
1063,36,1,8,1,-28,1,-22,1,32,1,-10,1,-13,1,-10,1,-14,1,-15,1,-15,1,-18,1
1064,35,1,6,1,-29,1,-20,1,32,1,-11,1,-12,1,-12,1,-15,1,-16,1,-17,1,-17,1
1065,37,1,6,1,-31,1,-21,1,34,1,-12,1,-12,1,-11,1,-15,1,-16,1,-17,1,-18,1
1066,34,1,5,1,-29,1,-19,1,32,1,-12,1,-13,1,-12,1,-15,1,-16,1,-16,1,-19,1
1067,32,1,3,1,-29,1,-17,1,31,1,-13,1,-14,1,-14,1,-16,1,-17,1,-17,1,-19,1
1068,22,1,1,1,-21,1,-11,1,22,1,-10,1,-10,1,-12,1,-15,1,-16,1,-17,1,-19,1
1069,22,1,0,1,-22,1,-11,1,22,1,-11,1,-9,1,-11,1,-15,1,-16,1,-17,1,-20,1
1070,24,1,0,1,-24,1,-12,1,24,1,-12,1,-9,1,-10,1,-15,1,-17,1,-19,1,-20,1
1071,23,1,1,1,-22,1,-12,1,23,1,-10,1,-8,1,-9,1,-15,1,-16,1,-19,1,-20,1
1072,20,1,4,1,-16,1,-12,1,18,1,-6,1,-9,1,-10,1,-15,1,-16,1,-19,1,-20,1
1073,18,1,1,1,-17,1,-9,1,18,1,-8,1,-7,1,-10,1,-15,1,-17,1,-18,1,-20,1
1074,13,1,-3,1,-16,1,-5,1,14,1,-9,1,-5,1,-9,1,-14,1,-16,1,-18,1,-20,1
1075,14,1,-2,1,-16,1,-6,1,15,1,-9,1,-6,1,-11,1,-16,1,-18,1,-20,1,-22,1
1076,13,1,-3,1,-16,1,-5,1,14,1,-9,1,-7,1,-12,1,-17,1,-18,1,-20,1,-24,1
1077,11,1,-5,1,-16,1,-3,1,13,1,-10,1,-8,1,-14,1,-19,1,-19,1,-22,1,-25,1
1078,9,1,-7,1,-16,1,-1,1,12,1,-11,1,-7,1,-14,1,-18,1,-20,1,-22,1,-24,1
1079,11,1,-4,1,-15,1,-3,1,13,1,-9,1,-5,1,-14,1,-18,1,-19,1,-22,1,-24,1
1080,14,1,-6,1,-20,1,-4,1,17,1,-13,1,-7,1,-16,1,-20,1,-20,1,-24,1,-27,1
1081,4,1,-6,1,-10,1,1,1,7,1,-8,1,-4,1,-12,1,-17,1,-18,1,-22,1,-25,1
1082,12,1,-5,1,-17,1,-3,1,14,1,-11,1,-6,1,-14,1,-18,1,-20,1,-23,1,-26,1
1083,15,1,-4,1,-19,1,-5,1,17,1,-11,1,-7,1,-15,1,-19,1,-21,1,-24,1,-27,1
1084,10,1,-6,1,-16,1,-2,1,13,1,-11,1,-7,1,-15,1,-18,1,-20,1,-22,1,-25,1
1085,7,1,-7,1,-14,1,0,1,10,1,-10,1,-6,1,-15,1,-17,1,-19,1,-21,1,-25,1
1086,12,1,-6,1,-18,1,-3,1,15,1,-12,1,-8,1,-16,1,-18,1,-20,1,-22,1,-25,1
1087,12,1,-7,1,-19,1,-2,1,15,1,-13,1,-8,1,-17,1,-19,1,-21,1,-23,1,-27,1
1088,16,1,-7,1,-23,1,-4,1,19,1,-15,1,-7,1,-17,1,-20,1,-23,1,-24,1,-27,1
1089,6,1,-6,1,-12,1,0,1,9,1,-9,1,-3,1,-13,1,-16,1,-20,1,-22,1,-24,1
1090,9,1,-7,1,-16,1,-1,1,12,1,-11,1,-3,1,-15,1,-17,1,-21,1,-23,1,-25,1
1091,7,1,-7,1,-14,1,0,1,10,1,-10,1,-3,1,-14,1,-18,1,-20,1,-22,1,-24,1
1092,10,1,-6,1,-16,1,-2,1,13,1,-11,1,-4,1,-13,1,-19,1,-21,1,-23,1,-25,1
1093,10,1,-7,1,-17,1,-1,1,13,1,-12,1,-3,1,-13,1,-19,1,-21,1,-22,1,-24,1
1094,6,1,-8,1,-14,1,1,1,10,1,-11,1,-2,1,-12,1,-18,1,-20,1,-21,1,-23,1
1095,8,1,-7,1,-15,1,0,1,11,1,-11,1,-5,1,-13,1,-18,1,-21,1,-22,1,-24,1
1096,5,1,-9,1,-14,1,2,1,9,1,-11,1,-5,1,-14,1,-20,1,-22,1,-24,1,-25,1
1097,6,1,-9,1,-15,1,1,1,10,1,-12,1,-5,1,-15,1,-19,1,-22,1,-24,1,-25,1
1098,8,1,-7,1,-15,1,0,1,11,1,-11,1,-4,1,-14,1,-19,1,-21,1,-24,1,-25,1
1099,10,1,-5,1,-15,1,-2,1,12,1,-10,1,-4,1,-14,1,-19,1,-22,1,-25,1,-26,1
1100,11,1,-6,1,-17,1,-2,1,14,1,-11,1,-5,1,-15,1,-21,1,-23,1,-25,1,-27,1
1101,7,1,-7,1,-14,1,0,1,10,1,-10,1,-3,1,-13,1,-18,1,-20,1,-22,1,-25,1
1102,9,1,-7,1,-16,1,-1,1,12,1,-11,1,-3,1,-13,1,-18,1,-20,1,-23,1,-26,1
1103,9,1,-8,1,-17,1,0,1,13,1,-12,1,-4,1,-13,1,-18,1,-20,1,-23,1,-26,1
1104,8,1,-8,1,-16,1,0,1,12,1,-12,1,-4,1,-13,1,-19,1,-20,1,-23,1,-27,1
1105,4,1,-6,1,-10,1,1,1,7,1,-8,1,-2,1,-12,1,-18,1,-20,1,-23,1,-25,1
1106,7,1,-6,1,-13,1,0,1,10,1,-9,1,-1,1,-13,1,-19,1,-23,1,-26,1,-28,1
1107,3,1,-5,1,-8,1,1,1,5,1,-6,1,2,1,-8,1,-17,1,-22,1,-27,1,-29,1
1108,-1,1,-5,1,-4,1,3,1,1,1,-5,1,9,1,-4,1,-14,1,-21,1,-26,1,-28,1
1109,-4,1,-1,1,3,1,2,1,-4,1,1,1,16,1,3,1,-7,1,-18,1,-24,1,-25,1
1110,-3,1,6,1,9,1,-1,1,-6,1,7,1,20,1,17,1,2,1,-12,1,-21,1,-23,1
1111,-1,1,13,1,14,1,-6,1,-7,1,13,1,22,1,32,1,15,1,0,1,-12,1,-18,1
1112,0,1,16,1,16,1,-8,1,-8,1,16,1,24,1,55,1,35,1,19,1,2,1,-8,1
1113,14,1,27,1,13,1,-20,1,1,1,20,1,20,1,79,1,54,1,40,1,19,1,3,1
1114,28,1,44,1,16,1,-36,1,6,1,30,1,18,1,106,1,84,1,72,1,46,1,22,1
1115,41,1,67,1,26,1,-54,1,8,1,47,1,18,1,126,1,119,1,111,1,81,1,50,1
1116,56,1,91,1,35,1,-73,1,11,1,63,1,11,1,123,1,144,1,144,1,112,1,74,1
1117,74,1,112,1,38,1,-93,1,18,1,75,1,5,1,123,1,170,1,177,1,143,1,98,1
1118,95,1,134,1,39,1,-114,1,28,1,87,1,-4,1,115,1,193,1,211,1,175,1,123,1
1119,119,1,149,1,30,1,-134,1,45,1,90,1,-26,1,95,1,204,1,238,1,201,1,143,1
1120,148,1,159,1,11,1,-153,1,69,1,85,1,-60,1,77,1,213,1,265,1,226,1,163,1
1121,181,1,172,1,-9,1,-176,1,95,1,82,1,-96,1,56,1,223,1,295,1,256,1,184,1
1122,201,1,187,1,-14,1,-194,1,108,1,87,1,-118,1,53,1,246,1,330,1,285,1,206,1
1123,201,1,187,1,-14,1,-194,1,108,1,87,1,-131,1,53,1,266,1,357,1,302,1,218,1
1124,211,1,173,1,-38,1,-192,1,125,1,68,1,-150,1,34,1,261,1,358,1,299,1,212,1
1125,204,1,151,1,-53,1,-177,1,129,1,49,1,-161,1,-7,1,226,1,327,1,276,1,193,1
1126,192,1,112,1,-80,1,-152,1,136,1,16,1,-161,1,-50,1,167,1,264,1,225,1,157,1
1127,171,1,59,1,-112,1,-115,1,142,1,-26,1,-157,1,-93,1,89,1,172,1,149,1,103,1
1128,150,1,14,1,-136,1,-82,1,143,1,-61,1,-157,1,-130,1,16,1,85,1,78,1,53,1
1129,119,1,-12,1,-131,1,-53,1,125,1,-71,1,-150,1,-171,1,-48,1,7,1,14,1,9,1
1130,87,1,-33,1,-120,1,-27,1,103,1,-76,1,-140,1,-208,1,-100,1,-55,1,-35,1,-23,1
1131,49,1,-36,1,-85,1,-6,1,67,1,-60,1,-119,1,-222,1,-125,1,-87,1,-56,1,-34,1
1132,45,1,-27,1,-72,1,-9,1,58,1,-49,1,-112,1,-225,1,-135,1,-102,1,-69,1,-45,1
1133,31,1,-20,1,-51,1,-5,1,41,1,-35,1,-102,1,-200,1,-119,1,-90,1,-65,1,-42,1
1134,18,1,-16,1,-34,1,-1,1,26,1,-25,1,-91,1,-168,1,-100,1,-74,1,-55,1,-37,1
1135,16,1,-16,1,-32,1,0,1,24,1,-24,1,-87,1,-150,1,-93,1,-70,1,-51,1,-36,1
1136,16,1,-17,1,-33,1,0,1,24,1,-25,1,-83,1,-134,1,-88,1,-66,1,-50,1,-36,1
1137,15,1,-14,1,-29,1,0,1,22,1,-21,1,-70,1,-114,1,-78,1,-60,1,-48,1,-35,1
1138,10,1,-11,1,-21,1,0,1,15,1,-16,1,-56,1,-92,1,-65,1,-51,1,-42,1,-33,1
1139,13,1,-8,1,-21,1,-2,1,17,1,-14,1,-45,1,-72,1,-52,1,-42,1,-36,1,-30,1
1140,14,1,-8,1,-22,1,-3,1,18,1,-15,1,-35,1,-55,1,-42,1,-34,1,-32,1,-28,1
1141,8,1,-8,1,-16,1,0,1,12,1,-12,1,-24,1,-38,1,-32,1,-27,1,-28,1,-26,1
1142,11,1,-5,1,-16,1,-3,1,13,1,-10,1,-19,1,-31,1,-28,1,-26,1,-28,1,-26,1
1143,11,1,-7,1,-18,1,-2,1,14,1,-12,1,-17,1,-27,1,-27,1,-26,1,-29,1,-28,1
1144,9,1,-5,1,-14,1,-2,1,11,1,-9,1,-15,1,-24,1,-25,1,-24,1,-28,1,-28,1
1145,7,1,-6,1,-13,1,0,1,10,1,-9,1,-12,1,-22,1,-25,1,-24,1,-26,1,-27,1
1146,10,1,-6,1,-16,1,-2,1,13,1,-11,1,-13,1,-24,1,-27,1,-28,1,-29,1,-30,1
1147,10,1,-8,1,-18,1,-1,1,14,1,-13,1,-12,1,-23,1,-28,1,-28,1,-29,1,-29,1
1148,7,1,-8,1,-15,1,0,1,11,1,-11,1,-9,1,-20,1,-27,1,-27,1,-29,1,-29,1
1149,6,1,-8,1,-14,1,1,1,10,1,-11,1,-8,1,-19,1,-26,1,-26,1,-28,1,-30,1
1150,7,1,-8,1,-15,1,0,1,11,1,-11,1,-7,1,-19,1,-27,1,-27,1,-29,1,-31,1
1151,5,1,-8,1,-13,1,1,1,9,1,-10,1,-5,1,-17,1,-26,1,-25,1,-28,1,-31,1
1152,5,1,-8,1,-13,1,1,1,9,1,-10,1,-4,1,-16,1,-26,1,-25,1,-28,1,-30,1
1153,6,1,-6,1,-12,1,0,1,9,1,-9,1,-4,1,-16,1,-25,1,-25,1,-29,1,-31,1
1154,9,1,-7,1,-16,1,-1,1,12,1,-11,1,-5,1,-15,1,-24,1,-24,1,-28,1,-30,1
1155,7,1,-8,1,-15,1,0,1,11,1,-11,1,-5,1,-14,1,-23,1,-24,1,-27,1,-30,1
1156,8,1,-8,1,-16,1,0,1,12,1,-12,1,-7,1,-14,1,-23,1,-24,1,-29,1,-33,1
1157,7,1,-9,1,-16,1,1,1,11,1,-12,1,-5,1,-12,1,-22,1,-24,1,-28,1,-31,1
1158,9,1,-8,1,-17,1,0,1,13,1,-12,1,-4,1,-11,1,-20,1,-22,1,-27,1,-30,1
1159,9,1,-9,1,-18,1,0,1,13,1,-13,1,-3,1,-12,1,-22,1,-24,1,-28,1,-32,1
1160,9,1,-10,1,-19,1,0,1,14,1,-14,1,-1,1,-12,1,-22,1,-24,1,-28,1,-32,1
1161,4,1,-10,1,-14,1,3,1,9,1,-12,1,0,1,-9,1,-19,1,-22,1,-27,1,-29,1
1162,3,1,-7,1,-10,1,2,1,6,1,-8,1,-1,1,-9,1,-20,1,-22,1,-28,1,-30,1
1163,9,1,-7,1,-16,1,-1,1,12,1,-11,1,-2,1,-12,1,-22,1,-24,1,-30,1,-31,1
1164,10,1,-9,1,-19,1,0,1,14,1,-14,1,-2,1,-11,1,-22,1,-23,1,-30,1,-31,1
1165,4,1,-8,1,-12,1,2,1,8,1,-10,1,0,1,-9,1,-20,1,-20,1,-26,1,-28,1
1166,7,1,-8,1,-15,1,0,1,11,1,-11,1,-1,1,-10,1,-21,1,-21,1,-28,1,-31,1
1167,1,1,-5,1,-6,1,2,1,3,1,-5,1,1,1,-7,1,-18,1,-19,1,-25,1,-27,1
1168,6,1,-6,1,-12,1,0,1,9,1,-9,1,-1,1,-9,1,-20,1,-21,1,-27,1,-30,1
1169,5,1,-7,1,-12,1,1,1,8,1,-9,1,-1,1,-10,1,-21,1,-24,1,-30,1,-31,1
1170,5,1,-13,1,-18,1,4,1,11,1,-15,1,0,1,-9,1,-20,1,-22,1,-29,1,-30,1
1171,1,1,-13,1,-14,1,6,1,7,1,-13,1,1,1,-7,1,-18,1,-20,1,-26,1,-28,1
1172,7,1,-8,1,-15,1,0,1,11,1,-11,1,0,1,-9,1,-19,1,-20,1,-27,1,-30,1
1173,7,1,-9,1,-16,1,1,1,11,1,-12,1,1,1,-8,1,-18,1,-20,1,-26,1,-29,1
1174,5,1,-7,1,-12,1,1,1,8,1,-9,1,0,1,-8,1,-19,1,-21,1,-26,1,-29,1
1175,4,1,-6,1,-10,1,1,1,7,1,-8,1,0,1,-8,1,-18,1,-20,1,-26,1,-29,1
1176,5,1,-7,1,-12,1,1,1,8,1,-9,1,1,1,-8,1,-18,1,-20,1,-26,1,-29,1
1177,6,1,-7,1,-13,1,0,1,9,1,-10,1,0,1,-7,1,-17,1,-20,1,-26,1,-30,1
1178,8,1,-7,1,-15,1,0,1,11,1,-11,1,0,1,-7,1,-18,1,-21,1,-27,1,-30,1
1179,8,1,-8,1,-16,1,0,1,12,1,-12,1,0,1,-7,1,-17,1,-20,1,-27,1,-30,1
1180,-2,1,-7,1,-5,1,4,1,1,1,-6,1,4,1,-3,1,-13,1,-16,1,-24,1,-25,1
1181,7,1,-7,1,-14,1,0,1,10,1,-10,1,-1,1,-5,1,-17,1,-20,1,-27,1,-30,1
1182,8,1,-7,1,-15,1,0,1,11,1,-11,1,-1,1,-6,1,-18,1,-20,1,-27,1,-31,1
1183,8,1,-7,1,-15,1,0,1,11,1,-11,1,-1,1,-6,1,-17,1,-20,1,-26,1,-30,1
1184,8,1,-5,1,-13,1,-1,1,10,1,-9,1,0,1,-5,1,-16,1,-19,1,-24,1,-28,1
1185,7,1,-8,1,-15,1,0,1,11,1,-11,1,-1,1,-5,1,-14,1,-18,1,-24,1,-27,1
1186,8,1,-6,1,-14,1,-1,1,11,1,-10,1,0,1,-5,1,-14,1,-18,1,-25,1,-28,1
1187,8,1,-5,1,-13,1,-1,1,10,1,-9,1,-2,1,-5,1,-15,1,-18,1,-25,1,-29,1
1188,7,1,-6,1,-13,1,0,1,10,1,-9,1,-1,1,-5,1,-15,1,-19,1,-26,1,-29,1
1189,7,1,-8,1,-15,1,0,1,11,1,-11,1,-1,1,-5,1,-15,1,-19,1,-26,1,-29,1
1190,7,1,-7,1,-14,1,0,1,10,1,-10,1,-1,1,-5,1,-15,1,-19,1,-26,1,-29,1
1191,11,1,-8,1,-19,1,-1,1,15,1,-13,1,-2,1,-4,1,-15,1,-19,1,-25,1,-29,1
1192,9,1,-6,1,-15,1,-1,1,12,1,-10,1,0,1,-3,1,-13,1,-17,1,-23,1,-28,1
1193,12,1,-5,1,-17,1,-3,1,14,1,-11,1,-1,1,-3,1,-13,1,-17,1,-23,1,-29,1
1194,14,1,-5,1,-19,1,-4,1,16,1,-12,1,-3,1,-5,1,-14,1,-18,1,-24,1,-29,1
1195,4,1,-6,1,-10,1,1,1,7,1,-8,1,0,1,-1,1,-11,1,-14,1,-21,1,-26,1
1196,9,1,-9,1,-18,1,0,1,13,1,-13,1,0,1,-2,1,-11,1,-14,1,-21,1,-26,1
1197,8,1,-5,1,-13,1,-1,1,10,1,-9,1,-1,1,-4,1,-12,1,-15,1,-22,1,-26,1
1198,9,1,-3,1,-12,1,-3,1,10,1,-7,1,-2,1,-4,1,-13,1,-15,1,-22,1,-27,1
1199,2,1,-4,1,-6,1,1,1,4,1,-5,1,0,1,-1,1,-9,1,-12,1,-19,1,-24,1
1200,11,1,-6,1,-17,1,-2,1,14,1,-11,1,-2,1,-2,1,-11,1,-15,1,-21,1,-26,1
1201,12,1,-6,1,-18,1,-3,1,15,1,-12,1,-2,1,-2,1,-10,1,-14,1,-21,1,-26,1
1202,11,1,-4,1,-15,1,-3,1,13,1,-9,1,0,1,-2,1,-10,1,-13,1,-20,1,-26,1
1203,9,1,-6,1,-15,1,-1,1,12,1,-10,1,-1,1,-1,1,-11,1,-14,1,-20,1,-27,1
1204,8,1,-9,1,-17,1,0,1,12,1,-13,1,-2,1,-1,1,-10,1,-14,1,-20,1,-27,1
1205,11,1,-4,1,-15,1,-3,1,13,1,-9,1,-2,1,-1,1,-10,1,-14,1,-20,1,-26,1
1206,14,1,0,1,-14,1,-7,1,14,1,-7,1,-4,1,-2,1,-11,1,-15,1,-21,1,-28,1
1207,5,1,-1,1,-6,1,-2,1,5,1,-3,1,0,1,3,1,-7,1,-11,1,-17,1,-23,1
1208,8,1,-2,1,-10,1,-3,1,9,1,-6,1,-2,1,0,1,-10,1,-12,1,-18,1,-25,1
1209,10,1,-4,1,-14,1,-3,1,12,1,-9,1,-3,1,-1,1,-11,1,-14,1,-19,1,-26,1
1210,14,1,-3,1,-17,1,-5,1,15,1,-10,1,-3,1,1,1,-9,1,-11,1,-17,1,-25,1
1211,13,1,-1,1,-14,1,-6,1,13,1,-7,1,-2,1,1,1,-9,1,-12,1,-18,1,-26,1
1212,12,1,-2,1,-14,1,-5,1,13,1,-8,1,-4,1,2,1,-8,1,-10,1,-16,1,-23,1
1213,13,1,-1,1,-14,1,-6,1,13,1,-7,1,-4,1,3,1,-8,1,-8,1,-16,1,-22,1
1214,16,1,1,1,-15,1,-8,1,16,1,-7,1,-4,1,2,1,-8,1,-9,1,-16,1,-23,1
1215,10,1,0,1,-10,1,-5,1,10,1,-5,1,-3,1,2,1,-7,1,-9,1,-15,1,-22,1
1216,13,1,1,1,-12,1,-7,1,13,1,-5,1,-5,1,3,1,-7,1,-8,1,-14,1,-22,1
1217,12,1,0,1,-12,1,-6,1,12,1,-6,1,-4,1,4,1,-6,1,-6,1,-12,1,-20,1
1218,13,1,0,1,-13,1,-6,1,13,1,-6,1,-4,1,4,1,-5,1,-7,1,-13,1,-21,1
1219,16,1,2,1,-14,1,-9,1,15,1,-6,1,-6,1,3,1,-7,1,-9,1,-15,1,-22,1
1220,16,1,2,1,-14,1,-9,1,15,1,-6,1,-6,1,3,1,-7,1,-9,1,-15,1,-22,1
1221,13,1,2,1,-11,1,-7,1,12,1,-4,1,-4,1,5,1,-7,1,-8,1,-14,1,-22,1
1222,14,1,2,1,-12,1,-8,1,13,1,-5,1,-6,1,5,1,-8,1,-7,1,-13,1,-20,1
1223,14,1,2,1,-12,1,-8,1,13,1,-5,1,-6,1,5,1,-7,1,-6,1,-11,1,-19,1
1224,14,1,4,1,-10,1,-9,1,12,1,-3,1,-6,1,7,1,-5,1,-4,1,-10,1,-19,1
1225,16,1,0,1,-16,1,-8,1,16,1,-8,1,-5,1,7,1,-3,1,-2,1,-8,1,-17,1
1226,15,1,2,1,-13,1,-8,1,14,1,-5,1,-6,1,6,1,-3,1,-2,1,-8,1,-17,1
1227,15,1,3,1,-12,1,-9,1,14,1,-4,1,-8,1,7,1,-4,1,-3,1,-8,1,-17,1
1228,15,1,5,1,-10,1,-10,1,13,1,-2,1,-7,1,9,1,-3,1,-1,1,-6,1,-15,1
1229,19,1,4,1,-15,1,-11,1,17,1,-5,1,-10,1,8,1,-4,1,-2,1,-8,1,-17,1
1230,17,1,6,1,-11,1,-11,1,14,1,-2,1,-8,1,9,1,-2,1,0,1,-6,1,-15,1
1231,16,1,6,1,-10,1,-11,1,13,1,-2,1,-7,1,9,1,-3,1,0,1,-6,1,-14,1
1232,18,1,6,1,-12,1,-12,1,15,1,-3,1,-8,1,9,1,-4,1,0,1,-7,1,-15,1
1233,14,1,6,1,-8,1,-10,1,11,1,-1,1,-8,1,10,1,-2,1,1,1,-5,1,-14,1
1234,22,1,5,1,-17,1,-13,1,20,1,-6,1,-9,1,10,1,-2,1,2,1,-4,1,-14,1
1235,23,1,6,1,-17,1,-14,1,20,1,-5,1,-10,1,10,1,-2,1,2,1,-4,1,-13,1
1236,20,1,8,1,-12,1,-14,1,16,1,-2,1,-9,1,12,1,0,1,4,1,-3,1,-12,1
1237,18,1,8,1,-10,1,-13,1,14,1,-1,1,-9,1,13,1,0,1,5,1,-3,1,-10,1
1238,21,1,9,1,-12,1,-15,1,17,1,-1,1,-10,1,12,1,-2,1,4,1,-3,1,-12,1
1239,21,1,9,1,-12,1,-15,1,17,1,-1,1,-11,1,13,1,-2,1,4,1,-3,1,-11,1
1240,24,1,9,1,-15,1,-16,1,20,1,-3,1,-10,1,13,1,-1,1,5,1,-1,1,-10,1
1241,16,1,10,1,-6,1,-13,1,11,1,2,1,-8,1,16,1,0,1,7,1,0,1,-7,1
1242,16,1,10,1,-6,1,-13,1,11,1,2,1,-11,1,15,1,1,1,9,1,2,1,-7,1
1243,25,1,10,1,-15,1,-17,1,20,1,-2,1,-15,1,13,1,0,1,7,1,0,1,-9,1
1244,29,1,12,1,-17,1,-20,1,23,1,-2,1,-14,1,13,1,-1,1,8,1,1,1,-8,1
1245,27,1,15,1,-12,1,-21,1,20,1,2,1,-14,1,14,1,0,1,9,1,3,1,-7,1
1246,25,1,16,1,-9,1,-20,1,17,1,4,1,-13,1,17,1,2,1,11,1,4,1,-6,1
1247,27,1,15,1,-12,1,-21,1,20,1,2,1,-14,1,17,1,2,1,11,1,4,1,-5,1
1248,29,1,16,1,-13,1,-22,1,21,1,2,1,-15,1,17,1,1,1,11,1,5,1,-4,1
1249,28,1,15,1,-13,1,-21,1,21,1,1,1,-16,1,16,1,0,1,10,1,4,1,-4,1
1250,33,1,18,1,-15,1,-25,1,24,1,2,1,-18,1,15,1,-1,1,9,1,4,1,-3,1
1251,25,1,18,1,-7,1,-21,1,16,1,6,1,-14,1,18,1,2,1,13,1,9,1,0,1
1252,28,1,20,1,-8,1,-24,1,18,1,6,1,-17,1,17,1,1,1,13,1,9,1,0,1
1253,32,1,20,1,-12,1,-26,1,22,1,4,1,-19,1,17,1,1,1,13,1,10,1,0,1
1254,32,1,21,1,-11,1,-26,1,22,1,5,1,-19,1,17,1,2,1,14,1,11,1,2,1
1255,33,1,21,1,-12,1,-27,1,23,1,5,1,-19,1,17,1,2,1,15,1,11,1,2,1
1256,32,1,23,1,-9,1,-27,1,21,1,7,1,-21,1,17,1,2,1,15,1,12,1,2,1
1257,31,1,21,1,-10,1,-26,1,21,1,6,1,-22,1,16,1,1,1,16,1,12,1,3,1
1258,34,1,22,1,-12,1,-28,1,23,1,5,1,-24,1,14,1,0,1,15,1,12,1,3,1
1259,38,1,22,1,-16,1,-30,1,27,1,3,1,-26,1,12,1,-1,1,14,1,11,1,2,1
1260,38,1,25,1,-13,1,-31,1,26,1,6,1,-25,1,13,1,0,1,15,1,12,1,3,1
1261,35,1,27,1,-8,1,-31,1,22,1,10,1,-23,1,15,1,1,1,17,1,15,1,7,1
1262,37,1,29,1,-8,1,-33,1,23,1,11,1,-22,1,13,1,0,1,17,1,17,1,8,1
1263,39,1,28,1,-11,1,-33,1,25,1,9,1,-25,1,11,1,-1,1,17,1,16,1,8,1
1264,38,1,24,1,-14,1,-31,1,26,1,5,1,-25,1,11,1,0,1,17,1,17,1,8,1
1265,35,1,25,1,-10,1,-30,1,23,1,8,1,-24,1,12,1,1,1,19,1,19,1,9,1
1266,34,1,29,1,-5,1,-31,1,20,1,12,1,-26,1,10,1,0,1,17,1,18,1,9,1
1267,36,1,28,1,-8,1,-32,1,22,1,10,1,-27,1,9,1,-2,1,16,1,18,1,9,1
1268,42,1,29,1,-13,1,-35,1,28,1,8,1,-28,1,5,1,-5,1,14,1,15,1,8,1
1269,45,1,30,1,-15,1,-37,1,30,1,8,1,-29,1,3,1,-7,1,11,1,14,1,6,1
1270,42,1,32,1,-10,1,-37,1,26,1,11,1,-28,1,5,1,-6,1,13,1,16,1,8,1
1271,42,1,28,1,-14,1,-35,1,28,1,7,1,-29,1,3,1,-7,1,12,1,15,1,7,1
1272,36,1,27,1,-9,1,-31,1,23,1,9,1,-28,1,2,1,-6,1,12,1,15,1,8,1
1273,36,1,30,1,-6,1,-33,1,21,1,12,1,-29,1,1,1,-6,1,11,1,15,1,8,1
1274,48,1,30,1,-18,1,-39,1,33,1,6,1,-32,1,-2,1,-10,1,9,1,12,1,5,1
1275,45,1,30,1,-15,1,-37,1,30,1,8,1,-31,1,-1,1,-10,1,11,1,15,1,8,1
1276,45,1,29,1,-16,1,-37,1,31,1,7,1,-32,1,-3,1,-11,1,11,1,15,1,8,1
1277,39,1,29,1,-10,1,-34,1,25,1,10,1,-30,1,-4,1,-12,1,10,1,14,1,7,1
1278,41,1,27,1,-14,1,-34,1,28,1,7,1,-30,1,-4,1,-11,1,10,1,14,1,7,1
1279,46,1,28,1,-18,1,-37,1,32,1,5,1,-28,1,-4,1,-11,1,10,1,13,1,7,1
1280,40,1,27,1,-13,1,-33,1,27,1,7,1,-25,1,-3,1,-10,1,11,1,14,1,7,1
1281,36,1,27,1,-9,1,-31,1,23,1,9,1,-25,1,-2,1,-9,1,11,1,13,1,6,1
1282,38,1,26,1,-12,1,-32,1,25,1,7,1,-24,1,-3,1,-10,1,10,1,12,1,5,1
1283,40,1,25,1,-15,1,-32,1,28,1,5,1,-22,1,-2,1,-10,1,10,1,11,1,5,1
1284,40,1,23,1,-17,1,-31,1,29,1,3,1,-23,1,-4,1,-11,1,8,1,9,1,1,1
1285,38,1,22,1,-16,1,-30,1,27,1,3,1,-21,1,-3,1,-9,1,8,1,9,1,2,1
1286,34,1,21,1,-13,1,-27,1,24,1,4,1,-18,1,-3,1,-9,1,7,1,8,1,0,1
1287,32,1,19,1,-13,1,-25,1,23,1,3,1,-18,1,-3,1,-10,1,6,1,6,1,0,1
1288,34,1,20,1,-14,1,-27,1,24,1,3,1,-16,1,-2,1,-9,1,6,1,6,1,-2,1
1289,32,1,17,1,-15,1,-24,1,24,1,1,1,-13,1,0,1,-8,1,6,1,6,1,-2,1
1290,30,1,17,1,-13,1,-23,1,22,1,2,1,-11,1,0,1,-8,1,6,1,5,1,-3,1
1291,31,1,16,1,-15,1,-23,1,23,1,1,1,-10,1,-1,1,-8,1,5,1,2,1,-6,1
1292,27,1,16,1,-11,1,-21,1,19,1,3,1,-8,1,0,1,-6,1,6,1,3,1,-6,1
1293,25,1,14,1,-11,1,-19,1,18,1,2,1,-8,1,1,1,-6,1,6,1,2,1,-7,1
1294,27,1,14,1,-13,1,-20,1,20,1,1,1,-7,1,1,1,-6,1,4,1,0,1,-9,1
1295,24,1,12,1,-12,1,-18,1,18,1,0,1,-4,1,4,1,-3,1,7,1,2,1,-9,1
1296,21,1,8,1,-13,1,-14,1,17,1,-2,1,-4,1,5,1,-2,1,7,1,0,1,-10,1
1297,20,1,8,1,-12,1,-14,1,16,1,-2,1,-3,1,5,1,-3,1,6,1,-1,1,-11,1
1298,25,1,10,1,-15,1,-17,1,20,1,-2,1,-4,1,3,1,-4,1,5,1,-3,1,-12,1
1299,23,1,8,1,-15,1,-15,1,19,1,-3,1,-2,1,5,1,-2,1,5,1,-2,1,-12,1
1300,22,1,6,1,-16,1,-14,1,19,1,-5,1,-3,1,5,1,-2,1,2,1,-3,1,-13,1
1301,19,1,7,1,-12,1,-13,1,16,1,-2,1,1,1,4,1,-2,1,2,1,-4,1,-14,1
1302,19,1,4,1,-15,1,-11,1,17,1,-5,1,1,1,5,1,-1,1,2,1,-4,1,-14,1
1303,24,1,6,1,-18,1,-15,1,21,1,-6,1,-2,1,3,1,-3,1,0,1,-6,1,-16,1
1304,19,1,5,1,-14,1,-12,1,17,1,-4,1,0,1,4,1,-1,1,2,1,-3,1,-15,1
1305,12,1,5,1,-7,1,-8,1,10,1,-1,1,2,1,7,1,1,1,4,1,-1,1,-13,1
1306,19,1,5,1,-14,1,-12,1,17,1,-4,1,0,1,4,1,-2,1,2,1,-5,1,-17,1
1307,19,1,3,1,-16,1,-11,1,18,1,-6,1,0,1,4,1,-1,1,1,1,-5,1,-17,1
1308,17,1,2,1,-15,1,-9,1,16,1,-6,1,0,1,4,1,-2,1,0,1,-7,1,-18,1
1309,11,1,0,1,-11,1,-5,1,11,1,-5,1,1,1,5,1,0,1,1,1,-6,1,-18,1
1310,2,1,0,1,-2,1,-1,1,2,1,-1,1,4,1,8,1,2,1,4,1,-3,1,-16,1
1311,19,1,2,1,-17,1,-10,1,18,1,-7,1,-1,1,3,1,-2,1,-1,1,-8,1,-20,1
1312,15,1,1,1,-14,1,-8,1,15,1,-6,1,2,1,6,1,1,1,2,1,-6,1,-18,1
1313,14,1,0,1,-14,1,-7,1,14,1,-7,1,1,1,4,1,0,1,0,1,-7,1,-19,1
1314,16,1,0,1,-16,1,-8,1,16,1,-8,1,0,1,3,1,-1,1,0,1,-7,1,-20,1
1315,10,1,-1,1,-11,1,-4,1,10,1,-6,1,2,1,6,1,0,1,2,1,-5,1,-19,1
1316,6,1,-1,1,-7,1,-2,1,6,1,-4,1,2,1,6,1,1,1,2,1,-5,1,-17,1
1317,17,1,0,1,-17,1,-8,1,17,1,-8,1,-2,1,2,1,-3,1,-2,1,-8,1,-21,1
1318,18,1,-1,1,-19,1,-8,1,18,1,-10,1,-4,1,2,1,-2,1,-1,1,-9,1,-20,1
1319,11,1,-1,1,-12,1,-5,1,11,1,-6,1,0,1,3,1,-1,1,0,1,-8,1,-19,1
1320,14,1,-2,1,-16,1,-6,1,15,1,-9,1,-1,1,2,1,-2,1,-2,1,-11,1,-21,1
1321,16,1,-1,1,-17,1,-7,1,16,1,-9,1,-1,1,2,1,-3,1,-3,1,-10,1,-21,1
1322,16,1,0,1,-16,1,-8,1,16,1,-8,1,0,1,3,1,-3,1,-2,1,-9,1,-21,1
1323,14,1,0,1,-14,1,-7,1,14,1,-7,1,1,1,4,1,-1,1,0,1,-7,1,-20,1
1324,18,1,-2,1,-20,1,-8,1,19,1,-11,1,-1,1,2,1,-3,1,-2,1,-9,1,-22,1
1325,11,1,-2,1,-13,1,-4,1,12,1,-7,1,0,1,4,1,-1,1,0,1,-7,1,-20,1
1326,13,1,-2,1,-15,1,-5,1,14,1,-8,1,0,1,2,1,-2,1,-2,1,-9,1,-21,1
1327,13,1,-1,1,-14,1,-6,1,13,1,-7,1,-2,1,1,1,-3,1,-3,1,-9,1,-22,1
1328,13,1,0,1,-13,1,-6,1,13,1,-6,1,-1,1,1,1,-3,1,-2,1,-8,1,-21,1
1329,12,1,-1,1,-13,1,-5,1,12,1,-7,1,0,1,3,1,-2,1,-1,1,-8,1,-20,1
1330,11,1,-3,1,-14,1,-4,1,12,1,-8,1,0,1,2,1,-2,1,0,1,-8,1,-20,1
1331,10,1,1,1,-9,1,-5,1,10,1,-4,1,1,1,4,1,-2,1,0,1,-8,1,-20,1
1332,15,1,0,1,-15,1,-7,1,15,1,-7,1,0,1,2,1,-2,1,-1,1,-9,1,-21,1
1333,17,1,-1,1,-18,1,-8,1,17,1,-9,1,-1,1,2,1,-3,1,-1,1,-7,1,-21,1
1334,16,1,-1,1,-17,1,-7,1,16,1,-9,1,0,1,3,1,0,1,-1,1,-6,1,-20,1
1335,14,1,-1,1,-15,1,-6,1,14,1,-8,1,0,1,3,1,-1,1,-2,1,-6,1,-20,1
1336,13,1,-1,1,-14,1,-6,1,13,1,-7,1,-1,1,2,1,-2,1,-2,1,-6,1,-21,1
1337,13,1,-1,1,-14,1,-6,1,13,1,-7,1,-1,1,2,1,-3,1,-3,1,-8,1,-22,1
1338,10,1,-3,1,-13,1,-3,1,11,1,-8,1,-1,1,2,1,-2,1,-2,1,-7,1,-21,1
1339,12,1,-1,1,-13,1,-5,1,12,1,-7,1,1,1,3,1,-1,1,0,1,-5,1,-19,1
1340,16,1,2,1,-14,1,-9,1,15,1,-6,1,0,1,2,1,-1,1,-1,1,-5,1,-19,1
1341,16,1,3,1,-13,1,-9,1,15,1,-5,1,0,1,2,1,-1,1,-1,1,-6,1,-20,1
1342,12,1,0,1,-12,1,-6,1,12,1,-6,1,0,1,3,1,0,1,-1,1,-5,1,-20,1
1343,13,1,0,1,-13,1,-6,1,13,1,-6,1,0,1,4,1,0,1,0,1,-5,1,-19,1
1344,10,1,1,1,-9,1,-5,1,10,1,-4,1,0,1,4,1,0,1,0,1,-6,1,-19,1
1345,14,1,1,1,-13,1,-7,1,14,1,-6,1,-1,1,3,1,-1,1,-1,1,-6,1,-20,1
1346,16,1,0,1,-16,1,-8,1,16,1,-8,1,-2,1,3,1,-1,1,-2,1,-6,1,-20,1
1347,20,1,4,1,-16,1,-12,1,18,1,-6,1,-2,1,1,1,-2,1,-4,1,-8,1,-22,1
1348,17,1,3,1,-14,1,-10,1,16,1,-5,1,-2,1,2,1,-2,1,-3,1,-7,1,-22,1
1349,12,1,1,1,-11,1,-6,1,12,1,-5,1,0,1,4,1,0,1,-1,1,-5,1,-18,1
1350,9,1,1,1,-8,1,-5,1,9,1,-3,1,0,1,5,1,0,1,-1,1,-4,1,-17,1
1351,11,1,2,1,-9,1,-6,1,10,1,-3,1,2,1,5,1,-1,1,-1,1,-5,1,-18,1
1352,12,1,0,1,-12,1,-6,1,12,1,-6,1,1,1,5,1,-1,1,-1,1,-4,1,-18,1
1353,15,1,0,1,-15,1,-7,1,15,1,-7,1,0,1,5,1,0,1,-1,1,-4,1,-17,1
1354,11,1,0,1,-11,1,-5,1,11,1,-5,1,0,1,5,1,0,1,0,1,-2,1,-15,1
1355,12,1,1,1,-11,1,-6,1,12,1,-5,1,1,1,5,1,1,1,1,1,-1,1,-14,1
1356,12,1,1,1,-11,1,-6,1,12,1,-5,1,1,1,4,1,0,1,0,1,-2,1,-15,1
1357,17,1,1,1,-16,1,-9,1,17,1,-7,1,-2,1,2,1,-2,1,0,1,-3,1,-17,1
1358,13,1,1,1,-12,1,-7,1,13,1,-5,1,0,1,3,1,0,1,0,1,-2,1,-16,1
1359,14,1,0,1,-14,1,-7,1,14,1,-7,1,0,1,4,1,0,1,1,1,-2,1,-16,1
1360,16,1,1,1,-15,1,-8,1,16,1,-7,1,-1,1,4,1,-1,1,0,1,-3,1,-16,1
1361,16,1,5,1,-11,1,-10,1,14,1,-3,1,0,1,4,1,-1,1,0,1,-4,1,-17,1
1362,14,1,3,1,-11,1,-8,1,13,1,-4,1,0,1,4,1,0,1,-1,1,-4,1,-17,1
1363,14,1,1,1,-13,1,-7,1,14,1,-6,1,0,1,4,1,0,1,-1,1,-4,1,-18,1
1364,14,1,2,1,-12,1,-8,1,13,1,-5,1,-1,1,4,1,0,1,0,1,-3,1,-18,1
1365,16,1,3,1,-13,1,-9,1,15,1,-5,1,0,1,4,1,0,1,1,1,-2,1,-17,1
1366,17,1,3,1,-14,1,-10,1,16,1,-5,1,-2,1,4,1,0,1,1,1,-2,1,-17,1
1367,13,1,2,1,-11,1,-7,1,12,1,-4,1,-1,1,5,1,1,1,1,1,0,1,-16,1
1368,8,1,0,1,-8,1,-4,1,8,1,-4,1,0,1,5,1,2,1,1,1,0,1,-15,1
1369,21,1,4,1,-17,1,-12,1,19,1,-6,1,-3,1,2,1,-1,1,-3,1,-4,1,-20,1
1370,10,1,5,1,-5,1,-7,1,8,1,0,1,1,1,6,1,3,1,1,1,0,1,-15,1
1371,13,1,2,1,-11,1,-7,1,12,1,-4,1,1,1,6,1,3,1,2,1,2,1,-14,1
1372,18,1,1,1,-17,1,-9,1,18,1,-8,1,0,1,4,1,0,1,0,1,0,1,-16,1
1373,16,1,2,1,-14,1,-9,1,15,1,-6,1,0,1,4,1,0,1,0,1,-1,1,-16,1
1374,11,1,3,1,-8,1,-7,1,10,1,-2,1,0,1,5,1,1,1,2,1,1,1,-15,1
1375,13,1,3,1,-10,1,-8,1,12,1,-3,1,0,1,5,1,1,1,2,1,1,1,-14,1
1376,17,1,4,1,-13,1,-10,1,15,1,-4,1,-1,1,3,1,1,1,2,1,1,1,-15,1
1377,13,1,3,1,-10,1,-8,1,12,1,-3,1,0,1,3,1,0,1,1,1,0,1,-17,1
1378,14,1,4,1,-10,1,-9,1,12,1,-3,1,-1,1,4,1,0,1,2,1,0,1,-16,1
1379,13,1,4,1,-9,1,-8,1,11,1,-2,1,-1,1,4,1,-1,1,2,1,0,1,-17,1
1380,15,1,3,1,-12,1,-9,1,14,1,-4,1,-1,1,4,1,-1,1,1,1,-1,1,-17,1
1381,14,1,2,1,-12,1,-8,1,13,1,-5,1,0,1,5,1,-1,1,1,1,-1,1,-16,1
1382,14,1,0,1,-14,1,-7,1,14,1,-7,1,-1,1,3,1,-2,1,0,1,-2,1,-17,1
1383,11,1,0,1,-11,1,-5,1,11,1,-5,1,0,1,4,1,-2,1,1,1,-1,1,-17,1
1384,15,1,1,1,-14,1,-8,1,15,1,-6,1,0,1,4,1,-1,1,1,1,-1,1,-16,1
1385,12,1,4,1,-8,1,-8,1,10,1,-2,1,0,1,4,1,0,1,2,1,1,1,-14,1
1386,13,1,2,1,-11,1,-7,1,12,1,-4,1,0,1,3,1,-1,1,2,1,0,1,-15,1
1387,15,1,2,1,-13,1,-8,1,14,1,-5,1,-1,1,1,1,-3,1,1,1,-1,1,-16,1
1388,12,1,1,1,-11,1,-6,1,12,1,-5,1,0,1,2,1,-2,1,1,1,-1,1,-16,1
1389,15,1,2,1,-13,1,-8,1,14,1,-5,1,0,1,2,1,-3,1,0,1,-1,1,-16,1
1390,15,1,3,1,-12,1,-9,1,14,1,-4,1,0,1,2,1,-3,1,-1,1,-2,1,-16,1
1391,16,1,1,1,-15,1,-8,1,16,1,-7,1,0,1,1,1,-4,1,-1,1,-3,1,-18,1
1392,11,1,0,1,-11,1,-5,1,11,1,-5,1,0,1,2,1,-2,1,0,1,-2,1,-16,1
1393,10,1,0,1,-10,1,-5,1,10,1,-5,1,0,1,2,1,-4,1,-2,1,-3,1,-15,1
1394,14,1,1,1,-13,1,-7,1,14,1,-6,1,0,1,1,1,-4,1,-2,1,-3,1,-16,1
1395,11,1,0,1,-11,1,-5,1,11,1,-5,1,0,1,2,1,-3,1,0,1,-2,1,-14,1
1396,12,1,-1,1,-13,1,-5,1,12,1,-7,1,-1,1,0,1,-5,1,-2,1,-4,1,-16,1
1397,11,1,0,1,-11,1,-5,1,11,1,-5,1,-1,1,0,1,-5,1,-3,1,-4,1,-17,1
1398,15,1,3,1,-12,1,-9,1,14,1,-4,1,-1,1,0,1,-6,1,-3,1,-5,1,-18,1
1399,17,1,4,1,-13,1,-10,1,15,1,-4,1,-2,1,-1,1,-7,1,-3,1,-6,1,-19,1
1400,18,1,2,1,-16,1,-10,1,17,1,-7,1,-3,1,-3,1,-9,1,-5,1,-7,1,-21,1
1401,17,1,2,1,-15,1,-9,1,16,1,-6,1,-2,1,-2,1,-8,1,-4,1,-6,1,-20,1
1402,13,1,2,1,-11,1,-7,1,12,1,-4,1,-1,1,-1,1,-7,1,-3,1,-6,1,-19,1
1403,15,1,4,1,-11,1,-9,1,13,1,-3,1,-1,1,-3,1,-8,1,-4,1,-6,1,-19,1
1404,11,1,1,1,-10,1,-6,1,11,1,-4,1,0,1,-2,1,-6,1,-2,1,-5,1,-19,1
1405,12,1,1,1,-11,1,-6,1,12,1,-5,1,0,1,-2,1,-7,1,-3,1,-5,1,-20,1
1406,15,1,0,1,-15,1,-7,1,15,1,-7,1,-2,1,-3,1,-8,1,-4,1,-5,1,-20,1
1407,15,1,0,1,-15,1,-7,1,15,1,-7,1,-2,1,-3,1,-8,1,-3,1,-6,1,-20,1
1408,12,1,0,1,-12,1,-6,1,12,1,-6,1,0,1,-2,1,-7,1,-2,1,-5,1,-18,1
1409,13,1,0,1,-13,1,-6,1,13,1,-6,1,0,1,-2,1,-7,1,-3,1,-5,1,-18,1
1410,17,1,0,1,-17,1,-8,1,17,1,-8,1,-2,1,-3,1,-9,1,-5,1,-8,1,-20,1
1411,10,1,0,1,-10,1,-5,1,10,1,-5,1,0,1,-2,1,-7,1,-4,1,-6,1,-18,1
1412,9,1,0,1,-9,1,-4,1,9,1,-4,1,0,1,-2,1,-8,1,-5,1,-6,1,-19,1
1413,11,1,1,1,-10,1,-6,1,11,1,-4,1,0,1,-2,1,-8,1,-5,1,-6,1,-19,1
1414,13,1,0,1,-13,1,-6,1,13,1,-6,1,-1,1,-2,1,-7,1,-6,1,-5,1,-18,1
1415,11,1,0,1,-11,1,-5,1,11,1,-5,1,0,1,-1,1,-6,1,-4,1,-4,1,-17,1
1416,12,1,-2,1,-14,1,-5,1,13,1,-8,1,-2,1,-4,1,-8,1,-7,1,-7,1,-20,1
1417,18,1,0,1,-18,1,-9,1,18,1,-9,1,-3,1,-6,1,-11,1,-9,1,-9,1,-21,1
1418,15,1,0,1,-15,1,-7,1,15,1,-7,1,-2,1,-5,1,-10,1,-8,1,-7,1,-20,1
1419,7,1,0,1,-7,1,-3,1,7,1,-3,1,0,1,-2,1,-7,1,-7,1,-7,1,-19,1
1420,18,1,0,1,-18,1,-9,1,18,1,-9,1,-2,1,-6,1,-11,1,-9,1,-9,1,-21,1
1421,18,1,-1,1,-19,1,-8,1,18,1,-10,1,-2,1,-6,1,-10,1,-9,1,-8,1,-20,1
1422,8,1,-1,1,-9,1,-3,1,8,1,-5,1,0,1,-3,1,-8,1,-6,1,-5,1,-18,1
1423,9,1,-2,1,-11,1,-3,1,10,1,-6,1,-2,1,-4,1,-8,1,-7,1,-5,1,-19,1
1424,11,1,-1,1,-12,1,-5,1,11,1,-6,1,-3,1,-6,1,-10,1,-9,1,-7,1,-21,1
1425,10,1,-2,1,-12,1,-4,1,11,1,-7,1,0,1,-4,1,-9,1,-6,1,-6,1,-21,1
1426,15,1,0,1,-15,1,-7,1,15,1,-7,1,-2,1,-4,1,-8,1,-6,1,-5,1,-19,1
1427,14,1,2,1,-12,1,-8,1,13,1,-5,1,-2,1,-4,1,-9,1,-7,1,-7,1,-19,1
1428,12,1,2,1,-10,1,-7,1,11,1,-4,1,-1,1,-4,1,-9,1,-8,1,-8,1,-21,1
1429,14,1,0,1,-14,1,-7,1,14,1,-7,1,-1,1,-5,1,-9,1,-8,1,-7,1,-21,1
1430,15,1,-1,1,-16,1,-7,1,15,1,-8,1,0,1,-4,1,-10,1,-8,1,-6,1,-20,1
1431,13,1,-2,1,-15,1,-5,1,14,1,-8,1,0,1,-4,1,-10,1,-7,1,-6,1,-19,1
1432,15,1,-3,1,-18,1,-6,1,16,1,-10,1,0,1,-4,1,-10,1,-7,1,-7,1,-20,1
1433,14,1,-2,1,-16,1,-6,1,15,1,-9,1,-2,1,-6,1,-11,1,-8,1,-7,1,-22,1
1434,9,1,0,1,-9,1,-4,1,9,1,-4,1,-1,1,-6,1,-10,1,-6,1,-6,1,-21,1
1435,9,1,-1,1,-10,1,-4,1,9,1,-5,1,0,1,-4,1,-10,1,-6,1,-5,1,-20,1
1436,12,1,-1,1,-13,1,-5,1,12,1,-7,1,-1,1,-5,1,-10,1,-7,1,-5,1,-20,1
1437,11,1,0,1,-11,1,-5,1,11,1,-5,1,-1,1,-5,1,-10,1,-7,1,-5,1,-20,1
1438,13,1,-1,1,-14,1,-6,1,13,1,-7,1,-3,1,-5,1,-9,1,-8,1,-5,1,-21,1
1439,11,1,-1,1,-12,1,-5,1,11,1,-6,1,-2,1,-5,1,-10,1,-8,1,-6,1,-22,1
1440,12,1,-2,1,-14,1,-5,1,13,1,-8,1,-2,1,-5,1,-10,1,-8,1,-6,1,-22,1
1441,12,1,-1,1,-13,1,-5,1,12,1,-7,1,-1,1,-4,1,-10,1,-8,1,-7,1,-22,1
1442,11,1,-2,1,-13,1,-4,1,12,1,-7,1,0,1,-3,1,-9,1,-7,1,-5,1,-21,1
1443,10,1,-2,1,-12,1,-4,1,11,1,-7,1,-2,1,-4,1,-10,1,-8,1,-6,1,-22,1
1444,13,1,-2,1,-15,1,-5,1,14,1,-8,1,-2,1,-5,1,-11,1,-9,1,-8,1,-22,1
1445,13,1,-3,1,-16,1,-5,1,14,1,-9,1,-2,1,-5,1,-11,1,-10,1,-8,1,-22,1
1446,12,1,-1,1,-13,1,-5,1,12,1,-7,1,-4,1,-6,1,-11,1,-10,1,-8,1,-22,1
1447,12,1,0,1,-12,1,-6,1,12,1,-6,1,-4,1,-6,1,-10,1,-8,1,-8,1,-20,1
1448,12,1,0,1,-12,1,-6,1,12,1,-6,1,-3,1,-4,1,-9,1,-7,1,-7,1,-20,1
1449,16,1,0,1,-16,1,-8,1,16,1,-8,1,-3,1,-5,1,-11,1,-8,1,-8,1,-21,1
1450,13,1,0,1,-13,1,-6,1,13,1,-6,1,-3,1,-6,1,-11,1,-10,1,-10,1,-22,1
1451,13,1,0,1,-13,1,-6,1,13,1,-6,1,-2,1,-6,1,-11,1,-10,1,-10,1,-21,1
1452,15,1,0,1,-15,1,-7,1,15,1,-7,1,-2,1,-6,1,-9,1,-8,1,-8,1,-21,1
1453,13,1,-1,1,-14,1,-6,1,13,1,-7,1,-2,1,-6,1,-10,1,-8,1,-8,1,-21,1
1454,10,1,0,1,-10,1,-5,1,10,1,-5,1,-1,1,-4,1,-8,1,-6,1,-7,1,-20,1
1455,11,1,0,1,-11,1,-5,1,11,1,-5,1,0,1,-3,1,-6,1,-4,1,-5,1,-19,1
1456,11,1,-1,1,-12,1,-5,1,11,1,-6,1,-1,1,-4,1,-8,1,-6,1,-7,1,-20,1
1457,10,1,-1,1,-11,1,-4,1,10,1,-6,1,-1,1,-5,1,-10,1,-7,1,-8,1,-21,1
1458,12,1,0,1,-12,1,-6,1,12,1,-6,1,-3,1,-5,1,-10,1,-8,1,-10,1,-21,1
1459,12,1,0,1,-12,1,-6,1,12,1,-6,1,-3,1,-5,1,-10,1,-8,1,-9,1,-22,1
1460,15,1,0,1,-15,1,-7,1,15,1,-7,1,-3,1,-6,1,-11,1,-10,1,-12,1,-23,1
1461,16,1,-1,1,-17,1,-7,1,16,1,-9,1,-3,1,-7,1,-11,1,-10,1,-12,1,-22,1
1462,17,1,0,1,-17,1,-8,1,17,1,-8,1,-5,1,-9,1,-13,1,-12,1,-14,1,-24,1
1463,8,1,-3,1,-11,1,-2,1,9,1,-7,1,-3,1,-5,1,-9,1,-9,1,-10,1,-20,1
1464,15,1,-1,1,-16,1,-7,1,15,1,-8,1,-4,1,-6,1,-11,1,-11,1,-11,1,-22,1
1465,12,1,-3,1,-15,1,-4,1,13,1,-9,1,-4,1,-5,1,-9,1,-9,1,-10,1,-21,1
1466,4,1,-3,1,-7,1,0,1,5,1,-5,1,-1,1,-4,1,-8,1,-8,1,-9,1,-19,1
1467,14,1,-1,1,-15,1,-6,1,14,1,-8,1,-4,1,-7,1,-10,1,-10,1,-11,1,-23,1
1468,15,1,-2,1,-17,1,-6,1,16,1,-9,1,-5,1,-7,1,-11,1,-10,1,-11,1,-22,1
1469,17,1,0,1,-17,1,-8,1,17,1,-8,1,-4,1,-5,1,-9,1,-8,1,-10,1,-20,1
1470,11,1,-1,1,-12,1,-5,1,11,1,-6,1,-2,1,-4,1,-9,1,-8,1,-9,1,-20,1
1471,13,1,0,1,-13,1,-6,1,13,1,-6,1,-4,1,-6,1,-10,1,-9,1,-11,1,-21,1
1472,12,1,-1,1,-13,1,-5,1,12,1,-7,1,-4,1,-7,1,-12,1,-10,1,-12,1,-23,1
1473,10,1,-2,1,-12,1,-4,1,11,1,-7,1,-2,1,-7,1,-12,1,-10,1,-11,1,-22,1
1474,12,1,-2,1,-14,1,-5,1,13,1,-8,1,-4,1,-7,1,-11,1,-9,1,-11,1,-22,1
1475,9,1,-1,1,-10,1,-4,1,9,1,-5,1,-2,1,-5,1,-9,1,-8,1,-9,1,-20,1
1476,14,1,-2,1,-16,1,-6,1,15,1,-9,1,-4,1,-5,1,-9,1,-9,1,-9,1,-20,1
1477,19,1,0,1,-19,1,-9,1,19,1,-9,1,-6,1,-7,1,-12,1,-11,1,-12,1,-23,1
1478,16,1,0,1,-16,1,-8,1,16,1,-8,1,-5,1,-7,1,-12,1,-11,1,-11,1,-22,1
1479,11,1,0,1,-11,1,-5,1,11,1,-5,1,-1,1,-4,1,-9,1,-8,1,-9,1,-19,1
1480,13,1,-1,1,-14,1,-6,1,13,1,-7,1,-1,1,-5,1,-11,1,-9,1,-10,1,-20,1
1481,12,1,-3,1,-15,1,-4,1,13,1,-9,1,-2,1,-6,1,-11,1,-9,1,-10,1,-21,1
1482,11,1,-1,1,-12,1,-5,1,11,1,-6,1,-3,1,-8,1,-12,1,-12,1,-12,1,-22,1
1483,13,1,1,1,-12,1,-7,1,13,1,-5,1,-4,1,-8,1,-12,1,-11,1,-12,1,-22,1
1484,15,1,-1,1,-16,1,-7,1,15,1,-8,1,-3,1,-7,1,-10,1,-9,1,-11,1,-21,1
1485,14,1,-1,1,-15,1,-6,1,14,1,-8,1,-2,1,-6,1,-10,1,-10,1,-11,1,-21,1
1486,13,1,-2,1,-15,1,-5,1,14,1,-8,1,-4,1,-8,1,-10,1,-10,1,-12,1,-21,1
1487,15,1,-1,1,-16,1,-7,1,15,1,-8,1,-4,1,-8,1,-11,1,-12,1,-12,1,-22,1
1488,10,1,-1,1,-11,1,-4,1,10,1,-6,1,-3,1,-6,1,-8,1,-8,1,-9,1,-20,1
1489,16,1,0,1,-16,1,-8,1,16,1,-8,1,-4,1,-8,1,-10,1,-10,1,-11,1,-21,1
1490,9,1,-2,1,-11,1,-3,1,10,1,-6,1,-1,1,-7,1,-10,1,-10,1,-9,1,-20,1
1491,9,1,-2,1,-11,1,-3,1,10,1,-6,1,-1,1,-6,1,-11,1,-10,1,-9,1,-20,1
1492,9,1,-1,1,-10,1,-4,1,9,1,-5,1,-2,1,-6,1,-10,1,-10,1,-10,1,-21,1
1493,12,1,0,1,-12,1,-6,1,12,1,-6,1,-3,1,-7,1,-11,1,-11,1,-11,1,-22,1
1494,11,1,1,1,-10,1,-6,1,11,1,-4,1,-2,1,-6,1,-10,1,-9,1,-9,1,-20,1
1495,14,1,0,1,-14,1,-7,1,14,1,-7,1,-3,1,-7,1,-11,1,-10,1,-10,1,-21,1
1496,16,1,-1,1,-17,1,-7,1,16,1,-9,1,-3,1,-7,1,-11,1,-11,1,-11,1,-21,1
1497,16,1,-1,1,-17,1,-7,1,16,1,-9,1,-3,1,-6,1,-10,1,-10,1,-11,1,-21,1
1498,11,1,-3,1,-14,1,-4,1,12,1,-8,1,-1,1,-6,1,-9,1,-9,1,-8,1,-19,1
1499,14,1,-1,1,-15,1,-6,1,14,1,-8,1,-2,1,-6,1,-11,1,-9,1,-10,1,-21,1
1500,14,1,-2,1,-16,1,-6,1,15,1,-9,1,-3,1,-7,1,-12,1,-11,1,-12,1,-22,1
1501,14,1,0,1,-14,1,-7,1,14,1,-7,1,-3,1,-8,1,-12,1,-11,1,-13,1,-23,1
1502,15,1,0,1,-15,1,-7,1,15,1,-7,1,-3,1,-8,1,-13,1,-12,1,-13,1,-23,1
1503,12,1,-1,1,-13,1,-5,1,12,1,-7,1,-2,1,-7,1,-13,1,-11,1,-11,1,-22,1
1504,12,1,-2,1,-14,1,-5,1,13,1,-8,1,-3,1,-8,1,-11,1,-10,1,-10,1,-23,1
1505,13,1,-2,1,-15,1,-5,1,14,1,-8,1,-3,1,-6,1,-10,1,-9,1,-9,1,-21,1
1506,15,1,-3,1,-18,1,-6,1,16,1,-10,1,-3,1,-6,1,-10,1,-8,1,-8,1,-21,1
1507,16,1,-1,1,-17,1,-7,1,16,1,-9,1,-2,1,-6,1,-11,1,-9,1,-10,1,-22,1
1508,14,1,-2,1,-16,1,-6,1,15,1,-9,1,-1,1,-6,1,-11,1,-9,1,-8,1,-20,1
1509,14,1,-1,1,-15,1,-6,1,14,1,-8,1,-4,1,-9,1,-14,1,-11,1,-11,1,-23,1
1510,14,1,-1,1,-15,1,-6,1,14,1,-8,1,-4,1,-7,1,-11,1,-10,1,-9,1,-22,1
1511,15,1,-1,1,-16,1,-7,1,15,1,-8,1,-3,1,-7,1,-12,1,-11,1,-11,1,-23,1
1512,10,1,-1,1,-11,1,-4,1,10,1,-6,1,-1,1,-6,1,-9,1,-8,1,-8,1,-21,1
1513,11,1,-4,1,-15,1,-3,1,13,1,-9,1,-2,1,-7,1,-11,1,-9,1,-9,1,-22,1
1514,9,1,-2,1,-11,1,-3,1,10,1,-6,1,-2,1,-7,1,-11,1,-10,1,-10,1,-22,1
1515,11,1,-1,1,-12,1,-5,1,11,1,-6,1,-3,1,-6,1,-10,1,-9,1,-10,1,-21,1
1516,11,1,-1,1,-12,1,-5,1,11,1,-6,1,-3,1,-7,1,-11,1,-10,1,-9,1,-21,1
1517,15,1,2,1,-13,1,-8,1,14,1,-5,1,-4,1,-8,1,-12,1,-12,1,-11,1,-23,1
1518,13,1,-3,1,-16,1,-5,1,14,1,-9,1,-3,1,-6,1,-10,1,-9,1,-9,1,-21,1
1519,11,1,-4,1,-15,1,-3,1,13,1,-9,1,-1,1,-6,1,-10,1,-9,1,-10,1,-21,1
1520,16,1,-2,1,-18,1,-7,1,17,1,-10,1,-3,1,-8,1,-12,1,-12,1,-12,1,-23,1
1521,14,1,-2,1,-16,1,-6,1,15,1,-9,1,-2,1,-7,1,-12,1,-12,1,-12,1,-21,1
1522,8,1,-4,1,-12,1,-2,1,10,1,-8,1,0,1,-7,1,-12,1,-11,1,-11,1,-20,1
1523,9,1,-2,1,-11,1,-3,1,10,1,-6,1,-1,1,-6,1,-11,1,-10,1,-9,1,-20,1
1524,12,1,-1,1,-13,1,-5,1,12,1,-7,1,-1,1,-6,1,-11,1,-9,1,-9,1,-19,1
1525,14,1,-2,1,-16,1,-6,1,15,1,-9,1,-2,1,-6,1,-10,1,-9,1,-9,1,-20,1
1526,15,1,-1,1,-16,1,-7,1,15,1,-8,1,-5,1,-9,1,-13,1,-13,1,-12,1,-23,1
1527,16,1,0,1,-16,1,-8,1,16,1,-8,1,-3,1,-7,1,-11,1,-11,1,-10,1,-21,1
1528,14,1,-2,1,-16,1,-6,1,15,1,-9,1,-2,1,-5,1,-8,1,-10,1,-9,1,-20,1
1529,14,1,0,1,-14,1,-7,1,14,1,-7,1,-2,1,-6,1,-10,1,-10,1,-10,1,-20,1
1530,12,1,-1,1,-13,1,-5,1,12,1,-7,1,-2,1,-7,1,-10,1,-11,1,-11,1,-21,1
1531,12,1,-1,1,-13,1,-5,1,12,1,-7,1,-2,1,-7,1,-10,1,-10,1,-11,1,-21,1
1532,13,1,0,1,-13,1,-6,1,13,1,-6,1,-2,1,-7,1,-10,1,-10,1,-11,1,-21,1
1533,13,1,1,1,-12,1,-7,1,13,1,-5,1,-1,1,-6,1,-9,1,-9,1,-11,1,-21,1
1534,15,1,-1,1,-16,1,-7,1,15,1,-8,1,-1,1,-6,1,-10,1,-10,1,-11,1,-21,1
1535,15,1,0,1,-15,1,-7,1,15,1,-7,1,-2,1,-6,1,-9,1,-10,1,-10,1,-21,1
1536,15,1,4,1,-11,1,-9,1,13,1,-3,1,-3,1,-6,1,-8,1,-10,1,-9,1,-21,1
1537,19,1,4,1,-15,1,-11,1,17,1,-5,1,-1,1,-5,1,-8,1,-10,1,-9,1,-22,1
1538,18,1,4,1,-14,1,-11,1,16,1,-5,1,0,1,-4,1,-8,1,-8,1,-7,1,-19,1
1539,19,1,2,1,-17,1,-10,1,18,1,-7,1,0,1,-3,1,-7,1,-8,1,-7,1,-19,1
1540,21,1,5,1,-16,1,-13,1,19,1,-5,1,-1,1,-3,1,-7,1,-8,1,-7,1,-19,1
1541,22,1,5,1,-17,1,-13,1,20,1,-6,1,0,1,-2,1,-7,1,-8,1,-8,1,-20,1
1542,22,1,7,1,-15,1,-14,1,19,1,-4,1,0,1,-1,1,-6,1,-6,1,-8,1,-19,1
1543,21,1,7,1,-14,1,-14,1,18,1,-3,1,3,1,1,1,-3,1,-5,1,-6,1,-18,1
1544,23,1,9,1,-14,1,-16,1,19,1,-2,1,4,1,3,1,-1,1,-4,1,-5,1,-17,1
1545,29,1,10,1,-19,1,-19,1,24,1,-4,1,4,1,3,1,-1,1,-5,1,-5,1,-18,1
1546,25,1,11,1,-14,1,-18,1,20,1,-1,1,6,1,5,1,0,1,-2,1,-3,1,-17,1
1547,18,1,10,1,-8,1,-14,1,13,1,1,1,10,1,9,1,3,1,0,1,0,1,-12,1
1548,21,1,12,1,-9,1,-16,1,15,1,2,1,9,1,8,1,3,1,1,1,-1,1,-15,1
1549,22,1,12,1,-10,1,-17,1,16,1,1,1,8,1,9,1,2,1,0,1,-1,1,-14,1
1550,24,1,13,1,-11,1,-18,1,18,1,1,1,6,1,7,1,1,1,0,1,-3,1,-16,1
1551,27,1,11,1,-16,1,-19,1,22,1,-2,1,8,1,9,1,2,1,1,1,-2,1,-15,1
1552,29,1,13,1,-16,1,-21,1,23,1,-1,1,9,1,10,1,3,1,1,1,-1,1,-13,1
1553,33,1,17,1,-16,1,-25,1,25,1,1,1,7,1,11,1,4,1,3,1,0,1,-12,1
1554,33,1,20,1,-13,1,-26,1,23,1,4,1,7,1,13,1,6,1,6,1,2,1,-10,1
1555,37,1,21,1,-16,1,-29,1,27,1,3,1,6,1,15,1,7,1,8,1,3,1,-9,1
1556,36,1,25,1,-11,1,-30,1,24,1,7,1,9,1,19,1,12,1,12,1,6,1,-6,1
1557,33,1,25,1,-8,1,-29,1,21,1,9,1,8,1,20,1,13,1,14,1,7,1,-4,1
1558,37,1,26,1,-11,1,-31,1,24,1,8,1,3,1,18,1,12,1,12,1,8,1,-5,1
1559,39,1,27,1,-12,1,-33,1,26,1,8,1,0,1,17,1,12,1,12,1,8,1,-6,1
1560,41,1,27,1,-14,1,-34,1,28,1,7,1,-3,1,15,1,10,1,10,1,7,1,-6,1
1561,40,1,25,1,-15,1,-32,1,28,1,5,1,-5,1,13,1,7,1,9,1,7,1,-7,1
1562,40,1,22,1,-18,1,-31,1,29,1,2,1,-4,1,10,1,4,1,6,1,4,1,-9,1
1563,39,1,17,1,-22,1,-28,1,31,1,-2,1,-7,1,5,1,0,1,3,1,1,1,-11,1
1564,38,1,16,1,-22,1,-27,1,30,1,-3,1,-10,1,1,1,0,1,0,1,1,1,-11,1
1565,35,1,15,1,-20,1,-25,1,28,1,-2,1,-11,1,-1,1,-2,1,0,1,0,1,-11,1
1566,36,1,15,1,-21,1,-25,1,29,1,-3,1,-12,1,-4,1,-4,1,-2,1,-1,1,-12,1
1567,30,1,14,1,-16,1,-22,1,23,1,-1,1,-11,1,-4,1,-4,1,-1,1,-1,1,-12,1
1568,35,1,12,1,-23,1,-23,1,29,1,-5,1,-13,1,-7,1,-8,1,-3,1,-4,1,-15,1
1569,38,1,10,1,-28,1,-24,1,33,1,-9,1,-14,1,-9,1,-10,1,-6,1,-6,1,-16,1
1570,37,1,8,1,-29,1,-22,1,33,1,-10,1,-12,1,-9,1,-11,1,-6,1,-8,1,-16,1
1571,34,1,6,1,-28,1,-20,1,31,1,-11,1,-12,1,-10,1,-12,1,-8,1,-9,1,-19,1
1572,32,1,4,1,-28,1,-18,1,30,1,-12,1,-14,1,-12,1,-14,1,-10,1,-11,1,-21,1
1573,27,1,4,1,-23,1,-15,1,25,1,-9,1,-11,1,-9,1,-12,1,-10,1,-10,1,-18,1
1574,24,1,3,1,-21,1,-13,1,23,1,-9,1,-10,1,-11,1,-12,1,-10,1,-11,1,-19,1
1575,26,1,3,1,-23,1,-14,1,25,1,-10,1,-10,1,-12,1,-14,1,-10,1,-12,1,-20,1
1576,28,1,3,1,-25,1,-15,1,27,1,-11,1,-10,1,-12,1,-14,1,-11,1,-12,1,-20,1
1577,23,1,3,1,-20,1,-13,1,22,1,-8,1,-10,1,-10,1,-12,1,-8,1,-12,1,-20,1
1578,19,1,3,1,-16,1,-11,1,18,1,-6,1,-6,1,-7,1,-10,1,-6,1,-9,1,-17,1
1579,21,1,1,1,-20,1,-11,1,21,1,-9,1,-6,1,-8,1,-10,1,-8,1,-10,1,-18,1
1580,17,1,1,1,-16,1,-9,1,17,1,-7,1,-8,1,-9,1,-11,1,-8,1,-11,1,-19,1
1581,13,1,1,1,-12,1,-7,1,13,1,-5,1,-5,1,-8,1,-11,1,-8,1,-12,1,-20,1
1582,11,1,1,1,-10,1,-6,1,11,1,-4,1,-4,1,-8,1,-10,1,-10,1,-11,1,-20,1
1583,12,1,-1,1,-13,1,-5,1,12,1,-7,1,-5,1,-10,1,-13,1,-13,1,-14,1,-22,1
1584,10,1,-3,1,-13,1,-3,1,11,1,-8,1,-4,1,-11,1,-14,1,-13,1,-13,1,-21,1
1585,12,1,-3,1,-15,1,-4,1,13,1,-9,1,-7,1,-14,1,-16,1,-15,1,-15,1,-22,1
1586,12,1,-3,1,-15,1,-4,1,13,1,-9,1,-7,1,-14,1,-16,1,-15,1,-15,1,-22,1
1587,12,1,-4,1,-16,1,-4,1,14,1,-10,1,-7,1,-14,1,-17,1,-15,1,-15,1,-23,1
1588,10,1,-7,1,-17,1,-1,1,13,1,-12,1,-8,1,-15,1,-17,1,-16,1,-16,1,-24,1
1589,12,1,-6,1,-18,1,-3,1,15,1,-12,1,-7,1,-14,1,-17,1,-16,1,-16,1,-24,1
1590,13,1,-3,1,-16,1,-5,1,14,1,-9,1,-8,1,-14,1,-18,1,-16,1,-17,1,-25,1
1591,14,1,-4,1,-18,1,-5,1,16,1,-11,1,-8,1,-14,1,-18,1,-16,1,-17,1,-25,1
1592,12,1,-6,1,-18,1,-3,1,15,1,-12,1,-6,1,-13,1,-18,1,-15,1,-16,1,-24,1
1593,11,1,-3,1,-14,1,-4,1,12,1,-8,1,-6,1,-13,1,-18,1,-15,1,-16,1,-24,1
1594,11,1,-1,1,-12,1,-5,1,11,1,-6,1,-5,1,-13,1,-16,1,-14,1,-15,1,-23,1
1595,9,1,-3,1,-12,1,-3,1,10,1,-7,1,-5,1,-13,1,-16,1,-14,1,-15,1,-23,1
1596,11,1,-4,1,-15,1,-3,1,13,1,-9,1,-7,1,-15,1,-16,1,-14,1,-14,1,-24,1
1597,11,1,-3,1,-14,1,-4,1,12,1,-8,1,-4,1,-14,1,-16,1,-14,1,-14,1,-23,1
1598,10,1,-5,1,-15,1,-2,1,12,1,-10,1,-4,1,-14,1,-16,1,-14,1,-16,1,-24,1
1599,9,1,-7,1,-16,1,-1,1,12,1,-11,1,-3,1,-13,1,-16,1,-14,1,-15,1,-24,1
1600,10,1,-6,1,-16,1,-2,1,13,1,-11,1,-5,1,-14,1,-16,1,-15,1,-16,1,-26,1
1601,10,1,-7,1,-17,1,-1,1,13,1,-12,1,-5,1,-15,1,-17,1,-15,1,-17,1,-25,1
1602,11,1,-6,1,-17,1,-2,1,14,1,-11,1,-5,1,-15,1,-18,1,-15,1,-16,1,-26,1
1603,10,1,-4,1,-14,1,-3,1,12,1,-9,1,-5,1,-14,1,-17,1,-14,1,-16,1,-26,1
1604,2,1,-4,1,-6,1,1,1,4,1,-5,1,-2,1,-10,1,-12,1,-11,1,-13,1,-22,1
1605,10,1,-6,1,-16,1,-2,1,13,1,-11,1,-5,1,-12,1,-15,1,-13,1,-15,1,-23,1
1606,10,1,-3,1,-13,1,-3,1,11,1,-8,1,-5,1,-12,1,-15,1,-12,1,-13,1,-23,1
1607,12,1,-3,1,-15,1,-4,1,13,1,-9,1,-7,1,-14,1,-17,1,-13,1,-14,1,-25,1
1608,8,1,-4,1,-12,1,-2,1,10,1,-8,1,-6,1,-13,1,-16,1,-13,1,-15,1,-25,1
1609,9,1,-5,1,-14,1,-2,1,11,1,-9,1,-6,1,-12,1,-16,1,-13,1,-16,1,-25,1
1610,12,1,-5,1,-17,1,-3,1,14,1,-11,1,-5,1,-12,1,-17,1,-14,1,-17,1,-26,1
1611,2,1,-6,1,-8,1,2,1,5,1,-7,1,0,1,-9,1,-14,1,-12,1,-14,1,-23,1
1612,6,1,-7,1,-13,1,0,1,9,1,-10,1,0,1,-10,1,-17,1,-17,1,-19,1,-26,1
1613,1,1,-6,1,-7,1,2,1,4,1,-6,1,5,1,-6,1,-14,1,-17,1,-17,1,-27,1
1614,-4,1,-3,1,1,1,3,1,-3,1,-1,1,9,1,-3,1,-12,1,-17,1,-18,1,-27,1
1615,-3,1,1,1,4,1,1,1,-3,1,2,1,14,1,0,1,-8,1,-16,1,-17,1,-28,1
1616,-3,1,6,1,9,1,-1,1,-6,1,7,1,19,1,13,1,2,1,-8,1,-12,1,-23,1
1617,-2,1,11,1,13,1,-4,1,-7,1,12,1,21,1,29,1,14,1,2,1,-5,1,-19,1
1618,-2,1,15,1,17,1,-6,1,-9,1,16,1,24,1,48,1,30,1,19,1,6,1,-10,1
1619,10,1,21,1,11,1,-15,1,0,1,16,1,20,1,70,1,47,1,38,1,21,1,-1,1
1620,24,1,37,1,13,1,-30,1,6,1,25,1,18,1,98,1,73,1,66,1,45,1,16,1
1621,35,1,59,1,24,1,-47,1,6,1,42,1,18,1,124,1,108,1,103,1,77,1,40,1
1622,52,1,82,1,30,1,-67,1,11,1,56,1,13,1,130,1,136,1,139,1,109,1,66,1
1623,76,1,108,1,32,1,-92,1,22,1,70,1,5,1,128,1,160,1,170,1,139,1,88,1
1624,98,1,127,1,29,1,-112,1,35,1,78,1,-5,1,125,1,183,1,203,1,172,1,113,1
1625,119,1,143,1,24,1,-131,1,48,1,84,1,-22,1,109,1,198,1,233,1,201,1,137,1
1626,144,1,154,1,10,1,-149,1,67,1,82,1,-51,1,92,1,208,1,260,1,226,1,156,1
1627,177,1,167,1,-10,1,-172,1,94,1,79,1,-85,1,73,1,220,1,289,1,254,1,178,1
1628,202,1,184,1,-18,1,-193,1,110,1,83,1,-111,1,66,1,238,1,323,1,283,1,200,1
1629,218,1,190,1,-28,1,-204,1,123,1,81,1,-129,1,61,1,256,1,347,1,300,1,209,1
1630,221,1,178,1,-43,1,-199,1,132,1,68,1,-144,1,48,1,258,1,352,1,301,1,205,1
1631,207,1,158,1,-49,1,-182,1,128,1,55,1,-155,1,11,1,229,1,330,1,285,1,194,1
1632,194,1,121,1,-73,1,-157,1,134,1,24,1,-155,1,-36,1,170,1,269,1,237,1,161,1
1633,177,1,75,1,-102,1,-126,1,140,1,-13,1,-153,1,-82,1,95,1,181,1,165,1,110,1
1634,157,1,26,1,-131,1,-91,1,144,1,-52,1,-151,1,-122,1,21,1,92,1,91,1,58,1
1635,127,1,-5,1,-132,1,-61,1,129,1,-68,1,-145,1,-165,1,-43,1,15,1,28,1,17,1
1636,97,1,-23,1,-120,1,-37,1,108,1,-71,1,-136,1,-205,1,-97,1,-49,1,-22,1,-17,1
1637,68,1,-30,1,-98,1,-19,1,83,1,-64,1,-123,1,-228,1,-128,1,-86,1,-50,1,-36,1
1638,42,1,-25,1,-67,1,-8,1,54,1,-46,1,-108,1,-229,1,-133,1,-96,1,-59,1,-43,1
1639,24,1,-18,1,-42,1,-3,1,33,1,-30,1,-97,1,-201,1,-115,1,-84,1,-52,1,-39,1
1640,15,1,-11,1,-26,1,-2,1,20,1,-18,1,-88,1,-172,1,-97,1,-70,1,-46,1,-36,1
1641,15,1,-10,1,-25,1,-2,1,20,1,-17,1,-84,1,-152,1,-90,1,-65,1,-42,1,-34,1
1642,13,1,-12,1,-25,1,0,1,19,1,-18,1,-81,1,-136,1,-86,1,-62,1,-40,1,-32,1
1643,12,1,-11,1,-23,1,0,1,17,1,-17,1,-71,1,-117,1,-78,1,-56,1,-37,1,-33,1
1644,10,1,-11,1,-21,1,0,1,15,1,-16,1,-58,1,-98,1,-68,1,-49,1,-33,1,-31,1
1645,11,1,-7,1,-18,1,-2,1,14,1,-12,1,-49,1,-79,1,-57,1,-41,1,-28,1,-30,1
1646,15,1,-4,1,-19,1,-5,1,17,1,-11,1,-39,1,-61,1,-46,1,-33,1,-25,1,-28,1
1647,16,1,-4,1,-20,1,-6,1,18,1,-12,1,-29,1,-48,1,-39,1,-29,1,-22,1,-28,1
1648,12,1,-5,1,-17,1,-3,1,14,1,-11,1,-20,1,-36,1,-32,1,-24,1,-19,1,-25,1
1649,7,1,-4,1,-11,1,-1,1,9,1,-7,1,-16,1,-29,1,-28,1,-22,1,-18,1,-26,1
1650,12,1,-5,1,-17,1,-3,1,14,1,-11,1,-16,1,-27,1,-30,1,-24,1,-20,1,-28,1
1651,13,1,-7,1,-20,1,-3,1,16,1,-13,1,-15,1,-22,1,-29,1,-23,1,-20,1,-28,1
1652,11,1,-7,1,-18,1,-2,1,14,1,-12,1,-14,1,-21,1,-28,1,-23,1,-20,1,-29,1
1653,12,1,-5,1,-17,1,-3,1,14,1,-11,1,-10,1,-20,1,-27,1,-22,1,-20,1,-28,1
1654,12,1,-5,1,-17,1,-3,1,14,1,-11,1,-6,1,-20,1,-28,1,-25,1,-21,1,-29,1
1655,10,1,-4,1,-14,1,-3,1,12,1,-9,1,-6,1,-19,1,-27,1,-23,1,-21,1,-29,1
1656,11,1,-4,1,-15,1,-3,1,13,1,-9,1,-6,1,-18,1,-27,1,-24,1,-21,1,-29,1
1657,10,1,-4,1,-14,1,-3,1,12,1,-9,1,-7,1,-18,1,-27,1,-24,1,-21,1,-29,1
1658,10,1,-4,1,-14,1,-3,1,12,1,-9,1,-6,1,-17,1,-27,1,-24,1,-21,1,-29,1
1659,9,1,-7,1,-16,1,-1,1,12,1,-11,1,-4,1,-16,1,-26,1,-25,1,-22,1,-31,1
1660,12,1,-7,1,-19,1,-2,1,15,1,-13,1,-5,1,-16,1,-26,1,-25,1,-22,1,-30,1
1661,11,1,-5,1,-16,1,-3,1,13,1,-10,1,-4,1,-16,1,-27,1,-25,1,-23,1,-30,1
1662,5,1,-9,1,-14,1,2,1,9,1,-11,1,-2,1,-12,1,-23,1,-22,1,-21,1,-28,1
1663,4,1,-8,1,-12,1,2,1,8,1,-10,1,-3,1,-13,1,-24,1,-24,1,-22,1,-30,1
1664,4,1,-8,1,-12,1,2,1,8,1,-10,1,-1,1,-12,1,-24,1,-25,1,-24,1,-30,1
1665,9,1,-7,1,-16,1,-1,1,12,1,-11,1,-3,1,-13,1,-25,1,-25,1,-23,1,-30,1
1666,8,1,-5,1,-13,1,-1,1,10,1,-9,1,-3,1,-12,1,-23,1,-21,1,-20,1,-29,1
1667,12,1,-3,1,-15,1,-4,1,13,1,-9,1,-3,1,-12,1,-23,1,-21,1,-21,1,-31,1
1668,12,1,-3,1,-15,1,-4,1,13,1,-9,1,-5,1,-11,1,-23,1,-23,1,-23,1,-31,1
1669,9,1,-7,1,-16,1,-1,1,12,1,-11,1,-1,1,-9,1,-22,1,-22,1,-22,1,-30,1
1670,5,1,-8,1,-13,1,1,1,9,1,-10,1,2,1,-7,1,-22,1,-21,1,-22,1,-29,1
1671,6,1,-6,1,-12,1,0,1,9,1,-9,1,0,1,-8,1,-22,1,-21,1,-23,1,-31,1
1672,8,1,-6,1,-14,1,-1,1,11,1,-10,1,-1,1,-9,1,-23,1,-22,1,-25,1,-31,1
1673,4,1,-7,1,-11,1,1,1,7,1,-9,1,1,1,-8,1,-23,1,-23,1,-24,1,-29,1
1674,7,1,-5,1,-12,1,-1,1,9,1,-8,1,0,1,-9,1,-23,1,-23,1,-25,1,-30,1
1675,14,1,-5,1,-19,1,-4,1,16,1,-12,1,-1,1,-9,1,-23,1,-23,1,-23,1,-30,1
1676,11,1,-6,1,-17,1,-2,1,14,1,-11,1,-1,1,-9,1,-23,1,-23,1,-23,1,-29,1
1677,13,1,-5,1,-18,1,-4,1,15,1,-11,1,0,1,-9,1,-22,1,-23,1,-22,1,-29,1
1678,5,1,-5,1,-10,1,0,1,7,1,-7,1,1,1,-7,1,-20,1,-20,1,-20,1,-26,1
1679,7,1,-5,1,-12,1,-1,1,9,1,-8,1,1,1,-7,1,-21,1,-22,1,-21,1,-28,1
1680,9,1,-5,1,-14,1,-2,1,11,1,-9,1,0,1,-7,1,-22,1,-23,1,-22,1,-29,1
1681,10,1,-6,1,-16,1,-2,1,13,1,-11,1,0,1,-7,1,-22,1,-23,1,-23,1,-29,1
1682,8,1,-4,1,-12,1,-2,1,10,1,-8,1,0,1,-8,1,-21,1,-23,1,-24,1,-29,1
1683,7,1,-3,1,-10,1,-2,1,8,1,-6,1,-1,1,-7,1,-20,1,-22,1,-23,1,-29,1
1684,9,1,-4,1,-13,1,-2,1,11,1,-8,1,-1,1,-6,1,-20,1,-22,1,-21,1,-27,1
1685,9,1,-6,1,-15,1,-1,1,12,1,-10,1,0,1,-7,1,-20,1,-23,1,-22,1,-28,1
1686,14,1,-3,1,-17,1,-5,1,15,1,-10,1,-1,1,-8,1,-22,1,-23,1,-23,1,-30,1
1687,7,1,-2,1,-9,1,-2,1,8,1,-5,1,1,1,-6,1,-20,1,-21,1,-22,1,-28,1
1688,10,1,-4,1,-14,1,-3,1,12,1,-9,1,0,1,-8,1,-20,1,-22,1,-23,1,-27,1
1689,6,1,-5,1,-11,1,0,1,8,1,-8,1,2,1,-5,1,-17,1,-20,1,-21,1,-26,1
1690,6,1,-3,1,-9,1,-1,1,7,1,-6,1,2,1,-5,1,-19,1,-20,1,-22,1,-25,1
1691,8,1,-3,1,-11,1,-2,1,9,1,-7,1,1,1,-7,1,-21,1,-23,1,-23,1,-27,1
1692,11,1,-3,1,-14,1,-4,1,12,1,-8,1,0,1,-7,1,-21,1,-23,1,-23,1,-27,1
1693,15,1,-4,1,-19,1,-5,1,17,1,-11,1,-2,1,-8,1,-22,1,-22,1,-24,1,-27,1
1694,11,1,-4,1,-15,1,-3,1,13,1,-9,1,1,1,-4,1,-20,1,-19,1,-21,1,-26,1
1695,7,1,-3,1,-10,1,-2,1,8,1,-6,1,2,1,-4,1,-18,1,-17,1,-20,1,-25,1
1696,8,1,-4,1,-12,1,-2,1,10,1,-8,1,0,1,-4,1,-18,1,-17,1,-20,1,-25,1
1697,7,1,-1,1,-8,1,-3,1,7,1,-4,1,1,1,-4,1,-18,1,-18,1,-21,1,-24,1
1698,11,1,-1,1,-12,1,-5,1,11,1,-6,1,1,1,-3,1,-18,1,-17,1,-21,1,-25,1
1699,9,1,-6,1,-15,1,-1,1,12,1,-10,1,2,1,-3,1,-16,1,-16,1,-21,1,-25,1
1700,9,1,-5,1,-14,1,-2,1,11,1,-9,1,2,1,-3,1,-17,1,-17,1,-20,1,-25,1
1701,9,1,-4,1,-13,1,-2,1,11,1,-8,1,2,1,-1,1,-16,1,-16,1,-20,1,-25,1
1702,8,1,-2,1,-10,1,-3,1,9,1,-6,1,1,1,-1,1,-16,1,-16,1,-20,1,-24,1
1703,15,1,-2,1,-17,1,-6,1,16,1,-9,1,0,1,-3,1,-19,1,-18,1,-22,1,-25,1
1704,17,1,-1,1,-18,1,-8,1,17,1,-9,1,1,1,-1,1,-18,1,-16,1,-20,1,-23,1
1705,7,1,-2,1,-9,1,-2,1,8,1,-5,1,3,1,0,1,-13,1,-13,1,-16,1,-20,1
1706,12,1,-3,1,-15,1,-4,1,13,1,-9,1,0,1,-1,1,-15,1,-15,1,-18,1,-23,1
1707,13,1,-2,1,-15,1,-5,1,14,1,-8,1,-1,1,-1,1,-15,1,-15,1,-18,1,-22,1
1708,14,1,-2,1,-16,1,-6,1,15,1,-9,1,-1,1,0,1,-16,1,-15,1,-18,1,-23,1
1709,13,1,-1,1,-14,1,-6,1,13,1,-7,1,-1,1,-1,1,-18,1,-16,1,-20,1,-24,1
1710,10,1,-1,1,-11,1,-4,1,10,1,-6,1,-1,1,0,1,-17,1,-16,1,-19,1,-24,1
1711,12,1,-4,1,-16,1,-4,1,14,1,-10,1,0,1,0,1,-17,1,-15,1,-19,1,-23,1
1712,15,1,-1,1,-16,1,-7,1,15,1,-8,1,-1,1,-1,1,-18,1,-17,1,-21,1,-25,1
1713,14,1,-2,1,-16,1,-6,1,15,1,-9,1,-2,1,0,1,-17,1,-15,1,-19,1,-24,1
1714,14,1,-3,1,-17,1,-5,1,15,1,-10,1,-3,1,0,1,-17,1,-15,1,-19,1,-23,1
1715,15,1,-2,1,-17,1,-6,1,16,1,-9,1,-1,1,1,1,-16,1,-14,1,-18,1,-23,1
1716,16,1,1,1,-15,1,-8,1,16,1,-7,1,-2,1,1,1,-15,1,-14,1,-18,1,-23,1
1717,16,1,1,1,-15,1,-8,1,16,1,-7,1,-3,1,0,1,-17,1,-14,1,-18,1,-23,1
1718,13,1,0,1,-13,1,-6,1,13,1,-6,1,-2,1,1,1,-16,1,-13,1,-17,1,-21,1
1719,13,1,0,1,-13,1,-6,1,13,1,-6,1,-2,1,1,1,-16,1,-13,1,-17,1,-21,1
1720,14,1,0,1,-14,1,-7,1,14,1,-7,1,-4,1,1,1,-17,1,-13,1,-18,1,-22,1
1721,17,1,1,1,-16,1,-9,1,17,1,-7,1,-2,1,2,1,-16,1,-11,1,-17,1,-21,1
1722,12,1,1,1,-11,1,-6,1,12,1,-5,1,-1,1,3,1,-15,1,-10,1,-14,1,-19,1
1723,16,1,2,1,-14,1,-9,1,15,1,-6,1,-3,1,2,1,-16,1,-11,1,-15,1,-20,1
1724,15,1,-1,1,-16,1,-7,1,15,1,-8,1,-3,1,4,1,-14,1,-11,1,-15,1,-19,1
1725,17,1,-2,1,-19,1,-7,1,18,1,-10,1,-3,1,4,1,-14,1,-11,1,-16,1,-19,1
1726,19,1,0,1,-19,1,-9,1,19,1,-9,1,-4,1,4,1,-14,1,-10,1,-15,1,-19,1
1727,18,1,3,1,-15,1,-10,1,17,1,-6,1,-4,1,4,1,-14,1,-8,1,-12,1,-18,1
1728,16,1,2,1,-14,1,-9,1,15,1,-6,1,-4,1,4,1,-14,1,-8,1,-12,1,-18,1
1729,24,1,2,1,-22,1,-13,1,23,1,-10,1,-6,1,2,1,-17,1,-11,1,-15,1,-20,1
1730,19,1,3,1,-16,1,-11,1,18,1,-6,1,-6,1,4,1,-14,1,-9,1,-13,1,-18,1
1731,13,1,3,1,-10,1,-8,1,12,1,-3,1,-2,1,8,1,-11,1,-5,1,-10,1,-16,1
1732,16,1,3,1,-13,1,-9,1,15,1,-5,1,-4,1,8,1,-11,1,-6,1,-11,1,-16,1
1733,17,1,3,1,-14,1,-10,1,16,1,-5,1,-4,1,8,1,-12,1,-6,1,-11,1,-15,1
1734,17,1,6,1,-11,1,-11,1,14,1,-2,1,-6,1,8,1,-12,1,-6,1,-11,1,-16,1
1735,19,1,5,1,-14,1,-12,1,17,1,-4,1,-6,1,8,1,-12,1,-5,1,-11,1,-16,1
1736,19,1,6,1,-13,1,-12,1,16,1,-3,1,-6,1,9,1,-12,1,-3,1,-9,1,-15,1
1737,19,1,6,1,-13,1,-12,1,16,1,-3,1,-7,1,8,1,-12,1,-3,1,-8,1,-14,1
1738,22,1,5,1,-17,1,-13,1,20,1,-6,1,-8,1,8,1,-14,1,-5,1,-10,1,-15,1
1739,22,1,5,1,-17,1,-13,1,20,1,-6,1,-8,1,8,1,-13,1,-5,1,-9,1,-14,1
1740,15,1,7,1,-8,1,-11,1,12,1,0,1,-5,1,12,1,-9,1,-1,1,-6,1,-11,1
1741,20,1,8,1,-12,1,-14,1,16,1,-2,1,-7,1,11,1,-10,1,-2,1,-7,1,-12,1
1742,22,1,7,1,-15,1,-14,1,19,1,-4,1,-8,1,12,1,-9,1,-1,1,-6,1,-10,1
1743,22,1,6,1,-16,1,-14,1,19,1,-5,1,-8,1,12,1,-9,1,-1,1,-6,1,-10,1
1744,22,1,8,1,-14,1,-15,1,18,1,-3,1,-9,1,11,1,-9,1,-1,1,-6,1,-11,1
1745,24,1,11,1,-13,1,-17,1,19,1,-1,1,-10,1,12,1,-9,1,0,1,-5,1,-11,1
1746,23,1,10,1,-13,1,-16,1,18,1,-1,1,-9,1,13,1,-8,1,2,1,-2,1,-9,1
1747,23,1,13,1,-10,1,-18,1,17,1,2,1,-9,1,13,1,-9,1,2,1,-2,1,-8,1
1748,23,1,14,1,-9,1,-18,1,16,1,3,1,-10,1,13,1,-8,1,3,1,0,1,-7,1
1749,25,1,15,1,-10,1,-20,1,18,1,3,1,-10,1,15,1,-7,1,6,1,1,1,-6,1
1750,29,1,18,1,-11,1,-23,1,20,1,4,1,-11,1,14,1,-7,1,5,1,1,1,-6,1
1751,30,1,15,1,-15,1,-22,1,23,1,0,1,-13,1,13,1,-8,1,5,1,0,1,-7,1
1752,20,1,14,1,-6,1,-17,1,13,1,4,1,-10,1,16,1,-5,1,7,1,3,1,-3,1
1753,27,1,16,1,-11,1,-21,1,19,1,3,1,-11,1,15,1,-7,1,6,1,3,1,-4,1
1754,30,1,18,1,-12,1,-24,1,21,1,3,1,-13,1,15,1,-6,1,8,1,4,1,-3,1
1755,31,1,19,1,-12,1,-25,1,22,1,4,1,-14,1,15,1,-6,1,8,1,4,1,-4,1
1756,31,1,17,1,-14,1,-24,1,23,1,2,1,-16,1,14,1,-7,1,7,1,4,1,-4,1
1757,30,1,17,1,-13,1,-23,1,22,1,2,1,-18,1,14,1,-7,1,7,1,4,1,-3,1
1758,30,1,17,1,-13,1,-23,1,22,1,2,1,-18,1,16,1,-6,1,9,1,6,1,0,1
1759,32,1,21,1,-11,1,-26,1,22,1,5,1,-18,1,15,1,-5,1,9,1,6,1,0,1
1760,30,1,22,1,-8,1,-26,1,19,1,7,1,-17,1,16,1,-5,1,10,1,7,1,1,1
1761,36,1,21,1,-15,1,-28,1,26,1,3,1,-19,1,15,1,-6,1,9,1,6,1,1,1
1762,36,1,22,1,-14,1,-29,1,25,1,4,1,-20,1,14,1,-6,1,9,1,6,1,0,1
1763,31,1,22,1,-9,1,-26,1,20,1,7,1,-20,1,15,1,-6,1,10,1,8,1,2,1
1764,37,1,26,1,-11,1,-31,1,24,1,8,1,-21,1,14,1,-7,1,10,1,10,1,3,1
1765,43,1,28,1,-15,1,-35,1,29,1,7,1,-21,1,13,1,-8,1,10,1,10,1,3,1
1766,36,1,25,1,-11,1,-30,1,24,1,7,1,-21,1,13,1,-7,1,11,1,11,1,4,1
1767,39,1,26,1,-13,1,-32,1,26,1,7,1,-23,1,12,1,-8,1,11,1,12,1,5,1
1768,42,1,27,1,-15,1,-34,1,29,1,6,1,-25,1,10,1,-9,1,9,1,10,1,4,1
1769,35,1,29,1,-6,1,-32,1,21,1,12,1,-25,1,10,1,-9,1,10,1,12,1,6,1
1770,39,1,27,1,-12,1,-33,1,26,1,8,1,-26,1,9,1,-10,1,9,1,12,1,6,1
1771,42,1,26,1,-16,1,-34,1,29,1,5,1,-27,1,8,1,-11,1,8,1,10,1,5,1
1772,42,1,27,1,-15,1,-34,1,29,1,6,1,-26,1,8,1,-11,1,8,1,11,1,6,1
1773,35,1,27,1,-8,1,-31,1,22,1,10,1,-25,1,10,1,-10,1,11,1,14,1,10,1
1774,44,1,27,1,-17,1,-35,1,31,1,5,1,-26,1,5,1,-14,1,8,1,11,1,8,1
1775,43,1,28,1,-15,1,-35,1,29,1,7,1,-26,1,4,1,-14,1,8,1,11,1,6,1
