TS,I,If,II,IIf,III,IIIf,aVR,aVRf,aVL,aVLf,aVF,aVFf,V1,V1f,V2,V2f,V3,V3f,V4,V4f,V5,V5f,V6,V6f
1,-14,1,-8,1,6,1,11,1,-10,1,-1,1,-12,1,-1,1,-5,1,-12,1,-10,1,-14,1
2,-17,1,-6,1,11,1,11,1,-14,1,2,1,-14,1,-6,1,-8,1,-15,1,-11,1,-16,1
3,-21,1,-3,1,18,1,12,1,-20,1,7,1,-16,1,-10,1,-10,1,-18,1,-13,1,-18,1
4,-17,1,-2,1,15,1,9,1,-16,1,6,1,-13,1,-8,1,-8,1,-14,1,-10,1,-16,1
5,-11,1,-6,1,5,1,8,1,-8,1,-1,1,-9,1,-3,1,-3,1,-10,1,-6,1,-12,1
6,-4,1,-9,1,-5,1,6,1,0,1,-7,1,-8,1,4,1,1,1,-6,1,-4,1,-8,1
7,0,1,-11,1,-11,1,5,1,5,1,-11,1,-5,1,9,1,4,1,-3,1,-3,1,-5,1
8,3,1,-14,1,-17,1,5,1,10,1,-15,1,-3,1,14,1,6,1,-2,1,-2,1,-4,1
9,1,1,-15,1,-16,1,7,1,8,1,-15,1,-5,1,13,1,5,1,-4,1,-4,1,-6,1
10,-4,1,-12,1,-8,1,8,1,2,1,-10,1,-8,1,8,1,0,1,-7,1,-6,1,-9,1
11,-15,1,-13,1,2,1,14,1,-9,1,-6,1,-14,1,-2,1,-6,1,-13,1,-10,1,-16,1
12,-20,1,-10,1,10,1,15,1,-15,1,0,1,-15,1,-7,1,-8,1,-15,1,-11,1,-17,1
13,-20,1,-5,1,15,1,12,1,-18,1,5,1,-15,1,-11,1,-10,1,-17,1,-12,1,-19,1
14,-16,1,-3,1,13,1,9,1,-15,1,5,1,-12,1,-8,1,-7,1,-14,1,-9,1,-15,1
15,-10,1,-6,1,4,1,8,1,-7,1,-1,1,-9,1,-3,1,-3,1,-10,1,-6,1,-12,1
16,-1,1,-7,1,-6,1,4,1,2,1,-7,1,-6,1,4,1,2,1,-5,1,-3,1,-8,1
17,4,1,-9,1,-13,1,2,1,8,1,-11,1,-3,1,9,1,5,1,-3,1,-2,1,-6,1
18,9,1,-11,1,-20,1,1,1,14,1,-15,1,-2,1,14,1,9,1,-1,1,-1,1,-3,1
19,4,1,-13,1,-17,1,4,1,10,1,-15,1,-5,1,12,1,6,1,-3,1,-3,1,-6,1
20,-5,1,-12,1,-7,1,8,1,1,1,-10,1,-8,1,6,1,1,1,-8,1,-6,1,-9,1
21,-14,1,-10,1,4,1,12,1,-9,1,-3,1,-12,1,-1,1,-5,1,-12,1,-9,1,-14,1
22,-16,1,-7,1,9,1,11,1,-13,1,1,1,-13,1,-5,1,-6,1,-13,1,-8,1,-15,1
23,-18,1,-2,1,16,1,10,1,-17,1,7,1,-13,1,-9,1,-8,1,-15,1,-9,1,-17,1
24,-11,1,2,1,13,1,4,1,-12,1,7,1,-10,1,-5,1,-4,1,-11,1,-6,1,-12,1
25,-4,1,0,1,4,1,2,1,-4,1,2,1,-5,1,2,1,2,1,-5,1,-1,1,-7,1
26,4,1,0,1,-4,1,-2,1,4,1,-2,1,-1,1,11,1,9,1,0,1,3,1,-2,1
27,9,1,-1,1,-10,1,-4,1,9,1,-5,1,1,1,16,1,12,1,2,1,5,1,0,1
28,13,1,-4,1,-17,1,-4,1,15,1,-10,1,2,1,21,1,15,1,6,1,6,1,3,1
29,10,1,-5,1,-15,1,-2,1,12,1,-10,1,0,1,21,1,14,1,4,1,4,1,0,1
30,4,1,-3,1,-7,1,0,1,5,1,-5,1,-3,1,15,1,9,1,0,1,1,1,-3,1
31,-5,1,-1,1,4,1,3,1,-5,1,1,1,-7,1,7,1,3,1,-5,1,-2,1,-8,1
32,-10,1,2,1,12,1,4,1,-11,1,7,1,-8,1,2,1,2,1,-6,1,-2,1,-10,1
33,-13,1,7,1,20,1,3,1,-16,1,13,1,-8,1,0,1,1,1,-7,1,-1,1,-11,1
34,-9,1,11,1,20,1,-1,1,-14,1,15,1,-4,1,2,1,6,1,-3,1,2,1,-7,1
35,-1,1,11,1,12,1,-5,1,-6,1,11,1,-1,1,9,1,11,1,2,1,5,1,-2,1
36,9,1,11,1,2,1,-10,1,4,1,7,1,3,1,19,1,18,1,9,1,10,1,3,1
37,14,1,9,1,-5,1,-11,1,10,1,2,1,4,1,24,1,21,1,11,1,11,1,6,1
38,16,1,4,1,-12,1,-10,1,14,1,-4,1,6,1,27,1,23,1,13,1,11,1,8,1
39,12,1,2,1,-10,1,-7,1,11,1,-4,1,2,1,24,1,19,1,9,1,9,1,5,1
40,5,1,3,1,-2,1,-4,1,4,1,1,1,-3,1,17,1,13,1,4,1,4,1,0,1
41,-4,1,3,1,7,1,0,1,-5,1,5,1,-8,1,7,1,6,1,-2,1,0,1,-6,1
42,-6,1,7,1,13,1,0,1,-9,1,10,1,-13,1,0,1,2,1,-4,1,0,1,-7,1
43,-8,1,12,1,20,1,-2,1,-14,1,16,1,-18,1,-7,1,-1,1,-8,1,-1,1,-8,1
44,-4,1,13,1,17,1,-4,1,-10,1,15,1,-18,1,-8,1,-1,1,-8,1,-1,1,-8,1
45,2,1,9,1,7,1,-5,1,-2,1,8,1,-14,1,0,1,4,1,-3,1,1,1,-3,1
46,11,1,7,1,-4,1,-9,1,8,1,2,1,-9,1,9,1,11,1,3,1,5,1,1,1
47,16,1,5,1,-11,1,-10,1,14,1,-3,1,-7,1,16,1,16,1,6,1,8,1,3,1
48,20,1,1,1,-19,1,-10,1,20,1,-9,1,-5,1,22,1,19,1,8,1,9,1,5,1
49,17,1,0,1,-17,1,-8,1,17,1,-8,1,-7,1,21,1,17,1,7,1,8,1,4,1
50,11,1,1,1,-10,1,-6,1,11,1,-4,1,-10,1,15,1,12,1,2,1,4,1,0,1
51,2,1,2,1,0,1,-2,1,1,1,1,1,-16,1,6,1,4,1,-3,1,0,1,-6,1
52,-2,1,2,1,4,1,0,1,-3,1,3,1,-18,1,0,1,0,1,-7,1,-1,1,-8,1
53,-6,1,3,1,9,1,1,1,-7,1,6,1,-21,1,-7,1,-3,1,-10,1,-4,1,-11,1
54,-3,1,3,1,6,1,0,1,-4,1,4,1,-21,1,-6,1,-1,1,-8,1,-1,1,-8,1
55,2,1,1,1,-1,1,-1,1,2,1,0,1,-18,1,-2,1,2,1,-4,1,1,1,-5,1
56,11,1,-2,1,-13,1,-4,1,12,1,-7,1,-15,1,5,1,7,1,0,1,4,1,0,1
57,15,1,-4,1,-19,1,-5,1,17,1,-11,1,-12,1,11,1,10,1,3,1,5,1,2,1
58,17,1,-7,1,-24,1,-5,1,20,1,-15,1,-10,1,16,1,13,1,5,1,6,1,4,1
59,10,1,-10,1,-20,1,0,1,15,1,-15,1,-12,1,12,1,9,1,0,1,1,1,0,1
60,-1,1,-12,1,-11,1,6,1,5,1,-12,1,-15,1,5,1,3,1,-5,1,-3,1,-6,1
61,-10,1,-10,1,0,1,10,1,-5,1,-5,1,-18,1,-2,1,-2,1,-10,1,-6,1,-10,1
62,-15,1,-8,1,7,1,11,1,-11,1,-1,1,-18,1,-6,1,-4,1,-12,1,-7,1,-12,1
63,-19,1,-5,1,14,1,12,1,-17,1,4,1,-20,1,-11,1,-7,1,-14,1,-8,1,-14,1
64,-16,1,-4,1,12,1,10,1,-14,1,4,1,-17,1,-9,1,-5,1,-12,1,-7,1,-13,1
65,-10,1,-8,1,2,1,9,1,-6,1,-3,1,-15,1,-5,1,-2,1,-10,1,-6,1,-10,1
66,-2,1,-11,1,-9,1,6,1,3,1,-10,1,-12,1,0,1,2,1,-6,1,-4,1,-7,1
67,2,1,-14,1,-16,1,6,1,9,1,-15,1,-9,1,5,1,4,1,-5,1,-3,1,-5,1
68,5,1,-17,1,-22,1,6,1,13,1,-19,1,-8,1,10,1,5,1,-3,1,-3,1,-4,1
69,2,1,-18,1,-20,1,8,1,11,1,-19,1,-10,1,8,1,3,1,-5,1,-6,1,-6,1
70,-5,1,-16,1,-11,1,10,1,3,1,-14,1,-14,1,1,1,-2,1,-10,1,-9,1,-10,1
71,-15,1,-15,1,0,1,15,1,-8,1,-8,1,-17,1,-5,1,-6,1,-15,1,-11,1,-16,1
72,-20,1,-13,1,7,1,16,1,-14,1,-3,1,-19,1,-9,1,-10,1,-16,1,-12,1,-17,1
73,-22,1,-8,1,14,1,15,1,-18,1,3,1,-21,1,-14,1,-13,1,-19,1,-13,1,-19,1
74,-17,1,-6,1,11,1,11,1,-14,1,2,1,-19,1,-13,1,-10,1,-17,1,-11,1,-17,1
75,-11,1,-10,1,1,1,10,1,-6,1,-5,1,-15,1,-7,1,-5,1,-13,1,-8,1,-12,1
76,-4,1,-12,1,-8,1,8,1,2,1,-10,1,-13,1,0,1,0,1,-7,1,-5,1,-9,1
77,1,1,-15,1,-16,1,7,1,8,1,-15,1,-10,1,4,1,1,1,-5,1,-4,1,-7,1
78,3,1,-19,1,-22,1,8,1,12,1,-20,1,-9,1,9,1,4,1,-4,1,-4,1,-5,1
79,-2,1,-21,1,-19,1,11,1,8,1,-20,1,-11,1,7,1,2,1,-6,1,-5,1,-7,1
80,-7,1,-18,1,-11,1,12,1,2,1,-15,1,-13,1,2,1,-1,1,-9,1,-8,1,-11,1
81,-16,1,-16,1,0,1,16,1,-8,1,-8,1,-17,1,-5,1,-7,1,-14,1,-11,1,-15,1
82,-19,1,-14,1,5,1,16,1,-12,1,-5,1,-18,1,-10,1,-10,1,-17,1,-12,1,-16,1
83,-21,1,-11,1,10,1,16,1,-16,1,-1,1,-20,1,-15,1,-12,1,-19,1,-13,1,-19,1
84,-18,1,-9,1,9,1,13,1,-14,1,0,1,-17,1,-13,1,-10,1,-16,1,-10,1,-16,1
85,-12,1,-11,1,1,1,11,1,-7,1,-5,1,-14,1,-7,1,-6,1,-13,1,-8,1,-13,1
86,-2,1,-11,1,-9,1,6,1,3,1,-10,1,-9,1,0,1,1,1,-7,1,-4,1,-8,1
87,3,1,-12,1,-15,1,4,1,9,1,-13,1,-7,1,6,1,4,1,-4,1,-3,1,-6,1
88,3,1,-20,1,-23,1,8,1,13,1,-21,1,-6,1,10,1,6,1,-3,1,-1,1,-4,1
89,-2,1,-22,1,-20,1,12,1,9,1,-21,1,-8,1,8,1,3,1,-6,1,-4,1,-7,1
90,-6,1,-18,1,-12,1,12,1,3,1,-15,1,-12,1,2,1,-1,1,-11,1,-9,1,-12,1
91,-14,1,-15,1,-1,1,14,1,-7,1,-8,1,-16,1,-6,1,-7,1,-16,1,-12,1,-17,1
92,-20,1,-13,1,7,1,16,1,-14,1,-3,1,-17,1,-11,1,-10,1,-18,1,-12,1,-18,1
93,-21,1,-8,1,13,1,14,1,-17,1,2,1,-17,1,-14,1,-11,1,-19,1,-12,1,-20,1
94,-17,1,-6,1,11,1,11,1,-14,1,2,1,-16,1,-13,1,-9,1,-16,1,-10,1,-17,1
95,-13,1,-10,1,3,1,11,1,-8,1,-4,1,-14,1,-9,1,-6,1,-13,1,-8,1,-13,1
96,-5,1,-13,1,-8,1,9,1,1,1,-11,1,-8,1,-1,1,0,1,-7,1,-4,1,-9,1
97,0,1,-15,1,-15,1,7,1,7,1,-15,1,-5,1,4,1,3,1,-5,1,-4,1,-7,1
98,4,1,-18,1,-22,1,7,1,13,1,-20,1,-3,1,8,1,5,1,-2,1,-2,1,-5,1
99,0,1,-19,1,-19,1,9,1,9,1,-19,1,-5,1,7,1,3,1,-5,1,-5,1,-7,1
100,-6,1,-16,1,-10,1,11,1,2,1,-13,1,-8,1,1,1,-1,1,-9,1,-7,1,-11,1
101,-16,1,-14,1,2,1,15,1,-9,1,-6,1,-12,1,-5,1,-5,1,-14,1,-10,1,-14,1
102,-20,1,-9,1,11,1,14,1,-16,1,1,1,-12,1,-11,1,-7,1,-16,1,-9,1,-15,1
103,-22,1,-2,1,20,1,12,1,-21,1,9,1,-15,1,-13,1,-7,1,-15,1,-8,1,-15,1
104,-17,1,3,1,20,1,7,1,-18,1,11,1,-11,1,-6,1,0,1,-9,1,-3,1,-11,1
105,-7,1,4,1,11,1,1,1,-9,1,7,1,-7,1,10,1,13,1,2,1,5,1,-2,1
106,7,1,6,1,-1,1,-6,1,4,1,3,1,-3,1,33,1,29,1,17,1,17,1,8,1
107,20,1,5,1,-15,1,-12,1,18,1,-5,1,-2,1,62,1,48,1,31,1,25,1,14,1
108,34,1,6,1,-28,1,-20,1,31,1,-11,1,4,1,105,1,77,1,53,1,40,1,23,1
109,44,1,12,1,-32,1,-28,1,38,1,-10,1,7,1,148,1,108,1,77,1,58,1,32,1
110,51,1,20,1,-31,1,-35,1,41,1,-5,1,5,1,177,1,134,1,100,1,77,1,41,1
111,64,1,31,1,-33,1,-47,1,49,1,-1,1,-3,1,192,1,156,1,123,1,102,1,57,1
112,87,1,47,1,-40,1,-67,1,64,1,4,1,-8,1,215,1,187,1,157,1,136,1,81,1
113,119,1,62,1,-57,1,-90,1,88,1,3,1,-17,1,233,1,214,1,190,1,173,1,108,1
114,164,1,79,1,-85,1,-121,1,125,1,-3,1,-35,1,245,1,238,1,225,1,213,1,140,1
115,215,1,97,1,-118,1,-156,1,167,1,-10,1,-59,1,239,1,251,1,259,1,258,1,182,1
116,263,1,116,1,-147,1,-189,1,205,1,-15,1,-87,1,183,1,235,1,277,1,294,1,222,1
117,301,1,132,1,-169,1,-216,1,235,1,-18,1,-111,1,126,1,209,1,283,1,319,1,253,1
118,324,1,145,1,-179,1,-234,1,252,1,-17,1,-123,1,83,1,185,1,281,1,332,1,274,1
119,327,1,157,1,-170,1,-242,1,249,1,-6,1,-132,1,39,1,153,1,265,1,328,1,279,1
120,325,1,167,1,-158,1,-246,1,242,1,5,1,-151,1,-6,1,118,1,245,1,319,1,276,1
121,318,1,162,1,-156,1,-240,1,237,1,3,1,-175,1,-53,1,77,1,212,1,292,1,255,1
122,294,1,140,1,-154,1,-217,1,224,1,-7,1,-191,1,-108,1,19,1,152,1,234,1,208,1
123,257,1,105,1,-152,1,-181,1,205,1,-23,1,-201,1,-166,1,-51,1,74,1,154,1,146,1
124,196,1,69,1,-127,1,-132,1,162,1,-29,1,-184,1,-221,1,-112,1,-2,1,74,1,86,1
125,99,1,21,1,-78,1,-60,1,89,1,-28,1,-140,1,-265,1,-170,1,-85,1,-20,1,14,1
126,20,1,-18,1,-38,1,-1,1,29,1,-28,1,-102,1,-307,1,-227,1,-161,1,-98,1,-38,1
127,-22,1,-37,1,-15,1,29,1,-4,1,-26,1,-85,1,-329,1,-262,1,-204,1,-141,1,-65,1
128,-48,1,-56,1,-8,1,52,1,-20,1,-32,1,-72,1,-315,1,-262,1,-212,1,-157,1,-82,1
129,-66,1,-71,1,-5,1,68,1,-31,1,-38,1,-61,1,-286,1,-249,1,-210,1,-164,1,-97,1
130,-72,1,-76,1,-4,1,74,1,-34,1,-40,1,-57,1,-261,1,-234,1,-203,1,-162,1,-105,1
131,-73,1,-66,1,7,1,69,1,-40,1,-30,1,-56,1,-233,1,-209,1,-184,1,-146,1,-100,1
132,-67,1,-51,1,16,1,59,1,-42,1,-18,1,-53,1,-199,1,-177,1,-157,1,-123,1,-86,1
133,-63,1,-35,1,28,1,49,1,-46,1,-4,1,-47,1,-166,1,-145,1,-130,1,-101,1,-74,1
134,-54,1,-25,1,29,1,39,1,-42,1,2,1,-40,1,-136,1,-118,1,-107,1,-82,1,-62,1
135,-39,1,-24,1,15,1,31,1,-27,1,-5,1,-33,1,-109,1,-94,1,-86,1,-65,1,-49,1
136,-21,1,-22,1,-1,1,21,1,-10,1,-12,1,-21,1,-75,1,-65,1,-61,1,-45,1,-35,1
137,-12,1,-20,1,-8,1,16,1,-2,1,-14,1,-11,1,-46,1,-40,1,-39,1,-30,1,-23,1
138,-7,1,-21,1,-14,1,14,1,3,1,-18,1,-4,1,-27,1,-24,1,-27,1,-21,1,-16,1
139,-6,1,-21,1,-15,1,13,1,4,1,-18,1,-4,1,-19,1,-19,1,-23,1,-19,1,-15,1
140,-9,1,-16,1,-7,1,12,1,-1,1,-12,1,-7,1,-18,1,-18,1,-23,1,-19,1,-17,1
141,-19,1,-16,1,3,1,17,1,-11,1,-7,1,-9,1,-22,1,-21,1,-26,1,-21,1,-21,1
142,-22,1,-13,1,9,1,17,1,-16,1,-2,1,-10,1,-23,1,-21,1,-27,1,-20,1,-23,1
143,-25,1,-10,1,15,1,17,1,-20,1,2,1,-11,1,-26,1,-22,1,-28,1,-21,1,-26,1
144,-22,1,-8,1,14,1,15,1,-18,1,3,1,-6,1,-22,1,-18,1,-25,1,-17,1,-22,1
145,-17,1,-9,1,8,1,13,1,-13,1,-1,1,-2,1,-15,1,-12,1,-19,1,-14,1,-18,1
146,-7,1,-10,1,-3,1,8,1,-2,1,-7,1,3,1,-4,1,-3,1,-12,1,-9,1,-12,1
147,-3,1,-12,1,-9,1,7,1,3,1,-11,1,6,1,2,1,0,1,-9,1,-9,1,-10,1
148,0,1,-15,1,-15,1,7,1,7,1,-15,1,8,1,8,1,3,1,-7,1,-8,1,-10,1
149,-3,1,-17,1,-14,1,10,1,5,1,-16,1,6,1,8,1,2,1,-8,1,-9,1,-11,1
150,-9,1,-14,1,-5,1,11,1,-2,1,-10,1,2,1,3,1,-1,1,-12,1,-13,1,-15,1
151,-19,1,-14,1,5,1,16,1,-12,1,-5,1,-1,1,-3,1,-6,1,-16,1,-15,1,-20,1
152,-23,1,-12,1,11,1,17,1,-17,1,-1,1,-2,1,-6,1,-8,1,-17,1,-16,1,-21,1
153,-25,1,-8,1,17,1,16,1,-21,1,4,1,-4,1,-11,1,-9,1,-20,1,-17,1,-22,1
154,-21,1,-5,1,16,1,13,1,-19,1,5,1,0,1,-9,1,-6,1,-17,1,-14,1,-20,1
155,-15,1,-8,1,7,1,11,1,-11,1,-1,1,3,1,-3,1,0,1,-13,1,-11,1,-15,1
156,-6,1,-9,1,-3,1,7,1,-2,1,-6,1,8,1,5,1,6,1,-7,1,-7,1,-11,1
157,-1,1,-10,1,-9,1,5,1,4,1,-10,1,10,1,10,1,9,1,-4,1,-6,1,-9,1
158,1,1,-15,1,-16,1,7,1,8,1,-15,1,11,1,15,1,12,1,-2,1,-3,1,-6,1
159,-2,1,-17,1,-15,1,9,1,6,1,-16,1,10,1,15,1,12,1,-3,1,-5,1,-7,1
160,-7,1,-15,1,-8,1,11,1,0,1,-12,1,7,1,10,1,8,1,-7,1,-8,1,-11,1
161,-15,1,-14,1,1,1,14,1,-8,1,-7,1,3,1,2,1,2,1,-12,1,-11,1,-16,1
162,-19,1,-11,1,8,1,15,1,-14,1,-2,1,1,1,-2,1,0,1,-14,1,-12,1,-17,1
163,-22,1,-7,1,15,1,14,1,-19,1,4,1,0,1,-7,1,-2,1,-16,1,-12,1,-20,1
164,-19,1,-5,1,14,1,12,1,-17,1,4,1,2,1,-6,1,0,1,-14,1,-10,1,-19,1
165,-13,1,-6,1,7,1,9,1,-10,1,0,1,5,1,0,1,4,1,-10,1,-7,1,-14,1
166,-4,1,-8,1,-4,1,6,1,0,1,-6,1,9,1,7,1,9,1,-5,1,-5,1,-9,1
167,0,1,-10,1,-10,1,5,1,5,1,-10,1,11,1,14,1,12,1,-2,1,-3,1,-7,1
168,4,1,-12,1,-16,1,4,1,10,1,-14,1,14,1,19,1,16,1,0,1,-2,1,-5,1
169,0,1,-14,1,-14,1,7,1,7,1,-14,1,13,1,18,1,14,1,-1,1,-5,1,-8,1
170,-6,1,-12,1,-6,1,9,1,0,1,-9,1,10,1,13,1,10,1,-7,1,-7,1,-12,1
171,-15,1,-10,1,5,1,12,1,-10,1,-3,1,5,1,5,1,4,1,-11,1,-9,1,-17,1
172,-19,1,-8,1,11,1,13,1,-15,1,1,1,4,1,0,1,1,1,-13,1,-10,1,-18,1
173,-21,1,-4,1,17,1,12,1,-19,1,6,1,3,1,-5,1,0,1,-15,1,-11,1,-20,1
174,-19,1,-3,1,16,1,11,1,-18,1,6,1,5,1,-4,1,2,1,-13,1,-9,1,-18,1
175,-12,1,-4,1,8,1,8,1,-10,1,2,1,9,1,1,1,7,1,-8,1,-6,1,-13,1
176,-2,1,-5,1,-3,1,3,1,0,1,-4,1,14,1,10,1,13,1,-2,1,-1,1,-7,1
177,1,1,-8,1,-9,1,3,1,5,1,-8,1,16,1,15,1,15,1,0,1,-1,1,-5,1
178,4,1,-12,1,-16,1,4,1,10,1,-14,1,18,1,20,1,17,1,1,1,0,1,-2,1
179,0,1,-15,1,-15,1,7,1,7,1,-15,1,15,1,18,1,14,1,0,1,-3,1,-5,1
180,-4,1,-11,1,-7,1,7,1,1,1,-9,1,13,1,13,1,10,1,-4,1,-5,1,-9,1
181,-12,1,-9,1,3,1,10,1,-8,1,-3,1,9,1,6,1,4,1,-9,1,-9,1,-14,1
182,-17,1,-6,1,11,1,11,1,-14,1,2,1,7,1,0,1,2,1,-11,1,-9,1,-16,1
183,-19,1,-3,1,16,1,11,1,-18,1,6,1,6,1,-4,1,0,1,-13,1,-10,1,-18,1
184,-17,1,-1,1,16,1,9,1,-17,1,7,1,7,1,-3,1,2,1,-11,1,-7,1,-15,1
185,-10,1,-2,1,8,1,6,1,-9,1,3,1,11,1,2,1,6,1,-7,1,-4,1,-11,1
186,-3,1,-5,1,-2,1,4,1,-1,1,-4,1,15,1,9,1,12,1,-2,1,-2,1,-7,1
187,1,1,-6,1,-7,1,2,1,4,1,-6,1,18,1,15,1,16,1,0,1,0,1,-5,1
188,6,1,-8,1,-14,1,1,1,10,1,-11,1,20,1,20,1,18,1,3,1,1,1,-3,1
189,1,1,-12,1,-13,1,5,1,7,1,-12,1,18,1,18,1,16,1,1,1,-2,1,-5,1
190,-4,1,-9,1,-5,1,6,1,0,1,-7,1,15,1,13,1,11,1,-2,1,-4,1,-8,1
191,-11,1,-7,1,4,1,9,1,-8,1,-2,1,11,1,6,1,6,1,-7,1,-7,1,-12,1
192,-14,1,-4,1,10,1,9,1,-12,1,3,1,11,1,1,1,4,1,-8,1,-7,1,-14,1
193,-19,1,-2,1,17,1,10,1,-18,1,7,1,9,1,-4,1,1,1,-11,1,-9,1,-17,1
194,-16,1,0,1,16,1,8,1,-16,1,8,1,10,1,-4,1,3,1,-10,1,-6,1,-16,1
195,-9,1,-2,1,7,1,5,1,-8,1,2,1,14,1,2,1,8,1,-4,1,-3,1,-11,1
196,0,1,-3,1,-3,1,1,1,1,1,-3,1,18,1,10,1,14,1,1,1,1,1,-5,1
197,4,1,-5,1,-9,1,0,1,6,1,-7,1,20,1,16,1,16,1,2,1,2,1,-3,1
198,8,1,-8,1,-16,1,0,1,12,1,-12,1,22,1,20,1,19,1,5,1,2,1,-2,1
199,5,1,-10,1,-15,1,2,1,10,1,-12,1,20,1,19,1,18,1,4,1,1,1,-3,1
200,0,1,-7,1,-7,1,3,1,3,1,-7,1,17,1,14,1,14,1,0,1,-1,1,-7,1
201,-10,1,-6,1,4,1,8,1,-7,1,-1,1,13,1,7,1,8,1,-5,1,-5,1,-12,1
202,-15,1,-4,1,11,1,9,1,-13,1,3,1,11,1,1,1,5,1,-8,1,-6,1,-13,1
203,-19,1,-1,1,18,1,10,1,-19,1,8,1,9,1,-3,1,3,1,-10,1,-6,1,-15,1
204,-15,1,2,1,17,1,6,1,-16,1,9,1,11,1,-3,1,5,1,-8,1,-4,1,-13,1
205,-9,1,0,1,9,1,4,1,-9,1,4,1,13,1,2,1,8,1,-4,1,-1,1,-10,1
206,1,1,-1,1,-2,1,0,1,1,1,-1,1,17,1,10,1,14,1,1,1,0,1,-5,1
207,5,1,-2,1,-7,1,-1,1,6,1,-4,1,20,1,16,1,17,1,3,1,2,1,-2,1
208,9,1,-4,1,-13,1,-2,1,11,1,-8,1,21,1,21,1,20,1,6,1,3,1,0,1
209,5,1,-6,1,-11,1,0,1,8,1,-8,1,19,1,20,1,19,1,5,1,1,1,-2,1
210,-1,1,-4,1,-3,1,2,1,1,1,-4,1,16,1,14,1,15,1,0,1,-1,1,-6,1
211,-11,1,-2,1,9,1,6,1,-10,1,3,1,12,1,6,1,9,1,-5,1,-5,1,-12,1
212,-14,1,0,1,14,1,7,1,-14,1,7,1,9,1,1,1,5,1,-6,1,-6,1,-13,1
213,-18,1,4,1,22,1,7,1,-20,1,13,1,8,1,-4,1,3,1,-8,1,-7,1,-15,1
214,-14,1,6,1,20,1,4,1,-17,1,13,1,11,1,-3,1,5,1,-7,1,-5,1,-13,1
215,-8,1,3,1,11,1,2,1,-9,1,7,1,14,1,2,1,10,1,-2,1,-2,1,-9,1
216,0,1,3,1,3,1,-1,1,-1,1,3,1,17,1,11,1,14,1,2,1,0,1,-5,1
217,5,1,1,1,-4,1,-3,1,5,1,-1,1,19,1,16,1,18,1,4,1,2,1,-1,1
218,8,1,-2,1,-10,1,-3,1,9,1,-6,1,20,1,20,1,20,1,6,1,3,1,0,1
219,6,1,-4,1,-10,1,-1,1,8,1,-7,1,18,1,19,1,19,1,5,1,1,1,-1,1
220,0,1,0,1,0,1,0,1,0,1,0,1,16,1,15,1,16,1,2,1,0,1,-4,1
221,-9,1,2,1,11,1,3,1,-10,1,6,1,11,1,7,1,10,1,-3,1,-2,1,-8,1
222,-15,1,3,1,18,1,6,1,-16,1,10,1,9,1,2,1,7,1,-6,1,-3,1,-11,1
223,-17,1,7,1,24,1,5,1,-20,1,15,1,7,1,-3,1,4,1,-7,1,-5,1,-13,1
224,-13,1,10,1,23,1,1,1,-18,1,16,1,7,1,-2,1,6,1,-6,1,-2,1,-11,1
225,-8,1,7,1,15,1,0,1,-11,1,11,1,11,1,3,1,10,1,-1,1,0,1,-7,1
226,1,1,7,1,6,1,-4,1,-2,1,7,1,16,1,11,1,17,1,4,1,4,1,-1,1
227,7,1,6,1,-1,1,-6,1,4,1,3,1,18,1,17,1,21,1,7,1,6,1,1,1
228,11,1,4,1,-7,1,-7,1,9,1,-1,1,20,1,21,1,23,1,9,1,7,1,4,1
229,8,1,3,1,-5,1,-5,1,7,1,-1,1,19,1,21,1,22,1,8,1,6,1,3,1
230,1,1,5,1,4,1,-3,1,-1,1,5,1,15,1,15,1,18,1,4,1,3,1,-1,1
231,-9,1,5,1,14,1,2,1,-11,1,9,1,11,1,7,1,12,1,0,1,0,1,-5,1
232,-15,1,7,1,22,1,4,1,-18,1,14,1,8,1,0,1,8,1,-4,1,-1,1,-7,1
233,-18,1,11,1,29,1,3,1,-23,1,20,1,4,1,-4,1,5,1,-6,1,-2,1,-9,1
234,-13,1,15,1,28,1,-1,1,-20,1,21,1,7,1,-3,1,8,1,-3,1,0,1,-6,1
235,-6,1,13,1,19,1,-3,1,-12,1,16,1,11,1,2,1,14,1,2,1,3,1,-1,1
236,2,1,13,1,11,1,-7,1,-4,1,12,1,16,1,11,1,20,1,8,1,8,1,5,1
237,7,1,11,1,4,1,-9,1,2,1,8,1,17,1,16,1,24,1,10,1,9,1,7,1
238,9,1,8,1,-1,1,-8,1,5,1,4,1,20,1,20,1,27,1,13,1,11,1,10,1
239,6,1,7,1,1,1,-6,1,3,1,4,1,17,1,19,1,24,1,11,1,9,1,8,1
240,0,1,10,1,10,1,-5,1,-5,1,10,1,13,1,14,1,20,1,7,1,6,1,6,1
241,-9,1,13,1,22,1,-2,1,-15,1,17,1,9,1,6,1,14,1,2,1,3,1,0,1
242,-14,1,15,1,29,1,0,1,-21,1,22,1,6,1,-1,1,10,1,0,1,2,1,-1,1
243,-18,1,19,1,37,1,0,1,-27,1,28,1,3,1,-6,1,8,1,-2,1,2,1,-3,1
244,-14,1,23,1,37,1,-4,1,-25,1,30,1,5,1,-5,1,11,1,0,1,4,1,0,1
245,-8,1,21,1,29,1,-6,1,-18,1,25,1,8,1,0,1,16,1,4,1,7,1,3,1
246,0,1,20,1,20,1,-10,1,-10,1,20,1,10,1,7,1,21,1,9,1,11,1,9,1
247,6,1,17,1,11,1,-11,1,-2,1,14,1,12,1,12,1,24,1,12,1,12,1,12,1
248,8,1,15,1,7,1,-11,1,1,1,11,1,14,1,17,1,28,1,15,1,14,1,15,1
249,4,1,14,1,10,1,-9,1,-3,1,12,1,11,1,15,1,26,1,13,1,12,1,14,1
250,-1,1,18,1,19,1,-8,1,-10,1,18,1,8,1,10,1,21,1,10,1,10,1,11,1
251,-10,1,20,1,30,1,-5,1,-20,1,25,1,3,1,1,1,14,1,5,1,6,1,6,1
252,-15,1,23,1,38,1,-4,1,-26,1,30,1,1,1,-4,1,12,1,2,1,6,1,3,1
253,-19,1,28,1,47,1,-4,1,-33,1,37,1,-1,1,-10,1,8,1,0,1,5,1,2,1
254,-17,1,31,1,48,1,-7,1,-32,1,39,1,0,1,-10,1,11,1,1,1,7,1,5,1
255,-12,1,27,1,39,1,-7,1,-25,1,33,1,3,1,-6,1,15,1,5,1,9,1,8,1
256,-3,1,27,1,30,1,-12,1,-16,1,28,1,7,1,1,1,20,1,11,1,13,1,14,1
257,1,1,27,1,26,1,-14,1,-12,1,27,1,9,1,8,1,24,1,13,1,14,1,16,1
258,5,1,24,1,19,1,-14,1,-7,1,22,1,12,1,11,1,27,1,16,1,16,1,19,1
259,0,1,22,1,22,1,-11,1,-11,1,22,1,8,1,9,1,23,1,14,1,13,1,16,1
260,-8,1,23,1,31,1,-7,1,-19,1,27,1,4,1,2,1,19,1,10,1,10,1,12,1
261,-17,1,25,1,42,1,-4,1,-29,1,33,1,0,1,-6,1,13,1,4,1,6,1,8,1
262,-22,1,27,1,49,1,-2,1,-35,1,38,1,-1,1,-11,1,11,1,2,1,6,1,7,1
263,-25,1,32,1,57,1,-3,1,-41,1,44,1,-3,1,-16,1,8,1,0,1,5,1,5,1
264,-23,1,34,1,57,1,-5,1,-40,1,45,1,-1,1,-17,1,10,1,1,1,7,1,5,1
265,-17,1,31,1,48,1,-7,1,-32,1,39,1,2,1,-11,1,15,1,6,1,10,1,10,1
266,-8,1,31,1,39,1,-11,1,-23,1,35,1,7,1,-2,1,21,1,13,1,15,1,15,1
267,-3,1,29,1,32,1,-13,1,-17,1,30,1,10,1,4,1,26,1,15,1,16,1,18,1
268,-1,1,24,1,25,1,-11,1,-13,1,24,1,13,1,11,1,30,1,19,1,17,1,20,1
269,-6,1,19,1,25,1,-6,1,-15,1,22,1,11,1,11,1,28,1,16,1,15,1,17,1
270,-12,1,21,1,33,1,-4,1,-22,1,27,1,9,1,8,1,25,1,13,1,12,1,12,1
271,-20,1,22,1,42,1,-1,1,-31,1,32,1,6,1,3,1,22,1,9,1,10,1,7,1
272,-26,1,23,1,49,1,1,1,-37,1,36,1,7,1,0,1,22,1,9,1,10,1,5,1
273,-29,1,25,1,54,1,2,1,-41,1,39,1,6,1,-1,1,21,1,8,1,10,1,3,1
274,-26,1,26,1,52,1,0,1,-39,1,39,1,8,1,0,1,24,1,12,1,13,1,5,1
275,-20,1,23,1,43,1,-1,1,-31,1,33,1,14,1,8,1,29,1,15,1,15,1,8,1
276,-10,1,20,1,30,1,-5,1,-20,1,25,1,19,1,17,1,35,1,22,1,19,1,12,1
277,-4,1,17,1,21,1,-6,1,-12,1,19,1,23,1,25,1,39,1,24,1,20,1,14,1
278,-1,1,11,1,12,1,-5,1,-6,1,11,1,26,1,31,1,42,1,27,1,22,1,16,1
279,-4,1,7,1,11,1,-1,1,-7,1,9,1,26,1,31,1,40,1,25,1,19,1,14,1
280,-10,1,8,1,18,1,1,1,-14,1,13,1,23,1,26,1,35,1,21,1,16,1,9,1
281,-19,1,8,1,27,1,5,1,-23,1,17,1,20,1,19,1,29,1,14,1,13,1,5,1
282,-23,1,8,1,31,1,7,1,-27,1,19,1,17,1,12,1,24,1,11,1,11,1,2,1
283,-26,1,11,1,37,1,7,1,-31,1,24,1,16,1,7,1,20,1,7,1,9,1,-2,1
284,-25,1,10,1,35,1,7,1,-30,1,22,1,18,1,5,1,19,1,6,1,8,1,-2,1
285,-18,1,7,1,25,1,5,1,-21,1,16,1,21,1,9,1,22,1,9,1,10,1,0,1
286,-10,1,4,1,14,1,3,1,-12,1,9,1,26,1,17,1,27,1,14,1,13,1,4,1
287,-4,1,2,1,6,1,1,1,-5,1,4,1,28,1,22,1,29,1,17,1,14,1,7,1
288,1,1,-1,1,-2,1,0,1,1,1,-1,1,30,1,26,1,30,1,19,1,15,1,10,1
289,-2,1,-6,1,-4,1,4,1,1,1,-5,1,27,1,23,1,26,1,15,1,11,1,7,1
290,-8,1,-5,1,3,1,6,1,-6,1,-1,1,24,1,18,1,22,1,9,1,7,1,2,1
291,-17,1,-5,1,12,1,11,1,-15,1,3,1,19,1,9,1,14,1,2,1,3,1,-4,1
292,-22,1,-3,1,19,1,12,1,-21,1,8,1,17,1,2,1,10,1,0,1,1,1,-7,1
293,-24,1,0,1,24,1,12,1,-24,1,12,1,14,1,-3,1,6,1,-3,1,0,1,-9,1
294,-21,1,1,1,22,1,10,1,-21,1,11,1,16,1,-3,1,6,1,-3,1,0,1,-9,1
295,-15,1,-1,1,14,1,8,1,-15,1,6,1,19,1,2,1,10,1,0,1,3,1,-5,1
296,-5,1,-3,1,2,1,4,1,-4,1,-1,1,23,1,8,1,15,1,4,1,6,1,0,1
297,-1,1,-6,1,-5,1,3,1,2,1,-6,1,25,1,12,1,17,1,6,1,6,1,2,1
298,1,1,-9,1,-10,1,4,1,5,1,-9,1,27,1,16,1,19,1,7,1,6,1,2,1
299,0,1,-11,1,-11,1,5,1,5,1,-11,1,27,1,16,1,17,1,6,1,5,1,2,1
300,-8,1,-10,1,-2,1,9,1,-3,1,-6,1,23,1,10,1,11,1,0,1,1,1,-2,1
301,-19,1,-11,1,8,1,15,1,-14,1,-2,1,18,1,0,1,4,1,-6,1,-4,1,-8,1
302,-23,1,-9,1,14,1,16,1,-19,1,2,1,16,1,-5,1,0,1,-8,1,-5,1,-11,1
303,-25,1,-4,1,21,1,14,1,-23,1,8,1,14,1,-10,1,-2,1,-11,1,-6,1,-13,1
304,-22,1,-2,1,20,1,12,1,-21,1,9,1,16,1,-10,1,-1,1,-10,1,-4,1,-12,1
305,-15,1,-4,1,11,1,9,1,-13,1,3,1,19,1,-5,1,2,1,-7,1,-2,1,-9,1
306,-6,1,-6,1,0,1,6,1,-3,1,-3,1,23,1,1,1,8,1,-2,1,1,1,-4,1
307,-1,1,-8,1,-7,1,4,1,3,1,-8,1,25,1,7,1,11,1,1,1,3,1,-1,1
308,3,1,-12,1,-15,1,4,1,9,1,-13,1,27,1,12,1,14,1,4,1,4,1,0,1
309,0,1,-15,1,-15,1,7,1,7,1,-15,1,26,1,11,1,12,1,1,1,2,1,-2,1
310,-7,1,-13,1,-6,1,10,1,-1,1,-10,1,23,1,5,1,7,1,-3,1,-1,1,-7,1
311,-15,1,-12,1,3,1,13,1,-9,1,-5,1,19,1,-3,1,1,1,-8,1,-5,1,-12,1
312,-19,1,-8,1,11,1,13,1,-15,1,1,1,17,1,-8,1,-1,1,-10,1,-6,1,-14,1
313,-24,1,-6,1,18,1,15,1,-21,1,6,1,15,1,-13,1,-5,1,-14,1,-8,1,-17,1
314,-23,1,-7,1,16,1,15,1,-20,1,4,1,15,1,-14,1,-6,1,-15,1,-7,1,-16,1
315,-17,1,-8,1,9,1,12,1,-13,1,0,1,19,1,-9,1,-1,1,-10,1,-4,1,-12,1
316,-6,1,-8,1,-2,1,7,1,-2,1,-5,1,23,1,-1,1,4,1,-4,1,-1,1,-8,1
317,0,1,-9,1,-9,1,4,1,4,1,-9,1,24,1,3,1,7,1,-3,1,-1,1,-7,1
318,1,1,-13,1,-14,1,6,1,7,1,-13,1,26,1,8,1,10,1,0,1,1,1,-4,1
319,0,1,-15,1,-15,1,7,1,7,1,-15,1,25,1,8,1,9,1,-2,1,-1,1,-4,1
320,-7,1,-12,1,-5,1,9,1,-1,1,-9,1,21,1,2,1,3,1,-7,1,-4,1,-9,1
321,-16,1,-11,1,5,1,13,1,-11,1,-3,1,17,1,-6,1,-2,1,-12,1,-8,1,-15,1
322,-22,1,-9,1,13,1,15,1,-18,1,2,1,14,1,-12,1,-5,1,-15,1,-9,1,-17,1
323,-26,1,-6,1,20,1,16,1,-23,1,7,1,12,1,-16,1,-8,1,-17,1,-11,1,-19,1
324,-23,1,-3,1,20,1,13,1,-22,1,8,1,13,1,-16,1,-7,1,-17,1,-9,1,-18,1
325,-17,1,-6,1,11,1,11,1,-14,1,2,1,16,1,-11,1,-2,1,-12,1,-6,1,-13,1
326,-8,1,-8,1,0,1,8,1,-4,1,-4,1,20,1,-4,1,3,1,-7,1,-2,1,-9,1
327,-4,1,-9,1,-5,1,6,1,0,1,-7,1,22,1,2,1,6,1,-4,1,-1,1,-6,1
328,0,1,-12,1,-12,1,6,1,6,1,-12,1,25,1,7,1,9,1,-2,1,0,1,-4,1
329,-2,1,-14,1,-12,1,8,1,5,1,-13,1,23,1,7,1,8,1,-3,1,-2,1,-6,1
330,-8,1,-12,1,-4,1,10,1,-2,1,-8,1,19,1,2,1,3,1,-7,1,-5,1,-11,1
331,-18,1,-11,1,7,1,14,1,-13,1,-2,1,15,1,-4,1,-1,1,-12,1,-8,1,-15,1
332,-22,1,-9,1,13,1,15,1,-18,1,2,1,12,1,-11,1,-6,1,-15,1,-10,1,-18,1
333,-27,1,-6,1,21,1,16,1,-24,1,7,1,11,1,-15,1,-8,1,-17,1,-11,1,-20,1
334,-23,1,-3,1,20,1,13,1,-22,1,8,1,10,1,-15,1,-6,1,-15,1,-9,1,-19,1
335,-16,1,-4,1,12,1,10,1,-14,1,4,1,13,1,-10,1,-2,1,-11,1,-6,1,-15,1
336,-6,1,-5,1,1,1,5,1,-4,1,-2,1,17,1,-2,1,4,1,-6,1,-3,1,-10,1
337,-2,1,-7,1,-5,1,4,1,1,1,-6,1,20,1,4,1,7,1,-3,1,-1,1,-6,1
338,1,1,-11,1,-12,1,5,1,6,1,-11,1,21,1,8,1,10,1,-1,1,-1,1,-5,1
339,0,1,-14,1,-14,1,7,1,7,1,-14,1,20,1,9,1,9,1,-2,1,-1,1,-5,1
340,-8,1,-11,1,-3,1,9,1,-3,1,-7,1,16,1,4,1,5,1,-6,1,-3,1,-10,1
341,-17,1,-10,1,7,1,13,1,-12,1,-2,1,12,1,-4,1,0,1,-11,1,-7,1,-15,1
342,-23,1,-9,1,14,1,16,1,-19,1,2,1,10,1,-9,1,-4,1,-14,1,-9,1,-17,1
343,-28,1,-7,1,21,1,17,1,-25,1,7,1,7,1,-15,1,-7,1,-17,1,-10,1,-20,1
344,-26,1,-5,1,21,1,15,1,-24,1,8,1,9,1,-14,1,-7,1,-16,1,-10,1,-18,1
345,-18,1,-5,1,13,1,11,1,-16,1,4,1,13,1,-8,1,-1,1,-11,1,-6,1,-13,1
346,-9,1,-6,1,3,1,7,1,-6,1,-2,1,17,1,0,1,4,1,-7,1,-3,1,-8,1
347,-3,1,-8,1,-5,1,5,1,1,1,-7,1,19,1,5,1,8,1,-3,1,-1,1,-6,1
348,0,1,-11,1,-11,1,5,1,5,1,-11,1,21,1,11,1,11,1,0,1,-1,1,-4,1
349,-4,1,-15,1,-11,1,9,1,3,1,-13,1,19,1,11,1,9,1,-2,1,-3,1,-6,1
350,-9,1,-12,1,-3,1,10,1,-3,1,-8,1,15,1,6,1,5,1,-6,1,-5,1,-10,1
351,-16,1,-10,1,6,1,13,1,-11,1,-2,1,13,1,-1,1,0,1,-11,1,-8,1,-14,1
352,-22,1,-8,1,14,1,15,1,-18,1,3,1,10,1,-7,1,-3,1,-14,1,-10,1,-17,1
353,-25,1,-5,1,20,1,15,1,-23,1,7,1,8,1,-13,1,-6,1,-17,1,-12,1,-20,1
354,-20,1,0,1,20,1,10,1,-20,1,10,1,11,1,-11,1,-4,1,-14,1,-9,1,-18,1
355,-13,1,-2,1,11,1,7,1,-12,1,4,1,14,1,-5,1,0,1,-10,1,-6,1,-13,1
356,-9,1,-9,1,0,1,9,1,-5,1,-5,1,17,1,0,1,3,1,-7,1,-4,1,-11,1
357,-5,1,-10,1,-5,1,7,1,0,1,-8,1,19,1,5,1,7,1,-5,1,-3,1,-7,1
358,0,1,-12,1,-12,1,6,1,6,1,-12,1,21,1,11,1,11,1,-1,1,-2,1,-6,1
359,-1,1,-14,1,-13,1,7,1,6,1,-14,1,21,1,11,1,10,1,-3,1,-3,1,-7,1
360,-8,1,-11,1,-3,1,9,1,-3,1,-7,1,18,1,6,1,6,1,-7,1,-6,1,-12,1
361,-17,1,-10,1,7,1,13,1,-12,1,-2,1,14,1,-1,1,0,1,-12,1,-9,1,-17,1
362,-21,1,-8,1,13,1,14,1,-17,1,2,1,12,1,-6,1,-3,1,-15,1,-10,1,-18,1
363,-24,1,-6,1,18,1,15,1,-21,1,6,1,11,1,-11,1,-5,1,-17,1,-11,1,-21,1
364,-21,1,-3,1,18,1,12,1,-20,1,7,1,13,1,-10,1,-3,1,-15,1,-9,1,-19,1
365,-14,1,-5,1,9,1,9,1,-12,1,2,1,16,1,-5,1,0,1,-12,1,-7,1,-15,1
366,-7,1,-7,1,0,1,7,1,-4,1,-4,1,20,1,2,1,5,1,-5,1,-3,1,-11,1
367,-2,1,-10,1,-8,1,6,1,3,1,-9,1,22,1,8,1,9,1,-3,1,-2,1,-9,1
368,2,1,-13,1,-15,1,5,1,8,1,-14,1,25,1,13,1,12,1,0,1,-1,1,-5,1
369,1,1,-15,1,-16,1,7,1,8,1,-15,1,23,1,13,1,11,1,-1,1,-2,1,-7,1
370,-4,1,-13,1,-9,1,8,1,2,1,-11,1,20,1,8,1,6,1,-6,1,-5,1,-11,1
371,-11,1,-11,1,0,1,11,1,-6,1,-6,1,16,1,1,1,1,1,-10,1,-8,1,-15,1
372,-17,1,-9,1,8,1,13,1,-13,1,-1,1,13,1,-4,1,-1,1,-12,1,-9,1,-17,1
373,-20,1,-6,1,14,1,13,1,-17,1,4,1,11,1,-10,1,-5,1,-16,1,-10,1,-20,1
374,-17,1,-3,1,14,1,10,1,-16,1,5,1,13,1,-10,1,-4,1,-15,1,-9,1,-19,1
375,-10,1,-4,1,6,1,7,1,-8,1,1,1,16,1,-4,1,1,1,-10,1,-5,1,-15,1
376,-4,1,-8,1,-4,1,6,1,0,1,-6,1,20,1,2,1,5,1,-6,1,-3,1,-11,1
377,1,1,-9,1,-10,1,4,1,5,1,-9,1,24,1,8,1,9,1,-3,1,-1,1,-9,1
378,4,1,-12,1,-16,1,4,1,10,1,-14,1,26,1,13,1,12,1,-1,1,-1,1,-7,1
379,4,1,-14,1,-18,1,5,1,11,1,-16,1,24,1,13,1,10,1,-2,1,-2,1,-8,1
380,0,1,-12,1,-12,1,6,1,6,1,-12,1,21,1,8,1,6,1,-6,1,-4,1,-11,1
381,-11,1,-12,1,-1,1,11,1,-5,1,-7,1,16,1,1,1,1,1,-11,1,-7,1,-16,1
382,-14,1,-10,1,4,1,12,1,-9,1,-3,1,15,1,-4,1,-2,1,-13,1,-8,1,-17,1
383,-18,1,-8,1,10,1,13,1,-14,1,1,1,13,1,-9,1,-5,1,-16,1,-10,1,-20,1
384,-18,1,-7,1,11,1,12,1,-15,1,2,1,12,1,-11,1,-5,1,-16,1,-9,1,-20,1
385,-11,1,-7,1,4,1,9,1,-8,1,-2,1,16,1,-5,1,0,1,-11,1,-6,1,-16,1
386,0,1,-8,1,-8,1,4,1,4,1,-8,1,20,1,2,1,5,1,-6,1,-2,1,-11,1
387,3,1,-9,1,-12,1,3,1,7,1,-10,1,22,1,8,1,8,1,-3,1,-1,1,-8,1
388,6,1,-14,1,-20,1,4,1,13,1,-17,1,24,1,13,1,11,1,0,1,0,1,-6,1
389,4,1,-17,1,-21,1,6,1,12,1,-19,1,23,1,13,1,9,1,-2,1,-3,1,-8,1
390,-2,1,-15,1,-13,1,8,1,5,1,-14,1,19,1,7,1,5,1,-6,1,-5,1,-12,1
391,-9,1,-13,1,-4,1,11,1,-3,1,-9,1,14,1,0,1,0,1,-12,1,-9,1,-18,1
392,-16,1,-12,1,4,1,14,1,-10,1,-4,1,12,1,-6,1,-3,1,-14,1,-10,1,-19,1
393,-19,1,-8,1,11,1,13,1,-15,1,1,1,10,1,-11,1,-5,1,-16,1,-11,1,-21,1
394,-18,1,-7,1,11,1,12,1,-15,1,2,1,10,1,-11,1,-4,1,-16,1,-9,1,-20,1
395,-11,1,-9,1,2,1,10,1,-7,1,-4,1,13,1,-7,1,-1,1,-13,1,-6,1,-16,1
396,-1,1,-9,1,-8,1,5,1,3,1,-9,1,17,1,0,1,4,1,-7,1,-3,1,-11,1
397,5,1,-10,1,-15,1,2,1,10,1,-12,1,19,1,6,1,7,1,-4,1,-2,1,-9,1
398,7,1,-13,1,-20,1,3,1,13,1,-16,1,21,1,11,1,9,1,-2,1,0,1,-6,1
399,5,1,-17,1,-22,1,6,1,13,1,-19,1,20,1,11,1,9,1,-2,1,-2,1,-7,1
400,-2,1,-16,1,-14,1,9,1,6,1,-15,1,16,1,5,1,4,1,-8,1,-5,1,-12,1
401,-11,1,-14,1,-3,1,12,1,-4,1,-9,1,12,1,-2,1,-1,1,-13,1,-9,1,-16,1
402,-17,1,-12,1,5,1,14,1,-11,1,-4,1,9,1,-8,1,-4,1,-15,1,-10,1,-19,1
403,-20,1,-9,1,11,1,14,1,-16,1,1,1,8,1,-13,1,-7,1,-18,1,-11,1,-21,1
404,-17,1,-6,1,11,1,11,1,-14,1,2,1,9,1,-14,1,-6,1,-17,1,-10,1,-19,1
405,-10,1,-7,1,3,1,8,1,-7,1,-2,1,12,1,-8,1,-1,1,-11,1,-6,1,-14,1
406,-2,1,-9,1,-7,1,5,1,2,1,-8,1,16,1,-1,1,4,1,-6,1,-3,1,-9,1
407,2,1,-12,1,-14,1,5,1,8,1,-13,1,18,1,5,1,7,1,-3,1,-2,1,-7,1
408,6,1,-14,1,-20,1,4,1,13,1,-17,1,21,1,10,1,10,1,-1,1,-1,1,-5,1
409,4,1,-18,1,-22,1,7,1,13,1,-20,1,18,1,9,1,9,1,-2,1,-3,1,-6,1
410,-3,1,-17,1,-14,1,10,1,5,1,-16,1,14,1,3,1,3,1,-8,1,-6,1,-11,1
411,-10,1,-14,1,-4,1,12,1,-3,1,-9,1,12,1,-3,1,-1,1,-11,1,-8,1,-14,1
412,-15,1,-12,1,3,1,13,1,-9,1,-5,1,8,1,-10,1,-5,1,-16,1,-10,1,-17,1
413,-19,1,-10,1,9,1,14,1,-14,1,-1,1,6,1,-14,1,-8,1,-17,1,-11,1,-19,1
414,-17,1,-6,1,11,1,11,1,-14,1,2,1,7,1,-14,1,-6,1,-16,1,-10,1,-19,1
415,-11,1,-1,1,10,1,6,1,-11,1,4,1,7,1,-12,1,-4,1,-14,1,-10,1,-17,1
416,-4,1,1,1,5,1,1,1,-4,1,3,1,10,1,-6,1,0,1,-11,1,-7,1,-13,1
417,2,1,2,1,0,1,-2,1,1,1,1,1,12,1,0,1,3,1,-8,1,-6,1,-10,1
418,6,1,0,1,-6,1,-3,1,6,1,-3,1,13,1,4,1,5,1,-6,1,-5,1,-9,1
419,4,1,-4,1,-8,1,0,1,6,1,-6,1,12,1,3,1,4,1,-8,1,-8,1,-11,1
420,-3,1,-3,1,0,1,3,1,-2,1,-2,1,8,1,-1,1,0,1,-12,1,-10,1,-14,1
421,-10,1,0,1,10,1,5,1,-10,1,5,1,3,1,-9,1,-5,1,-17,1,-13,1,-20,1
422,-13,1,3,1,16,1,5,1,-14,1,9,1,0,1,-14,1,-9,1,-19,1,-14,1,-23,1
423,-19,1,4,1,23,1,7,1,-21,1,13,1,-1,1,-18,1,-13,1,-21,1,-17,1,-25,1
424,-19,1,6,1,25,1,6,1,-22,1,15,1,-1,1,-19,1,-12,1,-21,1,-16,1,-25,1
425,-11,1,4,1,15,1,3,1,-13,1,9,1,2,1,-14,1,-8,1,-17,1,-12,1,-20,1
426,-3,1,3,1,6,1,0,1,-4,1,4,1,7,1,-6,1,-1,1,-11,1,-8,1,-15,1
427,3,1,2,1,-1,1,-2,1,2,1,1,1,10,1,0,1,1,1,-8,1,-7,1,-13,1
428,7,1,0,1,-7,1,-3,1,7,1,-3,1,13,1,5,1,4,1,-5,1,-6,1,-10,1
429,5,1,-3,1,-8,1,-1,1,6,1,-5,1,12,1,5,1,4,1,-6,1,-7,1,-10,1
430,-2,1,0,1,2,1,1,1,-2,1,1,1,9,1,0,1,1,1,-10,1,-9,1,-14,1
431,-9,1,2,1,11,1,3,1,-10,1,6,1,5,1,-7,1,-5,1,-15,1,-13,1,-19,1
432,-17,1,2,1,19,1,7,1,-18,1,10,1,2,1,-13,1,-8,1,-19,1,-14,1,-22,1
433,-20,1,7,1,27,1,6,1,-23,1,17,1,1,1,-18,1,-11,1,-21,1,-15,1,-24,1
434,-17,1,9,1,26,1,4,1,-21,1,17,1,2,1,-17,1,-10,1,-19,1,-13,1,-22,1
435,-10,1,8,1,18,1,1,1,-14,1,13,1,6,1,-11,1,-4,1,-15,1,-9,1,-18,1
436,1,1,8,1,7,1,-4,1,-3,1,8,1,11,1,-3,1,2,1,-9,1,-5,1,-12,1
437,9,1,10,1,1,1,-9,1,4,1,6,1,14,1,5,1,7,1,-4,1,-2,1,-8,1
438,11,1,8,1,-3,1,-9,1,7,1,3,1,17,1,11,1,12,1,0,1,0,1,-5,1
439,10,1,6,1,-4,1,-8,1,7,1,1,1,16,1,13,1,11,1,0,1,0,1,-5,1
440,5,1,9,1,4,1,-7,1,1,1,7,1,13,1,9,1,9,1,-3,1,-2,1,-8,1
441,-1,1,11,1,12,1,-5,1,-6,1,11,1,9,1,2,1,3,1,-8,1,-6,1,-13,1
442,-5,1,12,1,17,1,-3,1,-11,1,14,1,7,1,-3,1,0,1,-10,1,-7,1,-15,1
443,-10,1,15,1,25,1,-2,1,-17,1,20,1,5,1,-8,1,-3,1,-12,1,-7,1,-17,1
444,-9,1,19,1,28,1,-5,1,-18,1,23,1,7,1,-9,1,-1,1,-12,1,-5,1,-16,1
445,-3,1,18,1,21,1,-7,1,-12,1,19,1,12,1,-2,1,4,1,-6,1,-1,1,-11,1
446,5,1,16,1,11,1,-10,1,-3,1,14,1,17,1,5,1,10,1,0,1,2,1,-6,1
447,11,1,17,1,6,1,-14,1,3,1,12,1,20,1,13,1,16,1,4,1,4,1,-2,1
448,15,1,14,1,-1,1,-14,1,8,1,7,1,23,1,19,1,20,1,7,1,6,1,1,1
449,15,1,12,1,-3,1,-13,1,9,1,5,1,22,1,21,1,21,1,8,1,7,1,2,1
450,10,1,15,1,5,1,-12,1,3,1,10,1,18,1,16,1,17,1,4,1,4,1,-2,1
451,3,1,17,1,14,1,-10,1,-5,1,16,1,15,1,9,1,11,1,0,1,1,1,-6,1
452,-3,1,18,1,21,1,-7,1,-12,1,19,1,12,1,1,1,6,1,-5,1,0,1,-10,1
453,-8,1,19,1,27,1,-5,1,-17,1,23,1,7,1,-7,1,1,1,-9,1,-3,1,-12,1
454,-6,1,21,1,27,1,-7,1,-16,1,24,1,5,1,-9,1,0,1,-9,1,-3,1,-12,1
455,2,1,20,1,18,1,-11,1,-8,1,19,1,5,1,-6,1,3,1,-5,1,0,1,-8,1
456,11,1,19,1,8,1,-15,1,2,1,14,1,6,1,-1,1,6,1,-2,1,2,1,-4,1
457,17,1,19,1,2,1,-18,1,8,1,11,1,8,1,3,1,10,1,0,1,4,1,-1,1
458,20,1,14,1,-6,1,-17,1,13,1,4,1,10,1,9,1,14,1,3,1,5,1,1,1
459,19,1,10,1,-9,1,-14,1,14,1,1,1,9,1,10,1,14,1,2,1,4,1,0,1
460,13,1,12,1,-1,1,-12,1,7,1,6,1,7,1,8,1,11,1,0,1,1,1,-3,1
461,6,1,14,1,8,1,-10,1,-1,1,11,1,2,1,2,1,6,1,-5,1,0,1,-8,1
462,0,1,14,1,14,1,-7,1,-7,1,14,1,0,1,-4,1,2,1,-8,1,-3,1,-12,1
463,-3,1,15,1,18,1,-6,1,-10,1,16,1,-2,1,-9,1,0,1,-10,1,-4,1,-14,1
464,-1,1,17,1,18,1,-8,1,-9,1,17,1,-2,1,-10,1,0,1,-9,1,-3,1,-13,1
465,5,1,13,1,8,1,-9,1,-1,1,11,1,0,1,-7,1,2,1,-7,1,-1,1,-10,1
466,13,1,9,1,-4,1,-11,1,9,1,3,1,3,1,-2,1,5,1,-3,1,0,1,-7,1
467,17,1,7,1,-10,1,-12,1,14,1,-1,1,5,1,3,1,7,1,-1,1,0,1,-4,1
468,19,1,3,1,-16,1,-11,1,18,1,-6,1,7,1,7,1,9,1,0,1,1,1,-2,1
469,18,1,0,1,-18,1,-9,1,18,1,-9,1,6,1,8,1,9,1,0,1,0,1,-3,1
470,10,1,0,1,-10,1,-5,1,10,1,-5,1,2,1,1,1,3,1,-6,1,-4,1,-9,1
471,0,1,0,1,0,1,0,1,0,1,0,1,-1,1,-8,1,-3,1,-12,1,-8,1,-14,1
472,-9,1,1,1,10,1,4,1,-9,1,5,1,-3,1,-14,1,-8,1,-16,1,-10,1,-17,1
473,-13,1,4,1,17,1,4,1,-15,1,10,1,-4,1,-19,1,-10,1,-18,1,-12,1,-20,1
474,-14,1,5,1,19,1,4,1,-16,1,12,1,-2,1,-20,1,-10,1,-19,1,-11,1,-20,1
475,-7,1,5,1,12,1,1,1,-9,1,8,1,3,1,-13,1,-4,1,-14,1,-7,1,-15,1
476,0,1,3,1,3,1,-1,1,-1,1,3,1,7,1,-7,1,0,1,-10,1,-5,1,-12,1
477,2,1,-1,1,-3,1,0,1,2,1,-2,1,9,1,-1,1,3,1,-7,1,-5,1,-10,1
478,5,1,-4,1,-9,1,0,1,7,1,-6,1,12,1,4,1,5,1,-6,1,-5,1,-8,1
479,4,1,-8,1,-12,1,2,1,8,1,-10,1,10,1,3,1,3,1,-7,1,-6,1,-9,1
480,-3,1,-8,1,-5,1,5,1,1,1,-7,1,6,1,-3,1,-2,1,-13,1,-11,1,-15,1
481,-12,1,-6,1,6,1,9,1,-9,1,0,1,3,1,-11,1,-8,1,-18,1,-15,1,-21,1
482,-17,1,-4,1,13,1,10,1,-15,1,4,1,0,1,-17,1,-11,1,-20,1,-16,1,-23,1
483,-19,1,-1,1,18,1,10,1,-19,1,8,1,-2,1,-21,1,-14,1,-23,1,-16,1,-24,1
484,-18,1,2,1,20,1,8,1,-19,1,11,1,-2,1,-21,1,-13,1,-22,1,-15,1,-23,1
485,-12,1,0,1,12,1,6,1,-12,1,6,1,2,1,-16,1,-8,1,-18,1,-11,1,-19,1
486,-3,1,0,1,3,1,1,1,-3,1,1,1,6,1,-9,1,-3,1,-13,1,-9,1,-15,1
487,0,1,-3,1,-3,1,1,1,1,1,-3,1,8,1,-3,1,0,1,-9,1,-8,1,-12,1
488,2,1,-8,1,-10,1,3,1,6,1,-9,1,10,1,2,1,3,1,-8,1,-7,1,-11,1
489,1,1,-11,1,-12,1,5,1,6,1,-11,1,9,1,3,1,3,1,-8,1,-7,1,-12,1
490,-4,1,-9,1,-5,1,6,1,0,1,-7,1,5,1,-2,1,-1,1,-12,1,-11,1,-15,1
491,-13,1,-8,1,5,1,10,1,-9,1,-2,1,1,1,-9,1,-7,1,-17,1,-14,1,-19,1
492,-20,1,-6,1,14,1,13,1,-17,1,4,1,-1,1,-15,1,-11,1,-20,1,-15,1,-23,1
493,-23,1,-3,1,20,1,13,1,-22,1,8,1,-2,1,-20,1,-13,1,-22,1,-16,1,-25,1
494,-21,1,0,1,21,1,10,1,-21,1,10,1,-3,1,-21,1,-14,1,-23,1,-16,1,-26,1
495,-13,1,-1,1,12,1,7,1,-13,1,5,1,1,1,-16,1,-9,1,-18,1,-12,1,-20,1
496,-6,1,-3,1,3,1,4,1,-5,1,0,1,6,1,-8,1,-3,1,-12,1,-9,1,-15,1
497,0,1,-7,1,-7,1,3,1,3,1,-7,1,9,1,-2,1,0,1,-10,1,-8,1,-12,1
498,2,1,-10,1,-12,1,4,1,7,1,-11,1,11,1,2,1,3,1,-7,1,-7,1,-10,1
499,0,1,-13,1,-13,1,6,1,6,1,-13,1,10,1,2,1,2,1,-8,1,-8,1,-11,1
500,-7,1,-12,1,-5,1,9,1,-1,1,-9,1,7,1,-2,1,-2,1,-12,1,-10,1,-15,1
501,-15,1,-9,1,6,1,12,1,-11,1,-2,1,3,1,-9,1,-7,1,-16,1,-13,1,-19,1
502,-20,1,-7,1,13,1,13,1,-17,1,3,1,1,1,-15,1,-10,1,-20,1,-15,1,-22,1
503,-23,1,-5,1,18,1,14,1,-21,1,6,1,0,1,-20,1,-13,1,-22,1,-16,1,-24,1
504,-22,1,-2,1,20,1,12,1,-21,1,9,1,0,1,-21,1,-13,1,-22,1,-15,1,-23,1
505,-14,1,-3,1,11,1,8,1,-13,1,4,1,3,1,-15,1,-8,1,-17,1,-11,1,-19,1
506,-2,1,-3,1,-1,1,2,1,-1,1,-2,1,7,1,-8,1,-1,1,-12,1,-8,1,-14,1
507,1,1,-6,1,-7,1,2,1,4,1,-6,1,9,1,-2,1,1,1,-9,1,-7,1,-12,1
508,3,1,-10,1,-13,1,3,1,8,1,-11,1,11,1,2,1,3,1,-7,1,-7,1,-10,1
509,2,1,-12,1,-14,1,5,1,8,1,-13,1,11,1,3,1,3,1,-8,1,-7,1,-10,1
510,-3,1,-10,1,-7,1,6,1,2,1,-9,1,7,1,-3,1,-1,1,-12,1,-10,1,-15,1
511,-12,1,-10,1,2,1,11,1,-7,1,-4,1,3,1,-10,1,-7,1,-17,1,-13,1,-19,1
512,-20,1,-9,1,11,1,14,1,-16,1,1,1,1,1,-16,1,-11,1,-21,1,-15,1,-22,1
513,-23,1,-5,1,18,1,14,1,-21,1,6,1,-1,1,-21,1,-13,1,-23,1,-16,1,-25,1
514,-22,1,-1,1,21,1,11,1,-22,1,10,1,0,1,-22,1,-13,1,-23,1,-14,1,-23,1
515,-15,1,-2,1,13,1,8,1,-14,1,5,1,4,1,-17,1,-8,1,-18,1,-10,1,-18,1
516,-8,1,0,1,8,1,4,1,-8,1,4,1,9,1,-9,1,-1,1,-11,1,-6,1,-11,1
517,-2,1,0,1,2,1,1,1,-2,1,1,1,11,1,1,1,6,1,-4,1,-2,1,-7,1
518,3,1,0,1,-3,1,-1,1,3,1,-1,1,15,1,15,1,16,1,3,1,3,1,-1,1
519,8,1,3,1,-5,1,-5,1,7,1,-1,1,14,1,28,1,25,1,12,1,10,1,3,1
520,9,1,7,1,-2,1,-8,1,6,1,3,1,11,1,43,1,34,1,18,1,15,1,3,1
521,12,1,12,1,0,1,-12,1,6,1,6,1,10,1,71,1,51,1,30,1,23,1,4,1
522,17,1,19,1,2,1,-18,1,8,1,11,1,12,1,109,1,78,1,50,1,37,1,11,1
523,27,1,30,1,3,1,-28,1,12,1,17,1,14,1,140,1,105,1,72,1,56,1,20,1
524,48,1,41,1,-7,1,-44,1,28,1,17,1,12,1,164,1,133,1,98,1,81,1,37,1
525,81,1,52,1,-29,1,-66,1,55,1,12,1,12,1,193,1,167,1,133,1,115,1,63,1
526,120,1,62,1,-58,1,-91,1,89,1,2,1,10,1,225,1,203,1,171,1,150,1,93,1
527,168,1,73,1,-95,1,-120,1,132,1,-11,1,-5,1,244,1,228,1,206,1,187,1,123,1
528,217,1,88,1,-129,1,-152,1,173,1,-20,1,-30,1,244,1,241,1,236,1,225,1,157,1
529,254,1,102,1,-152,1,-178,1,203,1,-25,1,-61,1,189,1,223,1,249,1,254,1,187,1
530,283,1,122,1,-161,1,-202,1,222,1,-19,1,-91,1,124,1,195,1,251,1,277,1,212,1
531,305,1,141,1,-164,1,-223,1,235,1,-11,1,-117,1,63,1,162,1,246,1,292,1,231,1
532,312,1,158,1,-154,1,-235,1,233,1,2,1,-130,1,14,1,130,1,232,1,291,1,239,1
533,317,1,171,1,-146,1,-244,1,232,1,13,1,-147,1,-33,1,95,1,215,1,287,1,241,1
534,325,1,175,1,-150,1,-250,1,238,1,13,1,-170,1,-73,1,64,1,197,1,277,1,235,1
535,323,1,155,1,-168,1,-239,1,246,1,-6,1,-186,1,-114,1,22,1,157,1,240,1,209,1
536,308,1,119,1,-189,1,-213,1,249,1,-35,1,-195,1,-154,1,-34,1,95,1,176,1,161,1
537,267,1,79,1,-188,1,-173,1,228,1,-54,1,-188,1,-202,1,-93,1,23,1,101,1,105,1
538,182,1,30,1,-152,1,-106,1,167,1,-61,1,-153,1,-249,1,-152,1,-56,1,12,1,37,1
539,73,1,-16,1,-89,1,-28,1,81,1,-52,1,-110,1,-297,1,-212,1,-140,1,-77,1,-29,1
540,1,1,-38,1,-39,1,18,1,20,1,-38,1,-92,1,-341,1,-264,1,-203,1,-136,1,-69,1
541,-43,1,-53,1,-10,1,48,1,-17,1,-32,1,-80,1,-347,1,-281,1,-230,1,-163,1,-94,1
542,-73,1,-68,1,5,1,70,1,-39,1,-32,1,-64,1,-324,1,-272,1,-229,1,-172,1,-111,1
543,-84,1,-73,1,11,1,78,1,-48,1,-31,1,-55,1,-297,1,-255,1,-222,1,-172,1,-121,1
544,-76,1,-62,1,14,1,69,1,-45,1,-24,1,-49,1,-260,1,-224,1,-199,1,-154,1,-112,1
545,-60,1,-51,1,9,1,55,1,-35,1,-21,1,-41,1,-212,1,-182,1,-164,1,-126,1,-91,1
546,-47,1,-42,1,5,1,44,1,-26,1,-19,1,-31,1,-168,1,-144,1,-132,1,-102,1,-73,1
547,-35,1,-32,1,3,1,33,1,-19,1,-15,1,-21,1,-130,1,-111,1,-104,1,-82,1,-58,1
548,-27,1,-30,1,-3,1,28,1,-12,1,-17,1,-17,1,-107,1,-91,1,-88,1,-70,1,-50,1
549,-19,1,-28,1,-9,1,23,1,-5,1,-19,1,-13,1,-84,1,-72,1,-71,1,-58,1,-42,1
550,-17,1,-20,1,-3,1,18,1,-7,1,-12,1,-9,1,-61,1,-53,1,-55,1,-45,1,-36,1
551,-21,1,-15,1,6,1,18,1,-14,1,-5,1,-6,1,-48,1,-39,1,-43,1,-34,1,-32,1
552,-25,1,-10,1,15,1,17,1,-20,1,2,1,-6,1,-42,1,-32,1,-38,1,-29,1,-29,1
553,-26,1,-7,1,19,1,16,1,-23,1,6,1,-7,1,-40,1,-31,1,-37,1,-27,1,-29,1
554,-23,1,-3,1,20,1,13,1,-22,1,8,1,-6,1,-37,1,-27,1,-34,1,-24,1,-28,1
555,-16,1,-5,1,11,1,10,1,-14,1,3,1,-1,1,-29,1,-20,1,-28,1,-21,1,-24,1
556,-8,1,-7,1,1,1,7,1,-5,1,-3,1,3,1,-19,1,-13,1,-23,1,-16,1,-19,1
557,-3,1,-8,1,-5,1,5,1,1,1,-7,1,7,1,-10,1,-7,1,-18,1,-14,1,-15,1
558,-1,1,-11,1,-10,1,6,1,4,1,-11,1,10,1,-3,1,-2,1,-15,1,-13,1,-13,1
559,-2,1,-14,1,-12,1,8,1,5,1,-13,1,11,1,0,1,-1,1,-14,1,-13,1,-13,1
560,-7,1,-11,1,-4,1,9,1,-2,1,-8,1,8,1,-2,1,-4,1,-17,1,-15,1,-17,1
561,-15,1,-9,1,6,1,12,1,-11,1,-2,1,4,1,-9,1,-8,1,-21,1,-18,1,-22,1
562,-23,1,-9,1,14,1,16,1,-19,1,2,1,2,1,-14,1,-11,1,-24,1,-20,1,-25,1
563,-27,1,-6,1,21,1,16,1,-24,1,7,1,1,1,-17,1,-13,1,-26,1,-20,1,-26,1
564,-25,1,-2,1,23,1,13,1,-24,1,10,1,1,1,-17,1,-12,1,-25,1,-19,1,-25,1
565,-18,1,-4,1,14,1,11,1,-16,1,5,1,6,1,-10,1,-6,1,-19,1,-14,1,-21,1
566,-9,1,-5,1,4,1,7,1,-7,1,-1,1,10,1,-3,1,0,1,-13,1,-10,1,-15,1
567,-1,1,-6,1,-5,1,3,1,2,1,-6,1,11,1,3,1,4,1,-10,1,-9,1,-12,1
568,2,1,-9,1,-11,1,3,1,6,1,-10,1,14,1,9,1,6,1,-7,1,-7,1,-10,1
569,1,1,-12,1,-13,1,5,1,7,1,-12,1,14,1,11,1,7,1,-6,1,-7,1,-9,1
570,-4,1,-11,1,-7,1,7,1,1,1,-9,1,10,1,6,1,3,1,-11,1,-11,1,-15,1
571,-15,1,-10,1,5,1,12,1,-10,1,-3,1,6,1,0,1,-2,1,-15,1,-13,1,-18,1
572,-20,1,-8,1,12,1,14,1,-16,1,2,1,4,1,-5,1,-5,1,-18,1,-14,1,-21,1
573,-23,1,-5,1,18,1,14,1,-21,1,6,1,2,1,-9,1,-6,1,-20,1,-16,1,-23,1
574,-22,1,-1,1,21,1,11,1,-22,1,10,1,2,1,-11,1,-6,1,-20,1,-15,1,-23,1
575,-15,1,-3,1,12,1,9,1,-14,1,4,1,5,1,-6,1,-2,1,-16,1,-11,1,-18,1
576,-7,1,-5,1,2,1,6,1,-5,1,-2,1,9,1,1,1,3,1,-10,1,-8,1,-14,1
577,0,1,-5,1,-5,1,2,1,2,1,-5,1,13,1,9,1,9,1,-6,1,-5,1,-10,1
578,3,1,-8,1,-11,1,2,1,7,1,-9,1,14,1,14,1,11,1,-4,1,-5,1,-8,1
579,1,1,-12,1,-13,1,5,1,7,1,-12,1,14,1,14,1,11,1,-5,1,-6,1,-9,1
580,-4,1,-10,1,-6,1,7,1,1,1,-8,1,9,1,9,1,6,1,-10,1,-9,1,-13,1
581,-13,1,-8,1,5,1,10,1,-9,1,-2,1,6,1,3,1,1,1,-14,1,-11,1,-17,1
582,-17,1,-6,1,11,1,11,1,-14,1,2,1,5,1,-3,1,-3,1,-17,1,-13,1,-20,1
583,-21,1,-3,1,18,1,12,1,-20,1,7,1,3,1,-7,1,-4,1,-18,1,-13,1,-21,1
584,-20,1,0,1,20,1,10,1,-20,1,10,1,3,1,-8,1,-4,1,-18,1,-12,1,-21,1
585,-13,1,-1,1,12,1,7,1,-13,1,5,1,7,1,-2,1,0,1,-12,1,-8,1,-16,1
586,-5,1,-3,1,2,1,4,1,-4,1,-1,1,11,1,4,1,6,1,-7,1,-4,1,-12,1
587,0,1,-4,1,-4,1,2,1,2,1,-4,1,14,1,11,1,10,1,-3,1,-3,1,-8,1
588,4,1,-7,1,-11,1,1,1,7,1,-9,1,15,1,15,1,12,1,-2,1,-3,1,-5,1
589,4,1,-10,1,-14,1,3,1,9,1,-12,1,14,1,16,1,12,1,-2,1,-3,1,-7,1
590,-2,1,-9,1,-7,1,5,1,2,1,-8,1,11,1,11,1,8,1,-7,1,-7,1,-11,1
591,-12,1,-8,1,4,1,10,1,-8,1,-2,1,7,1,4,1,3,1,-12,1,-9,1,-16,1
592,-18,1,-6,1,12,1,12,1,-15,1,3,1,4,1,-2,1,0,1,-15,1,-11,1,-18,1
593,-21,1,-3,1,18,1,12,1,-20,1,7,1,2,1,-7,1,-3,1,-17,1,-12,1,-21,1
594,-19,1,1,1,20,1,9,1,-19,1,10,1,3,1,-7,1,-3,1,-17,1,-11,1,-20,1
595,-13,1,0,1,13,1,6,1,-13,1,6,1,6,1,-3,1,1,1,-13,1,-8,1,-16,1
596,-4,1,0,1,4,1,2,1,-4,1,2,1,10,1,4,1,6,1,-7,1,-4,1,-12,1
597,3,1,-1,1,-4,1,-1,1,3,1,-2,1,13,1,12,1,10,1,-4,1,-3,1,-9,1
598,6,1,-5,1,-11,1,0,1,8,1,-8,1,14,1,15,1,12,1,-2,1,-2,1,-7,1
599,5,1,-8,1,-13,1,1,1,9,1,-10,1,13,1,17,1,13,1,-2,1,-2,1,-7,1
600,-3,1,-7,1,-4,1,5,1,0,1,-6,1,11,1,12,1,9,1,-6,1,-6,1,-11,1
601,-10,1,-4,1,6,1,7,1,-8,1,1,1,7,1,5,1,4,1,-11,1,-8,1,-16,1
602,-16,1,-3,1,13,1,9,1,-15,1,5,1,3,1,-1,1,0,1,-13,1,-11,1,-18,1
603,-20,1,-1,1,19,1,10,1,-20,1,9,1,2,1,-5,1,-2,1,-15,1,-12,1,-20,1
604,-18,1,3,1,21,1,7,1,-19,1,12,1,2,1,-7,1,-1,1,-14,1,-11,1,-19,1
605,-11,1,1,1,12,1,5,1,-11,1,6,1,7,1,-1,1,3,1,-10,1,-8,1,-15,1
606,-4,1,0,1,4,1,2,1,-4,1,2,1,12,1,6,1,8,1,-4,1,-3,1,-9,1
607,3,1,0,1,-3,1,-1,1,3,1,-1,1,14,1,12,1,13,1,-1,1,-1,1,-6,1
608,7,1,-3,1,-10,1,-2,1,8,1,-6,1,16,1,17,1,15,1,1,1,-1,1,-5,1
609,5,1,-7,1,-12,1,1,1,8,1,-9,1,15,1,18,1,14,1,0,1,-2,1,-5,1
610,0,1,-6,1,-6,1,3,1,3,1,-6,1,11,1,13,1,10,1,-3,1,-5,1,-9,1
611,-7,1,-3,1,4,1,5,1,-6,1,0,1,8,1,6,1,5,1,-8,1,-7,1,-13,1
612,-14,1,-1,1,13,1,7,1,-14,1,6,1,4,1,0,1,1,1,-12,1,-9,1,-16,1
613,-17,1,1,1,18,1,8,1,-17,1,9,1,2,1,-4,1,-1,1,-14,1,-11,1,-18,1
614,-15,1,6,1,21,1,4,1,-18,1,13,1,2,1,-6,1,-1,1,-14,1,-10,1,-19,1
615,-8,1,5,1,13,1,1,1,-10,1,9,1,6,1,0,1,3,1,-9,1,-6,1,-14,1
616,-2,1,3,1,5,1,0,1,-3,1,4,1,10,1,7,1,8,1,-5,1,-3,1,-10,1
617,4,1,1,1,-3,1,-2,1,4,1,-1,1,12,1,13,1,13,1,-1,1,-1,1,-6,1
618,8,1,-1,1,-9,1,-3,1,8,1,-5,1,15,1,18,1,16,1,1,1,0,1,-3,1
619,8,1,-3,1,-11,1,-2,1,9,1,-7,1,13,1,20,1,17,1,1,1,-1,1,-3,1
620,0,1,-2,1,-2,1,1,1,1,1,-2,1,9,1,14,1,12,1,-3,1,-4,1,-8,1
621,-7,1,0,1,7,1,3,1,-7,1,3,1,5,1,8,1,6,1,-8,1,-7,1,-13,1
622,-13,1,1,1,14,1,6,1,-13,1,7,1,2,1,1,1,1,1,-10,1,-9,1,-15,1
623,-15,1,6,1,21,1,4,1,-18,1,13,1,0,1,-3,1,0,1,-11,1,-9,1,-16,1
624,-15,1,8,1,23,1,3,1,-19,1,15,1,0,1,-4,1,0,1,-12,1,-8,1,-16,1
625,-9,1,6,1,15,1,1,1,-12,1,10,1,3,1,0,1,4,1,-8,1,-5,1,-13,1
626,0,1,5,1,5,1,-2,1,-2,1,5,1,7,1,7,1,9,1,-3,1,-3,1,-7,1
627,6,1,5,1,-1,1,-5,1,4,1,2,1,10,1,14,1,14,1,1,1,0,1,-3,1
628,10,1,2,1,-8,1,-6,1,9,1,-3,1,11,1,19,1,17,1,3,1,1,1,-1,1
629,10,1,0,1,-10,1,-5,1,10,1,-5,1,11,1,21,1,17,1,4,1,0,1,-1,1
630,3,1,1,1,-2,1,-2,1,3,1,0,1,9,1,17,1,12,1,0,1,-2,1,-5,1
631,-5,1,3,1,8,1,1,1,-6,1,5,1,4,1,9,1,6,1,-5,1,-5,1,-10,1
632,-12,1,4,1,16,1,4,1,-14,1,10,1,1,1,2,1,3,1,-9,1,-7,1,-12,1
633,-15,1,8,1,23,1,3,1,-19,1,15,1,0,1,-2,1,0,1,-11,1,-8,1,-14,1
634,-16,1,11,1,27,1,2,1,-21,1,19,1,1,1,-3,1,1,1,-10,1,-6,1,-13,1
635,-9,1,10,1,19,1,0,1,-14,1,14,1,3,1,1,1,6,1,-6,1,-3,1,-10,1
636,0,1,10,1,10,1,-5,1,-5,1,10,1,8,1,9,1,10,1,0,1,1,1,-4,1
637,7,1,10,1,3,1,-8,1,2,1,7,1,11,1,16,1,16,1,4,1,3,1,0,1
638,9,1,6,1,-3,1,-7,1,6,1,2,1,12,1,21,1,18,1,6,1,5,1,1,1
639,7,1,1,1,-6,1,-4,1,7,1,-2,1,10,1,22,1,18,1,5,1,2,1,0,1
640,2,1,5,1,3,1,-3,1,0,1,4,1,7,1,17,1,14,1,1,1,0,1,-2,1
641,-6,1,6,1,12,1,0,1,-9,1,9,1,5,1,11,1,10,1,-2,1,-2,1,-7,1
642,-14,1,6,1,20,1,4,1,-17,1,13,1,0,1,3,1,5,1,-5,1,-4,1,-11,1
643,-17,1,10,1,27,1,3,1,-22,1,18,1,-2,1,-1,1,2,1,-7,1,-5,1,-13,1
644,-17,1,15,1,32,1,1,1,-24,1,23,1,0,1,-1,1,4,1,-7,1,-4,1,-12,1
645,-10,1,15,1,25,1,-2,1,-17,1,20,1,3,1,3,1,8,1,-2,1,0,1,-8,1
646,-2,1,14,1,16,1,-6,1,-9,1,15,1,7,1,10,1,13,1,2,1,2,1,-3,1
647,5,1,13,1,8,1,-9,1,-1,1,11,1,10,1,15,1,18,1,6,1,5,1,1,1
648,8,1,11,1,3,1,-9,1,3,1,7,1,12,1,21,1,20,1,8,1,6,1,3,1
649,6,1,7,1,1,1,-6,1,3,1,4,1,10,1,22,1,20,1,8,1,5,1,3,1
650,0,1,9,1,9,1,-4,1,-4,1,9,1,7,1,17,1,16,1,4,1,2,1,0,1
651,-8,1,11,1,19,1,-1,1,-13,1,15,1,2,1,10,1,10,1,-1,1,0,1,-5,1
652,-14,1,14,1,28,1,0,1,-21,1,21,1,-1,1,2,1,7,1,-4,1,-2,1,-7,1
653,-17,1,18,1,35,1,0,1,-26,1,26,1,-1,1,-1,1,4,1,-6,1,-2,1,-9,1
654,-15,1,23,1,38,1,-4,1,-26,1,30,1,-1,1,-2,1,5,1,-5,1,-1,1,-7,1
655,-9,1,23,1,32,1,-7,1,-20,1,27,1,1,1,1,1,10,1,0,1,3,1,-2,1
656,-2,1,22,1,24,1,-10,1,-13,1,23,1,4,1,8,1,15,1,4,1,6,1,2,1
657,5,1,21,1,16,1,-13,1,-5,1,19,1,7,1,14,1,20,1,8,1,7,1,5,1
658,7,1,18,1,11,1,-12,1,-2,1,15,1,9,1,18,1,23,1,10,1,9,1,8,1
659,6,1,15,1,9,1,-10,1,-1,1,12,1,8,1,20,1,23,1,11,1,8,1,9,1
660,-1,1,17,1,18,1,-8,1,-9,1,17,1,4,1,15,1,19,1,7,1,5,1,5,1
661,-10,1,19,1,29,1,-4,1,-19,1,24,1,0,1,7,1,13,1,2,1,3,1,2,1
662,-15,1,23,1,38,1,-4,1,-26,1,30,1,-4,1,1,1,10,1,0,1,2,1,0,1
663,-20,1,26,1,46,1,-3,1,-33,1,36,1,-6,1,-4,1,8,1,-2,1,0,1,-2,1
664,-20,1,30,1,50,1,-5,1,-35,1,40,1,-6,1,-6,1,7,1,-1,1,2,1,-2,1
665,-12,1,30,1,42,1,-9,1,-27,1,36,1,-4,1,-2,1,12,1,3,1,6,1,2,1
666,-5,1,28,1,33,1,-11,1,-19,1,30,1,-1,1,4,1,17,1,9,1,9,1,7,1
667,0,1,27,1,27,1,-13,1,-13,1,27,1,1,1,11,1,22,1,13,1,11,1,11,1
668,4,1,25,1,21,1,-14,1,-8,1,23,1,3,1,14,1,24,1,15,1,12,1,13,1
669,3,1,24,1,21,1,-13,1,-9,1,23,1,3,1,15,1,25,1,15,1,12,1,14,1
670,-2,1,26,1,28,1,-12,1,-15,1,27,1,0,1,10,1,20,1,10,1,8,1,10,1
671,-14,1,26,1,40,1,-6,1,-27,1,33,1,-5,1,1,1,15,1,4,1,5,1,5,1
672,-21,1,28,1,49,1,-3,1,-35,1,38,1,-9,1,-6,1,10,1,0,1,2,1,1,1
673,-23,1,32,1,55,1,-4,1,-39,1,43,1,-10,1,-10,1,7,1,0,1,3,1,0,1
674,-22,1,36,1,58,1,-7,1,-40,1,47,1,-9,1,-12,1,7,1,0,1,4,1,1,1
675,-16,1,36,1,52,1,-10,1,-34,1,44,1,-5,1,-7,1,12,1,4,1,7,1,6,1
676,-10,1,33,1,43,1,-11,1,-26,1,38,1,-1,1,-2,1,17,1,8,1,10,1,10,1
677,-5,1,31,1,36,1,-13,1,-20,1,33,1,3,1,5,1,22,1,13,1,13,1,14,1
678,-3,1,28,1,31,1,-12,1,-17,1,29,1,4,1,9,1,25,1,15,1,13,1,15,1
679,-4,1,24,1,28,1,-10,1,-16,1,26,1,4,1,12,1,27,1,16,1,13,1,15,1
680,-10,1,25,1,35,1,-7,1,-22,1,30,1,2,1,9,1,24,1,13,1,11,1,12,1
681,-19,1,27,1,46,1,-4,1,-32,1,36,1,0,1,4,1,20,1,9,1,8,1,8,1
682,-27,1,27,1,54,1,0,1,-40,1,40,1,-2,1,-1,1,17,1,5,1,7,1,3,1
683,-31,1,29,1,60,1,1,1,-45,1,44,1,-2,1,-3,1,16,1,4,1,7,1,1,1
684,-30,1,32,1,62,1,-1,1,-46,1,47,1,0,1,-2,1,17,1,6,1,8,1,2,1
685,-24,1,30,1,54,1,-3,1,-39,1,42,1,4,1,4,1,22,1,10,1,11,1,4,1
686,-16,1,27,1,43,1,-5,1,-29,1,35,1,9,1,13,1,29,1,16,1,15,1,9,1
687,-9,1,24,1,33,1,-7,1,-21,1,28,1,14,1,22,1,35,1,22,1,17,1,12,1
688,-6,1,20,1,26,1,-7,1,-16,1,23,1,17,1,28,1,39,1,24,1,19,1,13,1
689,-7,1,14,1,21,1,-3,1,-14,1,17,1,17,1,31,1,39,1,24,1,18,1,13,1
690,-12,1,14,1,26,1,-1,1,-19,1,20,1,15,1,29,1,37,1,22,1,16,1,10,1
691,-21,1,16,1,37,1,2,1,-29,1,26,1,13,1,23,1,31,1,17,1,13,1,5,1
692,-28,1,15,1,43,1,6,1,-35,1,29,1,10,1,18,1,26,1,13,1,12,1,1,1
693,-31,1,16,1,47,1,7,1,-39,1,31,1,8,1,12,1,24,1,10,1,10,1,-1,1
694,-30,1,18,1,48,1,6,1,-39,1,33,1,9,1,10,1,22,1,9,1,10,1,-2,1
695,-23,1,15,1,38,1,4,1,-30,1,26,1,12,1,15,1,25,1,12,1,12,1,1,1
696,-14,1,12,1,26,1,1,1,-20,1,19,1,16,1,20,1,29,1,15,1,14,1,5,1
697,-7,1,9,1,16,1,-1,1,-11,1,12,1,20,1,25,1,31,1,17,1,15,1,7,1
698,-2,1,6,1,8,1,-2,1,-5,1,7,1,22,1,30,1,32,1,18,1,15,1,8,1
699,-2,1,1,1,3,1,0,1,-2,1,2,1,22,1,30,1,31,1,17,1,13,1,8,1
700,-9,1,2,1,11,1,3,1,-10,1,6,1,20,1,25,1,26,1,13,1,9,1,4,1
701,-15,1,3,1,18,1,6,1,-16,1,10,1,15,1,16,1,19,1,6,1,5,1,-1,1
702,-23,1,3,1,26,1,10,1,-24,1,14,1,11,1,8,1,13,1,1,1,2,1,-5,1
703,-26,1,4,1,30,1,11,1,-28,1,17,1,9,1,1,1,8,1,-3,1,0,1,-8,1
704,-26,1,7,1,33,1,9,1,-29,1,20,1,9,1,0,1,7,1,-4,1,0,1,-9,1
705,-20,1,4,1,24,1,8,1,-22,1,14,1,12,1,2,1,10,1,0,1,2,1,-6,1
706,-12,1,1,1,13,1,5,1,-12,1,7,1,16,1,8,1,14,1,3,1,5,1,-2,1
707,-4,1,1,1,5,1,1,1,-4,1,3,1,19,1,15,1,17,1,6,1,6,1,1,1
708,-3,1,-3,1,0,1,3,1,-2,1,-2,1,21,1,18,1,19,1,8,1,6,1,1,1
709,-4,1,-8,1,-4,1,6,1,0,1,-6,1,21,1,19,1,18,1,7,1,5,1,1,1
710,-9,1,-6,1,3,1,7,1,-6,1,-2,1,18,1,14,1,13,1,1,1,1,1,-3,1
711,-17,1,-6,1,11,1,11,1,-14,1,2,1,13,1,5,1,6,1,-4,1,-3,1,-9,1
712,-24,1,-4,1,20,1,14,1,-22,1,8,1,10,1,-1,1,2,1,-7,1,-6,1,-13,1
713,-26,1,-1,1,25,1,13,1,-26,1,12,1,10,1,-6,1,0,1,-10,1,-6,1,-14,1
714,-26,1,1,1,27,1,12,1,-26,1,14,1,9,1,-8,1,-1,1,-11,1,-6,1,-14,1
715,-19,1,0,1,19,1,9,1,-19,1,9,1,13,1,-4,1,1,1,-8,1,-3,1,-11,1
716,-11,1,-2,1,9,1,6,1,-10,1,3,1,17,1,2,1,6,1,-3,1,0,1,-6,1
717,-5,1,-4,1,1,1,4,1,-3,1,-2,1,21,1,8,1,11,1,1,1,2,1,-4,1
718,0,1,-7,1,-7,1,3,1,3,1,-7,1,22,1,12,1,13,1,3,1,3,1,-1,1
719,1,1,-9,1,-10,1,4,1,5,1,-9,1,22,1,14,1,14,1,3,1,3,1,0,1
720,-6,1,-10,1,-4,1,8,1,-1,1,-7,1,19,1,9,1,9,1,-1,1,-1,1,-4,1
721,-15,1,-9,1,6,1,12,1,-11,1,-2,1,14,1,2,1,2,1,-7,1,-5,1,-10,1
722,-21,1,-6,1,15,1,13,1,-18,1,4,1,12,1,-5,1,-2,1,-10,1,-7,1,-13,1
723,-26,1,-4,1,22,1,15,1,-24,1,9,1,10,1,-11,1,-4,1,-13,1,-8,1,-16,1
724,-27,1,-1,1,26,1,14,1,-27,1,12,1,11,1,-12,1,-5,1,-14,1,-8,1,-16,1
725,-21,1,-3,1,18,1,12,1,-20,1,7,1,14,1,-7,1,-1,1,-10,1,-3,1,-12,1
726,-13,1,-6,1,7,1,9,1,-10,1,0,1,17,1,-1,1,3,1,-5,1,-1,1,-7,1
727,-6,1,-7,1,-1,1,6,1,-3,1,-4,1,21,1,6,1,8,1,-1,1,1,1,-4,1
728,-2,1,-9,1,-7,1,5,1,2,1,-8,1,21,1,10,1,10,1,0,1,2,1,-3,1
729,-2,1,-13,1,-11,1,7,1,4,1,-12,1,22,1,12,1,11,1,0,1,1,1,-1,1
730,-9,1,-12,1,-3,1,10,1,-3,1,-8,1,18,1,8,1,8,1,-3,1,-1,1,-6,1
731,-18,1,-10,1,8,1,14,1,-13,1,-1,1,14,1,0,1,2,1,-8,1,-4,1,-10,1
732,-24,1,-8,1,16,1,16,1,-20,1,4,1,11,1,-6,1,-3,1,-12,1,-7,1,-13,1
733,-28,1,-4,1,24,1,16,1,-26,1,10,1,9,1,-11,1,-6,1,-14,1,-9,1,-17,1
734,-27,1,0,1,27,1,13,1,-27,1,13,1,8,1,-12,1,-7,1,-15,1,-8,1,-17,1
735,-19,1,-1,1,18,1,10,1,-19,1,8,1,12,1,-8,1,-3,1,-10,1,-5,1,-13,1
736,-11,1,-3,1,8,1,7,1,-10,1,2,1,15,1,-2,1,2,1,-6,1,-2,1,-8,1
737,-3,1,-3,1,0,1,3,1,-2,1,-2,1,19,1,5,1,7,1,-1,1,1,1,-4,1
738,-1,1,-7,1,-6,1,4,1,2,1,-7,1,20,1,10,1,9,1,0,1,1,1,-2,1
739,-3,1,-11,1,-8,1,7,1,2,1,-10,1,20,1,12,1,10,1,-1,1,0,1,-2,1
740,-11,1,-11,1,0,1,11,1,-6,1,-6,1,17,1,7,1,6,1,-5,1,-3,1,-6,1
741,-19,1,-9,1,10,1,14,1,-15,1,0,1,11,1,-1,1,0,1,-10,1,-7,1,-12,1
742,-26,1,-7,1,19,1,16,1,-23,1,6,1,8,1,-8,1,-5,1,-15,1,-9,1,-16,1
743,-28,1,-4,1,24,1,16,1,-26,1,10,1,6,1,-12,1,-7,1,-17,1,-9,1,-18,1
744,-29,1,-2,1,27,1,15,1,-28,1,12,1,5,1,-14,1,-7,1,-17,1,-9,1,-18,1
745,-22,1,-3,1,19,1,12,1,-21,1,8,1,8,1,-10,1,-3,1,-13,1,-6,1,-15,1
746,-15,1,-4,1,11,1,9,1,-13,1,3,1,12,1,-2,1,2,1,-8,1,-3,1,-10,1
747,-8,1,-6,1,2,1,7,1,-5,1,-2,1,15,1,4,1,6,1,-5,1,-1,1,-6,1
748,-3,1,-9,1,-6,1,6,1,1,1,-8,1,16,1,9,1,8,1,-3,1,-1,1,-5,1
749,-4,1,-13,1,-9,1,8,1,2,1,-11,1,16,1,11,1,8,1,-3,1,-1,1,-5,1
750,-10,1,-12,1,-2,1,11,1,-4,1,-7,1,13,1,6,1,4,1,-8,1,-4,1,-8,1
751,-18,1,-9,1,9,1,13,1,-14,1,0,1,9,1,0,1,0,1,-12,1,-8,1,-13,1
752,-26,1,-8,1,18,1,17,1,-22,1,5,1,7,1,-7,1,-5,1,-15,1,-10,1,-16,1
753,-30,1,-4,1,26,1,17,1,-28,1,11,1,5,1,-11,1,-7,1,-17,1,-10,1,-19,1
754,-29,1,0,1,29,1,14,1,-29,1,14,1,5,1,-12,1,-7,1,-18,1,-10,1,-19,1
755,-23,1,-1,1,22,1,12,1,-23,1,10,1,8,1,-8,1,-3,1,-13,1,-7,1,-15,1
756,-15,1,-2,1,13,1,8,1,-14,1,5,1,12,1,-2,1,1,1,-9,1,-4,1,-10,1
757,-7,1,-3,1,4,1,5,1,-6,1,0,1,14,1,5,1,6,1,-5,1,-3,1,-7,1
758,-4,1,-6,1,-2,1,5,1,-1,1,-4,1,15,1,9,1,9,1,-3,1,-2,1,-5,1
759,-5,1,-9,1,-4,1,7,1,-1,1,-7,1,15,1,11,1,9,1,-3,1,-3,1,-6,1
760,-10,1,-7,1,3,1,8,1,-7,1,-2,1,12,1,8,1,6,1,-6,1,-5,1,-9,1
761,-19,1,-6,1,13,1,12,1,-16,1,3,1,9,1,0,1,0,1,-11,1,-8,1,-13,1
762,-29,1,-7,1,22,1,18,1,-26,1,7,1,5,1,-8,1,-6,1,-17,1,-12,1,-17,1
763,-32,1,-4,1,28,1,18,1,-30,1,12,1,4,1,-12,1,-7,1,-18,1,-13,1,-19,1
764,-31,1,0,1,31,1,15,1,-31,1,15,1,5,1,-13,1,-7,1,-18,1,-11,1,-19,1
765,-24,1,0,1,24,1,12,1,-24,1,12,1,8,1,-9,1,-3,1,-14,1,-8,1,-16,1
766,-17,1,-3,1,14,1,10,1,-16,1,5,1,11,1,-2,1,1,1,-9,1,-6,1,-12,1
767,-9,1,-3,1,6,1,6,1,-8,1,1,1,15,1,5,1,6,1,-5,1,-4,1,-8,1
768,-5,1,-5,1,0,1,5,1,-3,1,-3,1,17,1,9,1,9,1,-3,1,-3,1,-5,1
769,-5,1,-8,1,-3,1,6,1,-1,1,-6,1,17,1,11,1,9,1,-2,1,-4,1,-5,1
770,-11,1,-6,1,5,1,8,1,-8,1,-1,1,14,1,7,1,6,1,-5,1,-6,1,-9,1
771,-18,1,-4,1,14,1,11,1,-16,1,5,1,11,1,1,1,1,1,-9,1,-9,1,-13,1
772,-25,1,-3,1,22,1,14,1,-24,1,9,1,9,1,-6,1,-3,1,-14,1,-11,1,-17,1
773,-29,1,-1,1,28,1,15,1,-29,1,13,1,8,1,-10,1,-5,1,-16,1,-12,1,-19,1
774,-29,1,2,1,31,1,13,1,-30,1,16,1,7,1,-11,1,-5,1,-16,1,-11,1,-19,1
775,-24,1,0,1,24,1,12,1,-24,1,12,1,11,1,-7,1,-1,1,-13,1,-8,1,-15,1
776,-13,1,1,1,14,1,6,1,-13,1,7,1,15,1,0,1,3,1,-8,1,-5,1,-11,1
777,-6,1,0,1,6,1,3,1,-6,1,3,1,19,1,7,1,8,1,-4,1,-2,1,-8,1
778,-5,1,-5,1,0,1,5,1,-3,1,-3,1,19,1,10,1,9,1,-3,1,-3,1,-7,1
779,-4,1,-9,1,-5,1,6,1,0,1,-7,1,20,1,12,1,10,1,-2,1,-3,1,-6,1
780,-11,1,-9,1,2,1,10,1,-7,1,-4,1,18,1,8,1,7,1,-6,1,-6,1,-9,1
781,-19,1,-7,1,12,1,13,1,-16,1,2,1,14,1,1,1,1,1,-12,1,-9,1,-14,1
782,-25,1,-4,1,21,1,14,1,-23,1,8,1,11,1,-5,1,-4,1,-16,1,-12,1,-18,1
783,-28,1,-1,1,27,1,14,1,-28,1,13,1,10,1,-10,1,-6,1,-18,1,-13,1,-20,1
784,-27,1,1,1,28,1,13,1,-27,1,14,1,9,1,-12,1,-7,1,-19,1,-12,1,-21,1
785,-21,1,0,1,21,1,10,1,-21,1,10,1,14,1,-9,1,-2,1,-15,1,-9,1,-17,1
786,-13,1,-2,1,11,1,7,1,-12,1,4,1,17,1,-2,1,3,1,-9,1,-5,1,-11,1
787,-5,1,-2,1,3,1,3,1,-4,1,0,1,20,1,5,1,7,1,-6,1,-3,1,-7,1
788,-1,1,-5,1,-4,1,3,1,1,1,-5,1,22,1,10,1,10,1,-3,1,-3,1,-6,1
789,-1,1,-8,1,-7,1,4,1,3,1,-8,1,22,1,12,1,9,1,-2,1,-2,1,-6,1
790,-8,1,-6,1,2,1,7,1,-5,1,-2,1,20,1,8,1,6,1,-5,1,-5,1,-10,1
791,-16,1,-5,1,11,1,10,1,-14,1,3,1,16,1,1,1,1,1,-10,1,-8,1,-15,1
792,-23,1,-4,1,19,1,13,1,-21,1,7,1,12,1,-6,1,-4,1,-15,1,-12,1,-19,1
793,-26,1,-1,1,25,1,13,1,-26,1,12,1,10,1,-10,1,-6,1,-17,1,-12,1,-20,1
794,-25,1,4,1,29,1,10,1,-27,1,16,1,10,1,-11,1,-7,1,-17,1,-12,1,-21,1
795,-18,1,4,1,22,1,7,1,-20,1,13,1,14,1,-7,1,-2,1,-14,1,-8,1,-17,1
796,-11,1,0,1,11,1,5,1,-11,1,5,1,17,1,-1,1,2,1,-9,1,-6,1,-13,1
797,-3,1,0,1,3,1,1,1,-3,1,1,1,20,1,5,1,7,1,-4,1,-3,1,-9,1
798,-1,1,-4,1,-3,1,2,1,1,1,-4,1,22,1,9,1,10,1,-2,1,-2,1,-7,1
799,0,1,-7,1,-7,1,3,1,3,1,-7,1,22,1,12,1,11,1,-2,1,-3,1,-7,1
800,-6,1,-7,1,-1,1,6,1,-3,1,-4,1,19,1,7,1,6,1,-6,1,-6,1,-11,1
801,-14,1,-5,1,9,1,9,1,-12,1,2,1,15,1,1,1,1,1,-12,1,-10,1,-15,1
802,-22,1,-4,1,18,1,13,1,-20,1,7,1,11,1,-6,1,-3,1,-15,1,-12,1,-18,1
803,-25,1,-2,1,23,1,13,1,-24,1,10,1,9,1,-11,1,-7,1,-18,1,-12,1,-20,1
804,-24,1,1,1,25,1,11,1,-24,1,13,1,8,1,-14,1,-8,1,-18,1,-11,1,-20,1
805,-19,1,0,1,19,1,9,1,-19,1,9,1,11,1,-10,1,-4,1,-14,1,-9,1,-16,1
806,-11,1,-2,1,9,1,6,1,-10,1,3,1,15,1,-3,1,1,1,-9,1,-5,1,-12,1
807,-4,1,-1,1,3,1,2,1,-4,1,1,1,18,1,4,1,6,1,-4,1,-2,1,-7,1
808,-2,1,-5,1,-3,1,3,1,0,1,-4,1,19,1,7,1,8,1,-2,1,-2,1,-6,1
809,-1,1,-7,1,-6,1,4,1,2,1,-7,1,20,1,10,1,9,1,-1,1,-1,1,-5,1
810,-6,1,-6,1,0,1,6,1,-3,1,-3,1,16,1,5,1,6,1,-5,1,-5,1,-9,1
811,-14,1,-4,1,10,1,9,1,-12,1,3,1,12,1,0,1,1,1,-10,1,-8,1,-13,1
812,-22,1,-4,1,18,1,13,1,-20,1,7,1,8,1,-8,1,-3,1,-15,1,-11,1,-17,1
813,-25,1,-2,1,23,1,13,1,-24,1,10,1,7,1,-12,1,-6,1,-17,1,-11,1,-19,1
814,-24,1,1,1,25,1,11,1,-24,1,13,1,6,1,-14,1,-7,1,-18,1,-11,1,-20,1
815,-17,1,0,1,17,1,8,1,-17,1,8,1,9,1,-10,1,-3,1,-14,1,-8,1,-18,1
816,-10,1,-2,1,8,1,6,1,-9,1,3,1,13,1,-4,1,1,1,-10,1,-6,1,-13,1
817,-3,1,-2,1,1,1,2,1,-2,1,-1,1,15,1,3,1,5,1,-6,1,-4,1,-10,1
818,1,1,-5,1,-6,1,2,1,3,1,-5,1,17,1,8,1,8,1,-3,1,-2,1,-8,1
819,2,1,-8,1,-10,1,3,1,6,1,-9,1,18,1,10,1,9,1,-2,1,-2,1,-6,1
820,-6,1,-10,1,-4,1,8,1,-1,1,-7,1,14,1,5,1,4,1,-6,1,-6,1,-11,1
821,-14,1,-7,1,7,1,10,1,-11,1,0,1,10,1,-1,1,0,1,-12,1,-9,1,-15,1
822,-21,1,-6,1,15,1,13,1,-18,1,4,1,6,1,-8,1,-5,1,-16,1,-11,1,-19,1
823,-23,1,-1,1,22,1,12,1,-23,1,10,1,4,1,-12,1,-7,1,-18,1,-11,1,-20,1
824,-23,1,2,1,25,1,10,1,-24,1,13,1,5,1,-15,1,-7,1,-18,1,-11,1,-20,1
825,-17,1,1,1,18,1,8,1,-17,1,9,1,7,1,-10,1,-3,1,-13,1,-8,1,-16,1
826,-10,1,-1,1,9,1,5,1,-10,1,4,1,11,1,-4,1,2,1,-8,1,-4,1,-12,1
827,-2,1,-3,1,-1,1,2,1,-1,1,-2,1,13,1,2,1,6,1,-4,1,-3,1,-9,1
828,0,1,-6,1,-6,1,3,1,3,1,-6,1,15,1,7,1,10,1,-2,1,-2,1,-7,1
829,0,1,-10,1,-10,1,5,1,5,1,-10,1,16,1,10,1,10,1,-1,1,-2,1,-5,1
830,-6,1,-10,1,-4,1,8,1,-1,1,-7,1,11,1,4,1,3,1,-6,1,-7,1,-10,1
831,-11,1,-6,1,5,1,8,1,-8,1,-1,1,9,1,-1,1,-1,1,-11,1,-9,1,-15,1
832,-19,1,-6,1,13,1,12,1,-16,1,3,1,6,1,-8,1,-5,1,-14,1,-11,1,-18,1
833,-24,1,-5,1,19,1,14,1,-22,1,7,1,4,1,-13,1,-8,1,-17,1,-13,1,-20,1
834,-22,1,0,1,22,1,11,1,-22,1,11,1,4,1,-14,1,-8,1,-17,1,-11,1,-19,1
835,-17,1,-2,1,15,1,9,1,-16,1,6,1,7,1,-11,1,-4,1,-13,1,-7,1,-15,1
836,-10,1,-5,1,5,1,7,1,-8,1,0,1,10,1,-4,1,1,1,-8,1,-4,1,-10,1
837,-3,1,-5,1,-2,1,4,1,-1,1,-4,1,14,1,3,1,6,1,-4,1,-1,1,-6,1
838,1,1,-7,1,-8,1,3,1,4,1,-7,1,16,1,7,1,9,1,-1,1,0,1,-4,1
839,3,1,-11,1,-14,1,4,1,8,1,-12,1,16,1,9,1,10,1,-1,1,0,1,-4,1
840,0,1,-10,1,-10,1,5,1,5,1,-10,1,12,1,7,1,6,1,-5,1,-3,1,-7,1
841,-7,1,-8,1,-1,1,7,1,-3,1,-5,1,8,1,0,1,0,1,-11,1,-7,1,-12,1
842,-15,1,-7,1,8,1,11,1,-12,1,0,1,6,1,-7,1,-4,1,-15,1,-9,1,-16,1
843,-19,1,-4,1,15,1,11,1,-17,1,5,1,4,1,-12,1,-7,1,-17,1,-10,1,-19,1
844,-18,1,1,1,19,1,8,1,-18,1,10,1,5,1,-13,1,-7,1,-17,1,-10,1,-19,1
845,-10,1,1,1,11,1,4,1,-10,1,6,1,8,1,-9,1,-3,1,-12,1,-7,1,-16,1
846,0,1,1,1,1,1,0,1,0,1,1,1,13,1,0,1,4,1,-6,1,-2,1,-11,1
847,7,1,1,1,-6,1,-4,1,7,1,-2,1,18,1,7,1,10,1,-1,1,0,1,-6,1
848,11,1,0,1,-11,1,-5,1,11,1,-5,1,21,1,14,1,14,1,2,1,3,1,-3,1
849,13,1,-2,1,-15,1,-5,1,14,1,-8,1,21,1,18,1,17,1,5,1,4,1,-1,1
850,8,1,-1,1,-9,1,-3,1,8,1,-5,1,17,1,14,1,14,1,1,1,2,1,-5,1
851,2,1,1,1,-1,1,-1,1,2,1,0,1,13,1,9,1,9,1,-3,1,0,1,-10,1
852,-6,1,1,1,7,1,2,1,-6,1,4,1,10,1,2,1,4,1,-6,1,-3,1,-13,1
853,-10,1,4,1,14,1,3,1,-12,1,9,1,8,1,-3,1,2,1,-9,1,-3,1,-14,1
854,-11,1,8,1,19,1,1,1,-15,1,13,1,8,1,-5,1,1,1,-10,1,-3,1,-14,1
855,-4,1,9,1,13,1,-2,1,-8,1,11,1,13,1,0,1,6,1,-4,1,1,1,-10,1
856,2,1,7,1,5,1,-4,1,-1,1,6,1,17,1,7,1,13,1,1,1,5,1,-5,1
857,11,1,10,1,-1,1,-10,1,6,1,5,1,23,1,16,1,20,1,7,1,8,1,0,1
858,14,1,7,1,-7,1,-10,1,11,1,0,1,25,1,22,1,22,1,10,1,11,1,3,1
859,16,1,5,1,-11,1,-10,1,14,1,-3,1,24,1,25,1,24,1,12,1,10,1,5,1
860,13,1,7,1,-6,1,-10,1,10,1,1,1,20,1,22,1,21,1,8,1,7,1,1,1
861,5,1,9,1,4,1,-7,1,1,1,7,1,15,1,13,1,15,1,3,1,4,1,-4,1
862,-1,1,10,1,11,1,-4,1,-6,1,10,1,10,1,5,1,9,1,-1,1,1,1,-8,1
863,-5,1,11,1,16,1,-3,1,-10,1,13,1,6,1,-2,1,6,1,-5,1,-1,1,-10,1
864,-5,1,14,1,19,1,-4,1,-12,1,16,1,4,1,-6,1,3,1,-7,1,-1,1,-11,1
865,2,1,14,1,12,1,-8,1,-5,1,13,1,4,1,-4,1,6,1,-4,1,1,1,-7,1
866,9,1,11,1,2,1,-10,1,4,1,7,1,6,1,0,1,9,1,0,1,4,1,-3,1
867,16,1,9,1,-7,1,-12,1,12,1,1,1,8,1,6,1,13,1,3,1,5,1,0,1
868,21,1,7,1,-14,1,-14,1,18,1,-3,1,11,1,14,1,17,1,7,1,7,1,2,1
869,24,1,4,1,-20,1,-14,1,22,1,-8,1,12,1,18,1,18,1,8,1,8,1,4,1
870,19,1,4,1,-15,1,-11,1,17,1,-5,1,10,1,16,1,16,1,6,1,6,1,1,1
871,9,1,3,1,-6,1,-6,1,8,1,-1,1,6,1,10,1,11,1,1,1,2,1,-4,1
872,0,1,2,1,2,1,-1,1,-1,1,2,1,2,1,2,1,6,1,-3,1,0,1,-8,1
873,-1,1,5,1,6,1,-2,1,-3,1,5,1,-1,1,-3,1,2,1,-6,1,-2,1,-11,1
874,-1,1,8,1,9,1,-3,1,-5,1,8,1,-1,1,-6,1,1,1,-8,1,-2,1,-12,1
875,5,1,6,1,1,1,-5,1,2,1,4,1,1,1,-4,1,3,1,-6,1,0,1,-9,1
876,11,1,3,1,-8,1,-7,1,10,1,-2,1,3,1,0,1,6,1,-3,1,1,1,-5,1
877,17,1,2,1,-15,1,-9,1,16,1,-6,1,6,1,6,1,9,1,0,1,3,1,-2,1
878,19,1,-1,1,-20,1,-9,1,19,1,-10,1,8,1,10,1,11,1,2,1,3,1,0,1
879,19,1,-6,1,-25,1,-6,1,22,1,-15,1,8,1,11,1,11,1,1,1,3,1,-1,1
880,13,1,-6,1,-19,1,-3,1,16,1,-12,1,5,1,7,1,7,1,-2,1,0,1,-5,1
881,3,1,-4,1,-7,1,0,1,5,1,-5,1,2,1,0,1,1,1,-9,1,-5,1,-11,1
882,-7,1,-5,1,2,1,6,1,-5,1,-2,1,0,1,-7,1,-4,1,-12,1,-8,1,-15,1
883,-12,1,-4,1,8,1,8,1,-10,1,2,1,-1,1,-12,1,-8,1,-16,1,-9,1,-18,1
884,-13,1,0,1,13,1,6,1,-13,1,6,1,0,1,-14,1,-8,1,-16,1,-9,1,-18,1
885,-9,1,-2,1,7,1,5,1,-8,1,2,1,5,1,-10,1,-4,1,-13,1,-7,1,-15,1
886,-5,1,-6,1,-1,1,5,1,-2,1,-4,1,9,1,-4,1,0,1,-8,1,-4,1,-12,1
887,2,1,-8,1,-10,1,3,1,6,1,-9,1,11,1,3,1,5,1,-3,1,-3,1,-8,1
888,9,1,-10,1,-19,1,0,1,14,1,-14,1,14,1,8,1,8,1,-1,1,-2,1,-6,1
889,7,1,-16,1,-23,1,4,1,15,1,-19,1,14,1,9,1,7,1,-2,1,-4,1,-7,1
890,-1,1,-17,1,-16,1,9,1,7,1,-17,1,9,1,3,1,3,1,-7,1,-8,1,-12,1
891,-8,1,-12,1,-4,1,10,1,-2,1,-8,1,6,1,-2,1,-2,1,-11,1,-11,1,-16,1
892,-14,1,-10,1,4,1,12,1,-9,1,-3,1,2,1,-9,1,-7,1,-16,1,-13,1,-20,1
893,-19,1,-7,1,12,1,13,1,-16,1,2,1,0,1,-16,1,-10,1,-19,1,-14,1,-23,1
894,-20,1,-4,1,16,1,12,1,-18,1,6,1,1,1,-18,1,-10,1,-20,1,-13,1,-23,1
895,-14,1,-5,1,9,1,9,1,-12,1,2,1,4,1,-15,1,-7,1,-16,1,-11,1,-20,1
896,-6,1,-7,1,-1,1,6,1,-3,1,-4,1,8,1,-8,1,-2,1,-11,1,-7,1,-13,1
897,0,1,-9,1,-9,1,4,1,4,1,-9,1,11,1,-1,1,1,1,-7,1,-6,1,-11,1
898,4,1,-12,1,-16,1,4,1,10,1,-14,1,12,1,3,1,4,1,-5,1,-4,1,-9,1
899,4,1,-17,1,-21,1,6,1,12,1,-19,1,13,1,6,1,4,1,-5,1,-4,1,-9,1
900,-2,1,-17,1,-15,1,9,1,6,1,-16,1,9,1,2,1,0,1,-10,1,-8,1,-12,1
901,-9,1,-15,1,-6,1,12,1,-2,1,-11,1,6,1,-5,1,-4,1,-14,1,-11,1,-17,1
902,-17,1,-12,1,5,1,14,1,-11,1,-4,1,2,1,-12,1,-8,1,-18,1,-13,1,-21,1
903,-20,1,-9,1,11,1,14,1,-16,1,1,1,1,1,-16,1,-11,1,-20,1,-14,1,-22,1
904,-23,1,-7,1,16,1,15,1,-20,1,4,1,1,1,-19,1,-11,1,-21,1,-14,1,-24,1
905,-17,1,-8,1,9,1,12,1,-13,1,0,1,5,1,-15,1,-9,1,-17,1,-11,1,-21,1
906,-8,1,-11,1,-3,1,9,1,-3,1,-7,1,8,1,-9,1,-3,1,-12,1,-9,1,-17,1
907,-1,1,-11,1,-10,1,6,1,4,1,-11,1,11,1,-2,1,1,1,-9,1,-7,1,-13,1
908,2,1,-14,1,-16,1,6,1,9,1,-15,1,13,1,3,1,4,1,-6,1,-5,1,-10,1
909,2,1,-16,1,-18,1,7,1,10,1,-17,1,14,1,6,1,5,1,-4,1,-5,1,-8,1
910,-2,1,-16,1,-14,1,9,1,6,1,-15,1,11,1,2,1,2,1,-8,1,-7,1,-12,1
911,-10,1,-14,1,-4,1,12,1,-3,1,-9,1,6,1,-5,1,-4,1,-13,1,-11,1,-18,1
912,-18,1,-13,1,5,1,15,1,-12,1,-4,1,3,1,-12,1,-9,1,-18,1,-14,1,-22,1
913,-21,1,-9,1,12,1,15,1,-17,1,1,1,1,1,-17,1,-11,1,-19,1,-14,1,-23,1
914,-20,1,-5,1,15,1,12,1,-18,1,5,1,1,1,-20,1,-12,1,-20,1,-14,1,-24,1
915,-15,1,-7,1,8,1,11,1,-12,1,0,1,4,1,-16,1,-8,1,-17,1,-11,1,-21,1
916,-9,1,-10,1,-1,1,9,1,-4,1,-6,1,7,1,-9,1,-3,1,-12,1,-8,1,-16,1
917,-1,1,-11,1,-10,1,6,1,4,1,-11,1,10,1,-2,1,1,1,-7,1,-5,1,-12,1
918,3,1,-14,1,-17,1,5,1,10,1,-15,1,12,1,3,1,5,1,-5,1,-4,1,-10,1
919,3,1,-18,1,-21,1,7,1,12,1,-19,1,13,1,5,1,6,1,-4,1,-4,1,-8,1
920,-3,1,-18,1,-15,1,10,1,6,1,-17,1,9,1,1,1,2,1,-8,1,-7,1,-11,1
921,-10,1,-16,1,-6,1,13,1,-2,1,-11,1,6,1,-6,1,-3,1,-13,1,-10,1,-15,1
922,-15,1,-13,1,2,1,14,1,-9,1,-6,1,3,1,-11,1,-6,1,-17,1,-12,1,-19,1
923,-19,1,-9,1,10,1,14,1,-15,1,0,1,3,1,-15,1,-9,1,-19,1,-13,1,-21,1
924,-22,1,-8,1,14,1,15,1,-18,1,3,1,1,1,-20,1,-12,1,-21,1,-14,1,-24,1
925,-21,1,-9,1,12,1,15,1,-17,1,1,1,6,1,-17,1,-9,1,-17,1,-11,1,-20,1
926,-14,1,-8,1,6,1,11,1,-10,1,-1,1,10,1,-10,1,-1,1,-10,1,-6,1,-12,1
927,-4,1,-6,1,-2,1,5,1,-1,1,-4,1,14,1,1,1,7,1,-2,1,-1,1,-6,1
928,4,1,-4,1,-8,1,0,1,6,1,-6,1,17,1,16,1,16,1,6,1,6,1,0,1
929,13,1,-1,1,-14,1,-6,1,13,1,-7,1,18,1,33,1,29,1,17,1,15,1,8,1
930,14,1,0,1,-14,1,-7,1,14,1,-7,1,15,1,48,1,39,1,24,1,20,1,9,1
931,14,1,4,1,-10,1,-9,1,12,1,-3,1,13,1,76,1,56,1,36,1,29,1,10,1
932,21,1,14,1,-7,1,-17,1,14,1,4,1,16,1,113,1,84,1,57,1,45,1,17,1
933,34,1,26,1,-8,1,-30,1,21,1,9,1,17,1,148,1,114,1,81,1,66,1,29,1
934,53,1,38,1,-15,1,-45,1,34,1,12,1,14,1,172,1,141,1,108,1,92,1,46,1
935,85,1,49,1,-36,1,-67,1,61,1,7,1,12,1,201,1,173,1,144,1,125,1,72,1
936,125,1,58,1,-67,1,-91,1,96,1,-4,1,11,1,235,1,209,1,182,1,161,1,102,1
937,176,1,69,1,-107,1,-122,1,142,1,-19,1,-4,1,257,1,237,1,218,1,199,1,133,1
938,230,1,86,1,-144,1,-158,1,187,1,-29,1,-30,1,264,1,256,1,253,1,241,1,169,1
939,274,1,103,1,-171,1,-188,1,223,1,-34,1,-62,1,216,1,243,1,270,1,273,1,202,1
940,304,1,122,1,-182,1,-213,1,243,1,-30,1,-93,1,149,1,212,1,271,1,294,1,227,1
941,327,1,140,1,-187,1,-233,1,257,1,-23,1,-118,1,90,1,180,1,263,1,306,1,242,1
942,331,1,156,1,-175,1,-243,1,253,1,-9,1,-130,1,38,1,147,1,247,1,302,1,246,1
943,335,1,168,1,-167,1,-251,1,251,1,1,1,-147,1,-8,1,114,1,229,1,296,1,247,1
944,338,1,167,1,-171,1,-252,1,255,1,-2,1,-167,1,-51,1,78,1,203,1,276,1,233,1
945,332,1,147,1,-185,1,-239,1,259,1,-19,1,-181,1,-97,1,28,1,154,1,228,1,198,1
946,311,1,110,1,-201,1,-210,1,256,1,-45,1,-187,1,-144,1,-35,1,85,1,158,1,147,1
947,265,1,72,1,-193,1,-168,1,229,1,-60,1,-181,1,-198,1,-98,1,12,1,82,1,92,1
948,171,1,25,1,-146,1,-98,1,159,1,-60,1,-142,1,-246,1,-155,1,-68,1,-5,1,25,1
949,68,1,-19,1,-87,1,-24,1,77,1,-53,1,-100,1,-295,1,-212,1,-145,1,-86,1,-32,1
950,0,1,-44,1,-44,1,22,1,22,1,-44,1,-84,1,-335,1,-259,1,-201,1,-137,1,-68,1
951,-42,1,-58,1,-16,1,50,1,-13,1,-37,1,-76,1,-338,1,-273,1,-223,1,-162,1,-92,1
952,-72,1,-71,1,1,1,71,1,-37,1,-35,1,-62,1,-317,1,-264,1,-224,1,-171,1,-110,1
953,-83,1,-77,1,6,1,80,1,-45,1,-36,1,-54,1,-292,1,-250,1,-217,1,-170,1,-119,1
954,-80,1,-67,1,13,1,73,1,-47,1,-27,1,-51,1,-263,1,-226,1,-198,1,-154,1,-110,1
955,-63,1,-51,1,12,1,57,1,-38,1,-20,1,-43,1,-218,1,-186,1,-164,1,-127,1,-90,1
956,-48,1,-40,1,8,1,44,1,-28,1,-16,1,-32,1,-172,1,-146,1,-130,1,-102,1,-72,1
957,-35,1,-31,1,4,1,33,1,-20,1,-14,1,-21,1,-132,1,-111,1,-102,1,-81,1,-56,1
958,-25,1,-29,1,-4,1,27,1,-11,1,-17,1,-15,1,-105,1,-89,1,-84,1,-66,1,-45,1
959,-16,1,-30,1,-14,1,23,1,-1,1,-22,1,-8,1,-75,1,-64,1,-62,1,-51,1,-35,1
960,-16,1,-27,1,-11,1,21,1,-3,1,-19,1,-2,1,-52,1,-45,1,-47,1,-39,1,-30,1
961,-19,1,-20,1,-1,1,19,1,-9,1,-11,1,0,1,-41,1,-34,1,-39,1,-31,1,-28,1
962,-24,1,-17,1,7,1,20,1,-16,1,-5,1,-2,1,-38,1,-31,1,-36,1,-29,1,-29,1
963,-27,1,-14,1,13,1,20,1,-20,1,-1,1,-2,1,-37,1,-29,1,-34,1,-27,1,-29,1
964,-25,1,-9,1,16,1,17,1,-21,1,3,1,-2,1,-36,1,-27,1,-33,1,-26,1,-30,1
965,-19,1,-9,1,10,1,14,1,-15,1,0,1,0,1,-29,1,-21,1,-29,1,-22,1,-25,1
966,-14,1,-14,1,0,1,14,1,-7,1,-7,1,5,1,-20,1,-15,1,-23,1,-18,1,-21,1
967,-7,1,-15,1,-8,1,11,1,0,1,-12,1,10,1,-11,1,-9,1,-18,1,-15,1,-17,1
968,-1,1,-16,1,-15,1,8,1,7,1,-16,1,12,1,-4,1,-5,1,-14,1,-13,1,-14,1
969,0,1,-19,1,-19,1,9,1,9,1,-19,1,13,1,1,1,-1,1,-11,1,-12,1,-12,1
970,-9,1,-19,1,-10,1,14,1,0,1,-15,1,11,1,0,1,-3,1,-14,1,-14,1,-14,1
971,-15,1,-16,1,-1,1,15,1,-7,1,-9,1,7,1,-5,1,-7,1,-17,1,-17,1,-19,1
972,-22,1,-15,1,7,1,18,1,-15,1,-4,1,5,1,-10,1,-11,1,-22,1,-19,1,-23,1
973,-24,1,-11,1,13,1,17,1,-19,1,1,1,3,1,-14,1,-12,1,-22,1,-19,1,-24,1
974,-26,1,-8,1,18,1,17,1,-22,1,5,1,3,1,-15,1,-12,1,-23,1,-18,1,-25,1
975,-19,1,-9,1,10,1,14,1,-15,1,0,1,7,1,-11,1,-7,1,-17,1,-14,1,-21,1
976,-13,1,-12,1,1,1,12,1,-7,1,-6,1,10,1,-5,1,-2,1,-13,1,-11,1,-16,1
977,-6,1,-13,1,-7,1,9,1,0,1,-10,1,13,1,2,1,3,1,-8,1,-9,1,-11,1
978,-2,1,-16,1,-14,1,9,1,6,1,-15,1,15,1,8,1,6,1,-5,1,-6,1,-9,1
979,-2,1,-19,1,-17,1,10,1,7,1,-18,1,16,1,12,1,8,1,-3,1,-6,1,-6,1
980,-6,1,-19,1,-13,1,12,1,3,1,-16,1,14,1,9,1,5,1,-6,1,-8,1,-9,1
981,-13,1,-16,1,-3,1,14,1,-5,1,-10,1,11,1,4,1,0,1,-11,1,-11,1,-13,1
982,-20,1,-14,1,6,1,17,1,-13,1,-4,1,7,1,-3,1,-3,1,-15,1,-13,1,-16,1
983,-22,1,-10,1,12,1,16,1,-17,1,1,1,5,1,-7,1,-6,1,-17,1,-14,1,-18,1
984,-25,1,-6,1,19,1,15,1,-22,1,6,1,4,1,-10,1,-7,1,-19,1,-14,1,-20,1
985,-20,1,-7,1,13,1,13,1,-17,1,3,1,7,1,-7,1,-4,1,-16,1,-11,1,-17,1
986,-13,1,-11,1,2,1,12,1,-8,1,-5,1,10,1,0,1,1,1,-11,1,-9,1,-13,1
987,-5,1,-12,1,-7,1,8,1,1,1,-10,1,14,1,7,1,6,1,-6,1,-7,1,-9,1
988,0,1,-15,1,-15,1,7,1,7,1,-15,1,16,1,12,1,10,1,-4,1,-4,1,-6,1
989,1,1,-17,1,-18,1,8,1,9,1,-17,1,17,1,16,1,11,1,-3,1,-4,1,-5,1
990,-4,1,-17,1,-13,1,10,1,4,1,-15,1,13,1,12,1,7,1,-6,1,-7,1,-9,1
991,-11,1,-15,1,-4,1,13,1,-4,1,-10,1,9,1,6,1,4,1,-10,1,-8,1,-13,1
992,-19,1,-14,1,5,1,16,1,-12,1,-5,1,5,1,-1,1,0,1,-15,1,-11,1,-17,1
993,-24,1,-12,1,12,1,18,1,-18,1,0,1,5,1,-6,1,-4,1,-18,1,-13,1,-20,1
994,-24,1,-7,1,17,1,15,1,-21,1,5,1,5,1,-9,1,-6,1,-19,1,-13,1,-21,1
995,-17,1,-6,1,11,1,11,1,-14,1,2,1,8,1,-4,1,-2,1,-14,1,-9,1,-17,1
996,-10,1,-9,1,1,1,9,1,-6,1,-4,1,11,1,2,1,4,1,-9,1,-6,1,-12,1
997,-2,1,-10,1,-8,1,6,1,3,1,-9,1,15,1,10,1,8,1,-4,1,-3,1,-8,1
998,1,1,-12,1,-13,1,5,1,7,1,-12,1,17,1,15,1,12,1,-2,1,-3,1,-6,1
999,2,1,-15,1,-17,1,6,1,9,1,-16,1,17,1,18,1,13,1,-1,1,-3,1,-5,1
1000,-2,1,-15,1,-13,1,8,1,5,1,-14,1,15,1,14,1,9,1,-4,1,-6,1,-7,1
1001,-10,1,-13,1,-3,1,11,1,-4,1,-8,1,10,1,6,1,4,1,-10,1,-9,1,-11,1
1002,-20,1,-13,1,7,1,16,1,-14,1,-3,1,7,1,-1,1,0,1,-14,1,-11,1,-15,1
1003,-23,1,-11,1,12,1,17,1,-18,1,0,1,4,1,-5,1,-3,1,-16,1,-12,1,-18,1
1004,-22,1,-6,1,16,1,14,1,-19,1,5,1,4,1,-7,1,-3,1,-16,1,-11,1,-19,1
1005,-14,1,-4,1,10,1,9,1,-12,1,3,1,6,1,-2,1,1,1,-13,1,-8,1,-15,1
1006,-7,1,-7,1,0,1,7,1,-4,1,-4,1,11,1,4,1,6,1,-8,1,-5,1,-11,1
1007,0,1,-8,1,-8,1,4,1,4,1,-8,1,13,1,11,1,10,1,-4,1,-3,1,-8,1
1008,3,1,-11,1,-14,1,4,1,8,1,-12,1,14,1,15,1,11,1,-1,1,-1,1,-6,1
1009,4,1,-15,1,-19,1,5,1,11,1,-17,1,15,1,18,1,13,1,-1,1,-2,1,-5,1
1010,0,1,-14,1,-14,1,7,1,7,1,-14,1,13,1,14,1,9,1,-4,1,-5,1,-9,1
1011,-8,1,-12,1,-4,1,10,1,-2,1,-8,1,8,1,9,1,5,1,-8,1,-8,1,-12,1
1012,-17,1,-10,1,7,1,13,1,-12,1,-2,1,6,1,2,1,1,1,-12,1,-9,1,-15,1
1013,-20,1,-7,1,13,1,13,1,-17,1,3,1,4,1,-2,1,-1,1,-14,1,-9,1,-17,1
1014,-20,1,-2,1,18,1,11,1,-19,1,8,1,3,1,-5,1,-1,1,-14,1,-8,1,-17,1
1015,-14,1,-2,1,12,1,8,1,-13,1,5,1,6,1,-2,1,1,1,-9,1,-5,1,-12,1
1016,-7,1,-4,1,3,1,5,1,-5,1,-1,1,10,1,3,1,5,1,-5,1,-3,1,-8,1
1017,0,1,-5,1,-5,1,2,1,2,1,-5,1,12,1,9,1,10,1,-2,1,-1,1,-4,1
1018,5,1,-6,1,-11,1,0,1,8,1,-8,1,15,1,16,1,14,1,1,1,0,1,-1,1
1019,7,1,-11,1,-18,1,2,1,12,1,-14,1,16,1,19,1,15,1,2,1,0,1,0,1
1020,1,1,-11,1,-12,1,5,1,6,1,-11,1,13,1,15,1,11,1,-1,1,-3,1,-4,1
1021,-5,1,-9,1,-4,1,7,1,-1,1,-7,1,8,1,9,1,6,1,-6,1,-6,1,-8,1
1022,-15,1,-7,1,8,1,11,1,-12,1,0,1,5,1,2,1,1,1,-11,1,-9,1,-12,1
1023,-17,1,-4,1,13,1,10,1,-15,1,4,1,3,1,-3,1,-2,1,-14,1,-11,1,-16,1
1024,-16,1,0,1,16,1,8,1,-16,1,8,1,1,1,-6,1,-3,1,-15,1,-11,1,-17,1
1025,-11,1,0,1,11,1,5,1,-11,1,5,1,4,1,-2,1,0,1,-11,1,-8,1,-13,1
1026,-5,1,-4,1,1,1,4,1,-3,1,-2,1,7,1,2,1,5,1,-8,1,-7,1,-10,1
1027,2,1,-5,1,-7,1,1,1,4,1,-6,1,10,1,10,1,11,1,-2,1,-3,1,-5,1
1028,5,1,-6,1,-11,1,0,1,8,1,-8,1,13,1,16,1,14,1,0,1,-1,1,-2,1
1029,8,1,-7,1,-15,1,0,1,11,1,-11,1,13,1,20,1,16,1,2,1,-1,1,-1,1
1030,2,1,-8,1,-10,1,3,1,6,1,-9,1,10,1,16,1,13,1,0,1,-3,1,-3,1
1031,-5,1,-4,1,1,1,4,1,-3,1,-2,1,8,1,10,1,9,1,-4,1,-6,1,-7,1
1032,-11,1,-3,1,8,1,7,1,-10,1,2,1,4,1,3,1,4,1,-9,1,-8,1,-10,1
1033,-17,1,-2,1,15,1,9,1,-16,1,6,1,2,1,-2,1,0,1,-11,1,-10,1,-13,1
1034,-18,1,3,1,21,1,7,1,-19,1,12,1,2,1,-4,1,-1,1,-12,1,-10,1,-14,1
1035,-11,1,4,1,15,1,3,1,-13,1,9,1,5,1,0,1,2,1,-8,1,-7,1,-11,1
1036,-5,1,1,1,6,1,2,1,-5,1,3,1,8,1,6,1,7,1,-3,1,-4,1,-7,1
1037,4,1,0,1,-4,1,-2,1,4,1,-2,1,11,1,14,1,12,1,1,1,0,1,-1,1
1038,9,1,-2,1,-11,1,-3,1,10,1,-6,1,12,1,18,1,15,1,3,1,0,1,0,1
1039,9,1,-6,1,-15,1,-1,1,12,1,-10,1,13,1,23,1,17,1,5,1,1,1,2,1
1040,5,1,-5,1,-10,1,0,1,7,1,-7,1,11,1,20,1,14,1,2,1,0,1,0,1
1041,-3,1,-3,1,0,1,3,1,-2,1,-2,1,7,1,13,1,9,1,-2,1,-4,1,-5,1
1042,-12,1,-3,1,9,1,7,1,-11,1,3,1,3,1,6,1,4,1,-6,1,-6,1,-9,1
1043,-18,1,0,1,18,1,9,1,-18,1,9,1,0,1,1,1,2,1,-9,1,-7,1,-12,1
1044,-19,1,3,1,22,1,8,1,-20,1,12,1,-1,1,-1,1,1,1,-10,1,-7,1,-13,1
1045,-11,1,6,1,17,1,2,1,-14,1,11,1,2,1,2,1,5,1,-6,1,-3,1,-8,1
1046,-4,1,4,1,8,1,0,1,-6,1,6,1,6,1,8,1,9,1,-1,1,0,1,-3,1
1047,1,1,3,1,2,1,-2,1,0,1,3,1,10,1,16,1,15,1,3,1,3,1,1,1
1048,4,1,1,1,-3,1,-2,1,4,1,-1,1,12,1,21,1,18,1,6,1,4,1,3,1
1049,8,1,-1,1,-9,1,-3,1,8,1,-5,1,14,1,24,1,21,1,9,1,6,1,5,1
1050,1,1,-1,1,-2,1,0,1,1,1,-1,1,9,1,20,1,16,1,5,1,2,1,1,1
1051,-6,1,1,1,7,1,2,1,-6,1,4,1,5,1,14,1,12,1,1,1,0,1,-2,1
1052,-13,1,3,1,16,1,5,1,-14,1,9,1,1,1,7,1,7,1,-3,1,-3,1,-6,1
1053,-15,1,7,1,22,1,4,1,-18,1,14,1,0,1,2,1,5,1,-4,1,-3,1,-8,1
1054,-17,1,10,1,27,1,3,1,-22,1,18,1,-1,1,-1,1,4,1,-6,1,-2,1,-7,1
1055,-14,1,9,1,23,1,2,1,-18,1,16,1,1,1,2,1,8,1,-3,1,1,1,-3,1
1056,-7,1,7,1,14,1,0,1,-10,1,10,1,3,1,8,1,12,1,2,1,4,1,0,1
1057,0,1,6,1,6,1,-3,1,-3,1,6,1,8,1,15,1,18,1,7,1,7,1,6,1
1058,5,1,4,1,-1,1,-4,1,3,1,2,1,10,1,21,1,22,1,10,1,9,1,8,1
1059,7,1,2,1,-5,1,-4,1,6,1,-1,1,10,1,23,1,23,1,12,1,9,1,9,1
1060,0,1,1,1,1,1,0,1,0,1,1,1,6,1,20,1,19,1,8,1,6,1,6,1
1061,-6,1,4,1,10,1,1,1,-8,1,7,1,2,1,14,1,15,1,4,1,3,1,2,1
1062,-15,1,6,1,21,1,4,1,-18,1,13,1,-1,1,6,1,10,1,-1,1,0,1,-2,1
1063,-16,1,11,1,27,1,2,1,-21,1,19,1,-3,1,1,1,7,1,-2,1,0,1,-3,1
1064,-19,1,15,1,34,1,2,1,-26,1,24,1,-5,1,-2,1,5,1,-4,1,0,1,-5,1
1065,-13,1,17,1,30,1,-2,1,-21,1,23,1,-1,1,1,1,10,1,0,1,4,1,0,1
1066,-7,1,15,1,22,1,-4,1,-14,1,18,1,2,1,7,1,16,1,5,1,8,1,4,1
1067,0,1,14,1,14,1,-7,1,-7,1,14,1,4,1,13,1,20,1,9,1,10,1,8,1
1068,4,1,13,1,9,1,-8,1,-2,1,11,1,5,1,16,1,22,1,11,1,10,1,10,1
1069,7,1,11,1,4,1,-9,1,2,1,8,1,5,1,19,1,25,1,12,1,10,1,12,1
1070,0,1,11,1,11,1,-5,1,-5,1,11,1,2,1,15,1,20,1,9,1,8,1,9,1
1071,-5,1,16,1,21,1,-5,1,-13,1,18,1,-3,1,10,1,15,1,5,1,5,1,6,1
1072,-13,1,18,1,31,1,-2,1,-22,1,24,1,-6,1,2,1,12,1,2,1,4,1,3,1
1073,-20,1,19,1,39,1,0,1,-29,1,29,1,-9,1,-3,1,8,1,0,1,2,1,1,1
1074,-18,1,25,1,43,1,-3,1,-30,1,34,1,-11,1,-6,1,7,1,0,1,3,1,0,1
1075,-13,1,28,1,41,1,-7,1,-27,1,34,1,-9,1,-3,1,11,1,2,1,6,1,5,1
1076,-9,1,23,1,32,1,-7,1,-20,1,27,1,-6,1,1,1,15,1,6,1,9,1,9,1
1077,-2,1,22,1,24,1,-10,1,-13,1,23,1,-3,1,7,1,19,1,10,1,11,1,13,1
1078,2,1,19,1,17,1,-10,1,-7,1,18,1,-2,1,12,1,22,1,12,1,11,1,15,1
1079,4,1,17,1,13,1,-10,1,-4,1,15,1,0,1,16,1,25,1,15,1,13,1,18,1
1080,-1,1,19,1,20,1,-9,1,-10,1,19,1,-3,1,11,1,21,1,12,1,11,1,15,1
1081,-7,1,23,1,30,1,-8,1,-18,1,26,1,-7,1,4,1,16,1,8,1,8,1,10,1
1082,-18,1,21,1,39,1,-1,1,-28,1,30,1,-11,1,-4,1,9,1,2,1,5,1,5,1
1083,-23,1,25,1,48,1,-1,1,-35,1,36,1,-14,1,-10,1,6,1,0,1,4,1,5,1
1084,-23,1,32,1,55,1,-4,1,-39,1,43,1,-14,1,-13,1,6,1,0,1,4,1,4,1
1085,-17,1,32,1,49,1,-7,1,-33,1,40,1,-11,1,-10,1,9,1,2,1,6,1,7,1
1086,-11,1,30,1,41,1,-9,1,-26,1,35,1,-9,1,-4,1,14,1,7,1,10,1,11,1
1087,-5,1,28,1,33,1,-11,1,-19,1,30,1,-6,1,2,1,19,1,12,1,12,1,15,1
1088,-3,1,25,1,28,1,-11,1,-15,1,26,1,-4,1,7,1,23,1,14,1,13,1,17,1
1089,-1,1,22,1,23,1,-10,1,-12,1,22,1,-3,1,10,1,25,1,17,1,14,1,18,1
1090,-6,1,22,1,28,1,-8,1,-17,1,25,1,-5,1,9,1,24,1,15,1,12,1,16,1
1091,-15,1,24,1,39,1,-4,1,-27,1,31,1,-7,1,4,1,20,1,10,1,9,1,10,1
1092,-24,1,23,1,47,1,0,1,-35,1,35,1,-8,1,0,1,17,1,7,1,7,1,6,1
1093,-29,1,24,1,53,1,2,1,-41,1,38,1,-9,1,-2,1,16,1,5,1,7,1,3,1
1094,-29,1,28,1,57,1,0,1,-43,1,42,1,-9,1,-4,1,15,1,5,1,7,1,2,1
1095,-23,1,28,1,51,1,-2,1,-37,1,39,1,-4,1,2,1,21,1,10,1,11,1,5,1
1096,-16,1,25,1,41,1,-4,1,-28,1,33,1,1,1,11,1,28,1,16,1,15,1,9,1
1097,-9,1,21,1,30,1,-6,1,-19,1,25,1,5,1,19,1,34,1,21,1,17,1,13,1
1098,-7,1,15,1,22,1,-4,1,-14,1,18,1,8,1,27,1,38,1,24,1,18,1,15,1
1099,-5,1,10,1,15,1,-2,1,-10,1,12,1,11,1,32,1,40,1,26,1,19,1,15,1
1100,-10,1,8,1,18,1,1,1,-14,1,13,1,9,1,30,1,36,1,22,1,16,1,11,1
1101,-15,1,10,1,25,1,2,1,-20,1,17,1,5,1,25,1,32,1,18,1,14,1,6,1
1102,-21,1,11,1,32,1,5,1,-26,1,21,1,3,1,19,1,27,1,14,1,11,1,1,1
1103,-26,1,12,1,38,1,7,1,-32,1,25,1,2,1,14,1,24,1,10,1,10,1,0,1
1104,-27,1,13,1,40,1,7,1,-33,1,26,1,1,1,11,1,20,1,7,1,8,1,-3,1
1105,-21,1,14,1,35,1,3,1,-28,1,24,1,4,1,14,1,22,1,10,1,11,1,0,1
1106,-14,1,11,1,25,1,1,1,-19,1,18,1,8,1,19,1,26,1,14,1,13,1,3,1
1107,-5,1,7,1,12,1,-1,1,-8,1,9,1,10,1,25,1,29,1,16,1,15,1,6,1
1108,-2,1,3,1,5,1,0,1,-3,1,4,1,13,1,30,1,31,1,19,1,15,1,8,1
1109,-1,1,-2,1,-1,1,1,1,0,1,-2,1,13,1,32,1,30,1,19,1,13,1,8,1
1110,-6,1,-3,1,3,1,4,1,-5,1,0,1,11,1,27,1,25,1,14,1,10,1,4,1
1111,-11,1,0,1,11,1,5,1,-11,1,5,1,7,1,20,1,19,1,7,1,5,1,-1,1
1112,-19,1,0,1,19,1,9,1,-19,1,9,1,5,1,12,1,13,1,2,1,1,1,-6,1
1113,-24,1,1,1,25,1,11,1,-24,1,13,1,3,1,6,1,10,1,0,1,0,1,-9,1
1114,-24,1,4,1,28,1,10,1,-26,1,16,1,1,1,1,1,7,1,-3,1,-1,1,-11,1
1115,-21,1,4,1,25,1,8,1,-23,1,14,1,4,1,5,1,9,1,-1,1,2,1,-8,1
1116,-14,1,0,1,14,1,7,1,-14,1,7,1,8,1,9,1,11,1,2,1,3,1,-4,1
1117,-3,1,-1,1,2,1,2,1,-3,1,0,1,11,1,16,1,15,1,6,1,6,1,0,1
1118,0,1,-5,1,-5,1,2,1,2,1,-5,1,13,1,19,1,17,1,7,1,6,1,0,1
1119,0,1,-10,1,-10,1,5,1,5,1,-10,1,13,1,21,1,17,1,7,1,4,1,1,1
1120,-5,1,-10,1,-5,1,7,1,0,1,-8,1,10,1,17,1,14,1,4,1,2,1,-1,1
1121,-12,1,-8,1,4,1,10,1,-8,1,-2,1,7,1,10,1,9,1,-1,1,-1,1,-6,1
1122,-21,1,-7,1,14,1,14,1,-18,1,3,1,4,1,2,1,2,1,-7,1,-5,1,-11,1
1123,-24,1,-4,1,20,1,14,1,-22,1,8,1,1,1,-3,1,-1,1,-10,1,-7,1,-14,1
1124,-25,1,0,1,25,1,12,1,-25,1,12,1,0,1,-6,1,-3,1,-12,1,-8,1,-16,1
1125,-20,1,0,1,20,1,10,1,-20,1,10,1,3,1,-4,1,0,1,-9,1,-5,1,-13,1
1126,-13,1,-3,1,10,1,8,1,-12,1,3,1,6,1,2,1,4,1,-4,1,-2,1,-9,1
1127,-6,1,-5,1,1,1,5,1,-4,1,-2,1,11,1,9,1,9,1,0,1,0,1,-5,1
1128,-1,1,-8,1,-7,1,4,1,3,1,-8,1,11,1,13,1,11,1,1,1,1,1,-4,1
1129,1,1,-10,1,-11,1,4,1,6,1,-10,1,13,1,16,1,12,1,3,1,1,1,-2,1
1130,-5,1,-11,1,-6,1,8,1,0,1,-9,1,10,1,13,1,9,1,0,1,-1,1,-4,1
1131,-12,1,-8,1,4,1,10,1,-8,1,-2,1,7,1,7,1,3,1,-5,1,-5,1,-10,1
1132,-19,1,-8,1,11,1,13,1,-15,1,1,1,4,1,-2,1,-2,1,-9,1,-8,1,-14,1
1133,-23,1,-6,1,17,1,14,1,-20,1,5,1,1,1,-7,1,-5,1,-12,1,-8,1,-16,1
1134,-24,1,-2,1,22,1,13,1,-23,1,10,1,0,1,-11,1,-7,1,-13,1,-8,1,-17,1
1135,-18,1,-2,1,16,1,10,1,-17,1,7,1,3,1,-6,1,-2,1,-9,1,-4,1,-12,1
1136,-14,1,-7,1,7,1,10,1,-11,1,0,1,4,1,-2,1,1,1,-6,1,-2,1,-8,1
1137,-8,1,-10,1,-2,1,9,1,-3,1,-6,1,8,1,4,1,5,1,-1,1,0,1,-3,1
1138,-3,1,-11,1,-8,1,7,1,2,1,-10,1,10,1,9,1,8,1,1,1,2,1,-1,1
1139,-3,1,-16,1,-13,1,9,1,5,1,-15,1,9,1,12,1,10,1,2,1,0,1,-1,1
1140,-8,1,-16,1,-8,1,12,1,0,1,-12,1,6,1,8,1,7,1,-3,1,-2,1,-5,1
1141,-15,1,-11,1,4,1,13,1,-10,1,-4,1,3,1,3,1,2,1,-6,1,-5,1,-8,1
1142,-22,1,-10,1,12,1,16,1,-17,1,1,1,0,1,-4,1,-4,1,-12,1,-8,1,-13,1
1143,-26,1,-8,1,18,1,17,1,-22,1,5,1,-2,1,-9,1,-7,1,-15,1,-10,1,-15,1
1144,-27,1,-5,1,22,1,16,1,-25,1,8,1,-3,1,-12,1,-8,1,-17,1,-11,1,-17,1
1145,-22,1,-4,1,18,1,13,1,-20,1,7,1,-1,1,-10,1,-6,1,-15,1,-9,1,-15,1
1146,-15,1,-6,1,9,1,10,1,-12,1,1,1,2,1,-4,1,-1,1,-10,1,-6,1,-10,1
1147,-8,1,-8,1,0,1,8,1,-4,1,-4,1,5,1,2,1,3,1,-5,1,-3,1,-6,1
1148,-3,1,-11,1,-8,1,7,1,2,1,-10,1,6,1,8,1,6,1,-3,1,-1,1,-3,1
1149,0,1,-13,1,-13,1,6,1,6,1,-13,1,7,1,12,1,9,1,-1,1,-1,1,-1,1
1150,-5,1,-12,1,-7,1,8,1,1,1,-10,1,4,1,9,1,7,1,-3,1,-3,1,-4,1
1151,-12,1,-8,1,4,1,10,1,-8,1,-2,1,0,1,3,1,1,1,-7,1,-6,1,-9,1
1152,-23,1,-10,1,13,1,16,1,-18,1,1,1,-4,1,-5,1,-4,1,-13,1,-10,1,-14,1
1153,-29,1,-11,1,18,1,20,1,-24,1,3,1,-7,1,-10,1,-8,1,-16,1,-12,1,-17,1
1154,-29,1,-6,1,23,1,17,1,-26,1,8,1,-7,1,-13,1,-9,1,-17,1,-12,1,-18,1
1155,-26,1,-5,1,21,1,15,1,-24,1,8,1,-5,1,-11,1,-7,1,-14,1,-9,1,-15,1
1156,-18,1,-6,1,12,1,12,1,-15,1,3,1,-1,1,-3,1,-1,1,-9,1,-6,1,-10,1
1157,-9,1,-7,1,2,1,8,1,-6,1,-3,1,1,1,4,1,4,1,-4,1,-3,1,-6,1
1158,-4,1,-10,1,-6,1,7,1,1,1,-8,1,3,1,9,1,7,1,-2,1,-2,1,-4,1
1159,-2,1,-13,1,-11,1,7,1,4,1,-12,1,3,1,12,1,9,1,-1,1,-2,1,-4,1
1160,-8,1,-14,1,-6,1,11,1,-1,1,-10,1,0,1,9,1,5,1,-4,1,-5,1,-7,1
1161,-14,1,-11,1,3,1,12,1,-9,1,-4,1,-3,1,3,1,2,1,-9,1,-8,1,-11,1
1162,-20,1,-8,1,12,1,14,1,-16,1,2,1,-6,1,-3,1,-2,1,-13,1,-11,1,-14,1
1163,-26,1,-6,1,20,1,16,1,-23,1,7,1,-8,1,-10,1,-6,1,-16,1,-12,1,-17,1
1164,-29,1,-5,1,24,1,17,1,-27,1,9,1,-11,1,-14,1,-9,1,-20,1,-13,1,-19,1
1165,-22,1,-2,1,20,1,12,1,-21,1,9,1,-9,1,-10,1,-5,1,-15,1,-11,1,-15,1
1166,-15,1,-4,1,11,1,9,1,-13,1,3,1,-5,1,-4,1,1,1,-10,1,-7,1,-11,1
1167,-7,1,-4,1,3,1,5,1,-5,1,-1,1,-1,1,3,1,6,1,-6,1,-4,1,-7,1
1168,-4,1,-7,1,-3,1,5,1,-1,1,-5,1,0,1,8,1,9,1,-4,1,-4,1,-4,1
1169,-2,1,-10,1,-8,1,6,1,3,1,-9,1,0,1,11,1,10,1,-2,1,-4,1,-3,1
1170,-7,1,-10,1,-3,1,8,1,-2,1,-7,1,-1,1,7,1,7,1,-6,1,-7,1,-7,1
1171,-13,1,-8,1,5,1,10,1,-9,1,-2,1,-4,1,2,1,2,1,-10,1,-10,1,-11,1
1172,-21,1,-6,1,15,1,13,1,-18,1,4,1,-6,1,-4,1,-2,1,-13,1,-13,1,-15,1
1173,-24,1,-4,1,20,1,14,1,-22,1,8,1,-10,1,-10,1,-4,1,-16,1,-14,1,-17,1
1174,-27,1,-2,1,25,1,14,1,-26,1,11,1,-10,1,-12,1,-6,1,-18,1,-14,1,-18,1
1175,-23,1,-2,1,21,1,12,1,-22,1,9,1,-7,1,-10,1,-3,1,-15,1,-12,1,-16,1
1176,-16,1,-5,1,11,1,10,1,-14,1,3,1,-3,1,-2,1,3,1,-10,1,-8,1,-12,1
1177,-6,1,-6,1,0,1,6,1,-3,1,-3,1,0,1,4,1,8,1,-5,1,-7,1,-8,1
1178,-4,1,-10,1,-6,1,7,1,1,1,-8,1,2,1,9,1,10,1,-3,1,-6,1,-6,1
1179,-2,1,-13,1,-11,1,7,1,4,1,-12,1,3,1,13,1,12,1,-1,1,-5,1,-4,1
1180,-5,1,-12,1,-7,1,8,1,1,1,-10,1,1,1,11,1,9,1,-4,1,-7,1,-6,1
1181,-12,1,-10,1,2,1,11,1,-7,1,-4,1,-2,1,5,1,4,1,-9,1,-10,1,-12,1
1182,-18,1,-8,1,10,1,13,1,-14,1,1,1,-6,1,-2,1,-1,1,-14,1,-13,1,-17,1
1183,-20,1,-5,1,15,1,12,1,-18,1,5,1,-9,1,-8,1,-5,1,-17,1,-15,1,-20,1
1184,-22,1,-1,1,21,1,11,1,-22,1,10,1,-9,1,-12,1,-7,1,-19,1,-15,1,-22,1
1185,-15,1,0,1,15,1,7,1,-15,1,7,1,-5,1,-9,1,-3,1,-15,1,-12,1,-18,1
1186,-8,1,-2,1,6,1,5,1,-7,1,2,1,-2,1,-3,1,1,1,-11,1,-9,1,-14,1
1187,-1,1,-5,1,-4,1,3,1,1,1,-5,1,0,1,3,1,6,1,-7,1,-9,1,-11,1
1188,4,1,-7,1,-11,1,1,1,7,1,-9,1,3,1,9,1,8,1,-5,1,-7,1,-9,1
1189,7,1,-10,1,-17,1,1,1,12,1,-13,1,4,1,12,1,10,1,-4,1,-7,1,-8,1
1190,1,1,-11,1,-12,1,5,1,6,1,-11,1,1,1,9,1,7,1,-7,1,-10,1,-10,1
1191,-5,1,-10,1,-5,1,7,1,0,1,-8,1,-2,1,3,1,2,1,-11,1,-13,1,-15,1
1192,-12,1,-8,1,4,1,10,1,-8,1,-2,1,-5,1,-4,1,-3,1,-16,1,-15,1,-19,1
1193,-15,1,-5,1,10,1,10,1,-13,1,2,1,-8,1,-9,1,-6,1,-18,1,-16,1,-21,1
1194,-16,1,0,1,16,1,8,1,-16,1,8,1,-8,1,-12,1,-7,1,-19,1,-15,1,-22,1
1195,-10,1,0,1,10,1,5,1,-10,1,5,1,-6,1,-10,1,-4,1,-16,1,-13,1,-19,1
1196,-4,1,-3,1,1,1,3,1,-3,1,-1,1,-3,1,-4,1,0,1,-11,1,-10,1,-14,1
1197,3,1,-5,1,-8,1,1,1,5,1,-6,1,0,1,3,1,4,1,-7,1,-7,1,-9,1
1198,8,1,-6,1,-14,1,-1,1,11,1,-10,1,0,1,7,1,7,1,-5,1,-6,1,-7,1
1199,10,1,-10,1,-20,1,0,1,15,1,-15,1,2,1,11,1,9,1,-3,1,-5,1,-6,1
1200,5,1,-10,1,-15,1,2,1,10,1,-12,1,0,1,7,1,5,1,-7,1,-8,1,-9,1
1201,-3,1,-8,1,-5,1,5,1,1,1,-7,1,-3,1,1,1,0,1,-11,1,-11,1,-14,1
1202,-9,1,-5,1,4,1,7,1,-7,1,-1,1,-6,1,-5,1,-4,1,-15,1,-13,1,-17,1
1203,-13,1,-3,1,10,1,8,1,-12,1,3,1,-9,1,-10,1,-6,1,-17,1,-14,1,-18,1
1204,-15,1,0,1,15,1,7,1,-15,1,7,1,-10,1,-14,1,-8,1,-19,1,-14,1,-20,1
1205,-12,1,0,1,12,1,6,1,-12,1,6,1,-7,1,-11,1,-4,1,-17,1,-12,1,-17,1
1206,-4,1,-4,1,0,1,4,1,-2,1,-2,1,-4,1,-5,1,0,1,-13,1,-10,1,-14,1
1207,5,1,-3,1,-8,1,-1,1,6,1,-5,1,-2,1,2,1,5,1,-8,1,-8,1,-10,1
1208,9,1,-5,1,-14,1,-2,1,11,1,-9,1,0,1,7,1,7,1,-7,1,-7,1,-9,1
1209,11,1,-9,1,-20,1,-1,1,15,1,-14,1,2,1,10,1,8,1,-5,1,-7,1,-7,1
1210,6,1,-9,1,-15,1,1,1,10,1,-12,1,1,1,7,1,5,1,-8,1,-9,1,-10,1
1211,1,1,-6,1,-7,1,2,1,4,1,-6,1,-4,1,0,1,0,1,-12,1,-13,1,-15,1
1212,-8,1,-6,1,2,1,7,1,-5,1,-2,1,-7,1,-5,1,-5,1,-16,1,-15,1,-19,1
1213,-14,1,-5,1,9,1,9,1,-12,1,2,1,-9,1,-10,1,-7,1,-18,1,-16,1,-22,1
1214,-14,1,-1,1,13,1,7,1,-14,1,6,1,-10,1,-13,1,-8,1,-19,1,-16,1,-24,1
1215,-9,1,0,1,9,1,4,1,-9,1,4,1,-6,1,-10,1,-5,1,-16,1,-13,1,-20,1
1216,-2,1,-2,1,0,1,2,1,-1,1,-1,1,-3,1,-5,1,-1,1,-12,1,-10,1,-16,1
1217,3,1,-5,1,-8,1,1,1,5,1,-6,1,0,1,1,1,4,1,-8,1,-8,1,-12,1
1218,8,1,-8,1,-16,1,0,1,12,1,-12,1,2,1,7,1,7,1,-6,1,-7,1,-10,1
1219,11,1,-11,1,-22,1,0,1,16,1,-16,1,2,1,9,1,9,1,-5,1,-8,1,-9,1
1220,6,1,-12,1,-18,1,3,1,12,1,-15,1,0,1,8,1,7,1,-6,1,-8,1,-11,1
1221,-2,1,-10,1,-8,1,6,1,3,1,-9,1,-4,1,2,1,2,1,-10,1,-12,1,-16,1
1222,-9,1,-8,1,1,1,8,1,-5,1,-4,1,-8,1,-5,1,-4,1,-15,1,-16,1,-20,1
1223,-12,1,-4,1,8,1,8,1,-10,1,2,1,-11,1,-11,1,-8,1,-18,1,-16,1,-23,1
1224,-14,1,0,1,14,1,7,1,-14,1,7,1,-12,1,-15,1,-10,1,-20,1,-16,1,-24,1
1225,-10,1,0,1,10,1,5,1,-10,1,5,1,-10,1,-12,1,-8,1,-16,1,-13,1,-21,1
1226,-5,1,-6,1,-1,1,5,1,-2,1,-4,1,-8,1,-7,1,-4,1,-13,1,-12,1,-17,1
1227,2,1,-7,1,-9,1,2,1,5,1,-8,1,-4,1,0,1,1,1,-9,1,-8,1,-12,1
1228,6,1,-9,1,-15,1,1,1,10,1,-12,1,-1,1,5,1,4,1,-5,1,-6,1,-8,1
1229,8,1,-14,1,-22,1,3,1,15,1,-18,1,0,1,8,1,6,1,-4,1,-7,1,-7,1
1230,3,1,-14,1,-17,1,5,1,10,1,-15,1,-3,1,4,1,3,1,-6,1,-9,1,-11,1
1231,-1,1,-10,1,-9,1,5,1,4,1,-10,1,-8,1,-1,1,-1,1,-11,1,-12,1,-16,1
1232,-11,1,-9,1,2,1,10,1,-7,1,-4,1,-11,1,-8,1,-6,1,-15,1,-14,1,-19,1
1233,-15,1,-7,1,8,1,11,1,-12,1,0,1,-13,1,-13,1,-8,1,-16,1,-14,1,-21,1
1234,-16,1,-3,1,13,1,9,1,-15,1,5,1,-15,1,-16,1,-10,1,-18,1,-15,1,-21,1
1235,-11,1,-2,1,9,1,6,1,-10,1,3,1,-12,1,-13,1,-7,1,-16,1,-12,1,-19,1
1236,-3,1,-4,1,-1,1,3,1,-1,1,-3,1,-10,1,-7,1,-3,1,-11,1,-10,1,-16,1
1237,4,1,-6,1,-10,1,1,1,7,1,-8,1,-7,1,0,1,2,1,-6,1,-7,1,-12,1
1238,8,1,-10,1,-18,1,1,1,13,1,-14,1,-5,1,6,1,5,1,-3,1,-7,1,-10,1
1239,10,1,-14,1,-24,1,2,1,17,1,-19,1,-4,1,9,1,7,1,-1,1,-5,1,-8,1
1240,5,1,-15,1,-20,1,5,1,12,1,-17,1,-7,1,7,1,4,1,-5,1,-8,1,-10,1
1241,-1,1,-12,1,-11,1,6,1,5,1,-12,1,-11,1,1,1,0,1,-10,1,-12,1,-15,1
1242,-7,1,-7,1,0,1,7,1,-4,1,-4,1,-12,1,-6,1,-4,1,-13,1,-14,1,-18,1
1243,-13,1,-6,1,7,1,9,1,-10,1,0,1,-14,1,-11,1,-7,1,-16,1,-14,1,-21,1
1244,-18,1,-5,1,13,1,11,1,-16,1,4,1,-15,1,-14,1,-9,1,-18,1,-15,1,-23,1
1245,-12,1,-4,1,8,1,8,1,-10,1,2,1,-13,1,-12,1,-6,1,-15,1,-12,1,-20,1
1246,-5,1,-7,1,-2,1,6,1,-2,1,-5,1,-10,1,-6,1,-1,1,-10,1,-9,1,-15,1
1247,4,1,-8,1,-12,1,2,1,8,1,-10,1,-6,1,1,1,4,1,-6,1,-6,1,-10,1
1248,9,1,-11,1,-20,1,1,1,14,1,-15,1,-5,1,6,1,7,1,-4,1,-5,1,-8,1
1249,7,1,-17,1,-24,1,5,1,15,1,-20,1,-4,1,10,1,8,1,-1,1,-5,1,-6,1
1250,2,1,-17,1,-19,1,7,1,10,1,-18,1,-6,1,8,1,6,1,-4,1,-6,1,-8,1
1251,-2,1,-13,1,-11,1,7,1,4,1,-12,1,-9,1,3,1,2,1,-8,1,-9,1,-12,1
1252,-9,1,-10,1,-1,1,9,1,-4,1,-6,1,-13,1,-3,1,-2,1,-12,1,-11,1,-16,1
1253,-11,1,-6,1,5,1,8,1,-8,1,-1,1,-15,1,-8,1,-5,1,-14,1,-11,1,-17,1
1254,-14,1,-2,1,12,1,8,1,-13,1,5,1,-14,1,-11,1,-6,1,-14,1,-11,1,-19,1
1255,-9,1,0,1,9,1,4,1,-9,1,4,1,-11,1,-7,1,-2,1,-10,1,-7,1,-16,1
1256,-2,1,-1,1,1,1,1,1,-2,1,0,1,-8,1,-1,1,3,1,-5,1,-4,1,-11,1
1257,5,1,0,1,-5,1,-2,1,5,1,-2,1,-3,1,7,1,9,1,0,1,0,1,-6,1
1258,11,1,0,1,-11,1,-5,1,11,1,-5,1,0,1,13,1,13,1,3,1,1,1,-3,1
1259,15,1,-3,1,-18,1,-6,1,16,1,-10,1,0,1,17,1,15,1,4,1,2,1,0,1
1260,12,1,-3,1,-15,1,-4,1,13,1,-9,1,-2,1,16,1,14,1,4,1,1,1,-2,1
1261,7,1,0,1,-7,1,-3,1,7,1,-3,1,-5,1,11,1,10,1,0,1,-1,1,-5,1
1262,-1,1,0,1,1,1,0,1,-1,1,0,1,-9,1,3,1,4,1,-4,1,-3,1,-9,1
1263,-7,1,3,1,10,1,2,1,-8,1,6,1,-11,1,-2,1,1,1,-7,1,-4,1,-11,1
1264,-9,1,8,1,17,1,0,1,-13,1,12,1,-10,1,-4,1,1,1,-8,1,-4,1,-12,1
1265,-4,1,11,1,15,1,-3,1,-9,1,13,1,-6,1,0,1,6,1,-3,1,0,1,-7,1
1266,2,1,10,1,8,1,-6,1,-3,1,9,1,-1,1,8,1,12,1,2,1,5,1,-2,1
1267,13,1,9,1,-4,1,-11,1,9,1,3,1,2,1,17,1,19,1,9,1,8,1,3,1
1268,17,1,7,1,-10,1,-12,1,14,1,-1,1,5,1,23,1,24,1,12,1,11,1,6,1
1269,17,1,3,1,-14,1,-10,1,16,1,-5,1,5,1,27,1,26,1,14,1,10,1,8,1
1270,13,1,2,1,-11,1,-7,1,12,1,-4,1,1,1,23,1,21,1,9,1,7,1,4,1
1271,6,1,4,1,-2,1,-5,1,4,1,1,1,-4,1,14,1,15,1,3,1,3,1,-1,1
1272,-1,1,6,1,7,1,-2,1,-4,1,6,1,-10,1,5,1,9,1,-2,1,0,1,-6,1
1273,-5,1,9,1,14,1,-2,1,-9,1,11,1,-14,1,-1,1,5,1,-4,1,-2,1,-8,1
1274,-5,1,14,1,19,1,-4,1,-12,1,16,1,-18,1,-6,1,1,1,-6,1,-2,1,-9,1
1275,1,1,16,1,15,1,-8,1,-7,1,16,1,-18,1,-8,1,2,1,-4,1,0,1,-6,1
1276,6,1,12,1,6,1,-9,1,0,1,9,1,-16,1,-3,1,5,1,-1,1,1,1,-3,1
1277,14,1,11,1,-3,1,-12,1,9,1,4,1,-11,1,6,1,12,1,4,1,4,1,1,1
1278,22,1,9,1,-13,1,-15,1,18,1,-2,1,-8,1,14,1,16,1,7,1,6,1,4,1
1279,25,1,5,1,-20,1,-15,1,23,1,-7,1,-7,1,19,1,20,1,10,1,7,1,6,1
1280,18,1,2,1,-16,1,-10,1,17,1,-7,1,-9,1,17,1,17,1,7,1,4,1,3,1
1281,10,1,2,1,-8,1,-6,1,9,1,-3,1,-12,1,11,1,12,1,2,1,2,1,-2,1
1282,2,1,4,1,2,1,-3,1,0,1,3,1,-15,1,5,1,8,1,-2,1,-1,1,-7,1
1283,-2,1,5,1,7,1,-1,1,-4,1,6,1,-19,1,-1,1,3,1,-7,1,-4,1,-10,1
1284,-4,1,7,1,11,1,-1,1,-7,1,9,1,-21,1,-6,1,0,1,-10,1,-5,1,-12,1
1285,-1,1,5,1,6,1,-2,1,-3,1,5,1,-19,1,-4,1,2,1,-7,1,-3,1,-10,1
1286,6,1,2,1,-4,1,-4,1,5,1,-1,1,-16,1,0,1,4,1,-4,1,-1,1,-7,1
1287,14,1,1,1,-13,1,-7,1,14,1,-6,1,-13,1,7,1,9,1,0,1,0,1,-3,1
1288,18,1,-1,1,-19,1,-8,1,18,1,-10,1,-11,1,12,1,11,1,2,1,2,1,-1,1
1289,19,1,-5,1,-24,1,-7,1,21,1,-14,1,-11,1,15,1,13,1,4,1,1,1,0,1
1290,11,1,-7,1,-18,1,-2,1,14,1,-12,1,-12,1,11,1,9,1,0,1,-2,1,-4,1
1291,4,1,-5,1,-9,1,0,1,6,1,-7,1,-15,1,4,1,4,1,-5,1,-5,1,-7,1
1292,-5,1,-5,1,0,1,5,1,-3,1,-3,1,-17,1,-3,1,-1,1,-9,1,-8,1,-12,1
1293,-11,1,-3,1,8,1,7,1,-10,1,2,1,-18,1,-8,1,-3,1,-11,1,-9,1,-14,1
1294,-13,1,1,1,14,1,6,1,-13,1,7,1,-18,1,-11,1,-4,1,-13,1,-10,1,-17,1
1295,-10,1,0,1,10,1,5,1,-10,1,5,1,-15,1,-8,1,-2,1,-10,1,-9,1,-16,1
1296,-6,1,-4,1,2,1,5,1,-4,1,-1,1,-12,1,-3,1,2,1,-7,1,-6,1,-13,1
1297,0,1,-6,1,-6,1,3,1,3,1,-6,1,-8,1,3,1,6,1,-3,1,-4,1,-8,1
1298,5,1,-10,1,-15,1,2,1,10,1,-12,1,-6,1,8,1,8,1,-2,1,-4,1,-7,1
1299,7,1,-13,1,-20,1,3,1,13,1,-16,1,-5,1,11,1,10,1,-1,1,-5,1,-7,1
1300,3,1,-14,1,-17,1,5,1,10,1,-15,1,-7,1,9,1,6,1,-3,1,-9,1,-9,1
1301,-4,1,-12,1,-8,1,8,1,2,1,-10,1,-11,1,2,1,1,1,-9,1,-12,1,-15,1
1302,-12,1,-12,1,0,1,12,1,-6,1,-6,1,-15,1,-4,1,-4,1,-13,1,-14,1,-19,1
1303,-16,1,-9,1,7,1,12,1,-12,1,-1,1,-17,1,-10,1,-6,1,-16,1,-16,1,-20,1
1304,-18,1,-6,1,12,1,12,1,-15,1,3,1,-17,1,-13,1,-8,1,-18,1,-17,1,-22,1
1305,-14,1,-6,1,8,1,10,1,-11,1,1,1,-15,1,-11,1,-5,1,-15,1,-13,1,-19,1
1306,-8,1,-9,1,-1,1,8,1,-4,1,-5,1,-12,1,-5,1,0,1,-10,1,-10,1,-14,1
1307,0,1,-11,1,-11,1,5,1,5,1,-11,1,-8,1,1,1,4,1,-6,1,-7,1,-11,1
1308,5,1,-13,1,-18,1,4,1,11,1,-15,1,-7,1,7,1,7,1,-4,1,-7,1,-8,1
1309,6,1,-16,1,-22,1,5,1,14,1,-19,1,-7,1,11,1,9,1,-3,1,-6,1,-6,1
1310,0,1,-18,1,-18,1,9,1,9,1,-18,1,-9,1,8,1,6,1,-5,1,-8,1,-9,1
1311,-5,1,-15,1,-10,1,10,1,2,1,-13,1,-13,1,3,1,2,1,-9,1,-11,1,-12,1
1312,-14,1,-14,1,0,1,14,1,-7,1,-7,1,-17,1,-5,1,-4,1,-14,1,-13,1,-17,1
1313,-18,1,-11,1,7,1,14,1,-13,1,-2,1,-18,1,-10,1,-7,1,-17,1,-14,1,-19,1
1314,-20,1,-7,1,13,1,13,1,-17,1,3,1,-19,1,-13,1,-10,1,-19,1,-16,1,-21,1
1315,-15,1,-6,1,9,1,10,1,-12,1,1,1,-16,1,-10,1,-6,1,-16,1,-12,1,-17,1
1316,-8,1,-6,1,2,1,7,1,-5,1,-2,1,-12,1,-5,1,-1,1,-11,1,-9,1,-13,1
1317,-2,1,-10,1,-8,1,6,1,3,1,-9,1,-10,1,0,1,2,1,-7,1,-9,1,-10,1
1318,0,1,-14,1,-14,1,7,1,7,1,-14,1,-8,1,5,1,5,1,-6,1,-8,1,-9,1
1319,4,1,-16,1,-20,1,6,1,12,1,-18,1,-8,1,9,1,7,1,-4,1,-7,1,-8,1
1320,-1,1,-18,1,-17,1,9,1,8,1,-18,1,-10,1,7,1,5,1,-6,1,-9,1,-11,1
1321,-7,1,-14,1,-7,1,10,1,0,1,-11,1,-12,1,2,1,0,1,-11,1,-12,1,-15,1
1322,-15,1,-12,1,3,1,13,1,-9,1,-5,1,-14,1,-5,1,-4,1,-14,1,-14,1,-17,1
1323,-18,1,-10,1,8,1,14,1,-13,1,-1,1,-16,1,-10,1,-6,1,-17,1,-15,1,-20,1
1324,-20,1,-7,1,13,1,13,1,-17,1,3,1,-18,1,-14,1,-8,1,-19,1,-15,1,-22,1
1325,-14,1,-5,1,9,1,9,1,-12,1,2,1,-16,1,-12,1,-6,1,-16,1,-13,1,-19,1
1326,-10,1,-9,1,1,1,9,1,-6,1,-4,1,-12,1,-6,1,-2,1,-11,1,-10,1,-15,1
1327,-3,1,-11,1,-8,1,7,1,2,1,-10,1,-9,1,1,1,2,1,-8,1,-7,1,-11,1
1328,2,1,-13,1,-15,1,5,1,8,1,-14,1,-5,1,7,1,6,1,-4,1,-6,1,-7,1
1329,4,1,-17,1,-21,1,6,1,12,1,-19,1,-4,1,10,1,8,1,-4,1,-6,1,-7,1
1330,0,1,-18,1,-18,1,9,1,9,1,-18,1,-7,1,8,1,5,1,-6,1,-9,1,-10,1
1331,-7,1,-15,1,-8,1,11,1,0,1,-12,1,-10,1,2,1,0,1,-10,1,-12,1,-14,1
1332,-14,1,-13,1,1,1,13,1,-8,1,-6,1,-13,1,-5,1,-3,1,-14,1,-14,1,-18,1
1333,-18,1,-8,1,10,1,13,1,-14,1,1,1,-14,1,-9,1,-6,1,-16,1,-13,1,-19,1
1334,-21,1,-3,1,18,1,12,1,-20,1,7,1,-15,1,-13,1,-7,1,-17,1,-13,1,-18,1
1335,-17,1,0,1,17,1,8,1,-17,1,8,1,-13,1,-10,1,-2,1,-12,1,-8,1,-13,1
1336,-8,1,0,1,8,1,4,1,-8,1,4,1,-10,1,0,1,6,1,-2,1,-1,1,-6,1
1337,5,1,5,1,0,1,-5,1,3,1,3,1,-6,1,20,1,21,1,10,1,9,1,3,1
1338,16,1,6,1,-10,1,-11,1,13,1,-2,1,-4,1,42,1,37,1,24,1,19,1,11,1
1339,26,1,4,1,-22,1,-15,1,24,1,-9,1,-2,1,70,1,55,1,39,1,29,1,17,1
1340,33,1,6,1,-27,1,-19,1,30,1,-10,1,-1,1,105,1,77,1,57,1,41,1,22,1
1341,39,1,15,1,-24,1,-27,1,32,1,-4,1,1,1,146,1,109,1,80,1,60,1,31,1
1342,48,1,26,1,-22,1,-37,1,35,1,2,1,1,1,175,1,137,1,104,1,81,1,44,1
1343,70,1,40,1,-30,1,-55,1,50,1,5,1,-6,1,196,1,165,1,134,1,112,1,66,1
1344,95,1,54,1,-41,1,-74,1,68,1,7,1,-11,1,221,1,197,1,168,1,147,1,91,1
1345,131,1,67,1,-64,1,-99,1,98,1,2,1,-16,1,247,1,228,1,206,1,187,1,123,1
1346,181,1,80,1,-101,1,-130,1,141,1,-10,1,-34,1,263,1,255,1,244,1,231,1,162,1
1347,237,1,100,1,-137,1,-168,1,187,1,-18,1,-60,1,267,1,275,1,284,1,280,1,208,1
1348,282,1,120,1,-162,1,-201,1,222,1,-21,1,-89,1,216,1,261,1,303,1,316,1,246,1
1349,316,1,135,1,-181,1,-225,1,249,1,-23,1,-114,1,155,1,232,1,307,1,340,1,276,1
1350,329,1,147,1,-182,1,-238,1,256,1,-17,1,-130,1,105,1,202,1,298,1,345,1,289,1
1351,326,1,163,1,-163,1,-244,1,245,1,0,1,-136,1,58,1,170,1,279,1,338,1,290,1
1352,318,1,168,1,-150,1,-243,1,234,1,9,1,-151,1,12,1,135,1,256,1,323,1,281,1
1353,303,1,157,1,-146,1,-230,1,225,1,6,1,-168,1,-35,1,91,1,216,1,286,1,249,1
1354,278,1,137,1,-141,1,-207,1,210,1,-2,1,-183,1,-93,1,29,1,148,1,219,1,196,1
1355,247,1,104,1,-143,1,-175,1,195,1,-19,1,-187,1,-145,1,-35,1,75,1,144,1,139,1
1356,174,1,65,1,-109,1,-119,1,142,1,-22,1,-166,1,-199,1,-97,1,-5,1,56,1,74,1
1357,78,1,23,1,-55,1,-50,1,67,1,-16,1,-123,1,-249,1,-158,1,-90,1,-38,1,4,1
1358,5,1,-11,1,-16,1,3,1,10,1,-13,1,-93,1,-296,1,-218,1,-162,1,-108,1,-40,1
1359,-34,1,-31,1,3,1,32,1,-19,1,-14,1,-79,1,-313,1,-248,1,-199,1,-143,1,-63,1
1360,-60,1,-47,1,13,1,53,1,-37,1,-17,1,-75,1,-304,1,-251,1,-209,1,-159,1,-84,1
1361,-74,1,-58,1,16,1,66,1,-45,1,-21,1,-70,1,-283,1,-243,1,-209,1,-166,1,-101,1
1362,-81,1,-64,1,17,1,72,1,-49,1,-24,1,-68,1,-263,1,-230,1,-202,1,-163,1,-108,1
1363,-78,1,-55,1,23,1,66,1,-51,1,-16,1,-66,1,-233,1,-205,1,-181,1,-145,1,-98,1
1364,-73,1,-39,1,34,1,56,1,-54,1,-3,1,-62,1,-200,1,-174,1,-155,1,-124,1,-86,1
1365,-60,1,-26,1,34,1,43,1,-47,1,4,1,-52,1,-161,1,-138,1,-124,1,-99,1,-70,1
1366,-44,1,-21,1,23,1,32,1,-34,1,1,1,-45,1,-127,1,-108,1,-100,1,-80,1,-56,1
1367,-28,1,-21,1,7,1,24,1,-18,1,-7,1,-37,1,-93,1,-80,1,-75,1,-62,1,-41,1
1368,-14,1,-21,1,-7,1,17,1,-4,1,-14,1,-26,1,-59,1,-50,1,-51,1,-42,1,-28,1
1369,-7,1,-20,1,-13,1,13,1,3,1,-17,1,-17,1,-35,1,-30,1,-33,1,-29,1,-18,1
1370,-9,1,-18,1,-9,1,13,1,0,1,-14,1,-15,1,-26,1,-23,1,-29,1,-25,1,-17,1
1371,-12,1,-15,1,-3,1,13,1,-5,1,-9,1,-18,1,-25,1,-22,1,-28,1,-25,1,-19,1
1372,-18,1,-13,1,5,1,15,1,-12,1,-4,1,-20,1,-25,1,-21,1,-29,1,-26,1,-23,1
1373,-21,1,-11,1,10,1,16,1,-16,1,-1,1,-21,1,-26,1,-21,1,-29,1,-24,1,-25,1
1374,-23,1,-8,1,15,1,15,1,-19,1,3,1,-20,1,-26,1,-19,1,-29,1,-24,1,-24,1
1375,-19,1,-7,1,12,1,13,1,-16,1,2,1,-16,1,-21,1,-15,1,-24,1,-20,1,-21,1
1376,-14,1,-8,1,6,1,11,1,-10,1,-1,1,-11,1,-13,1,-9,1,-19,1,-16,1,-17,1
1377,-7,1,-11,1,-4,1,9,1,-2,1,-8,1,-7,1,-4,1,-4,1,-13,1,-13,1,-12,1
1378,-4,1,-14,1,-10,1,9,1,3,1,-12,1,-5,1,2,1,1,1,-9,1,-11,1,-10,1
1379,-1,1,-17,1,-16,1,9,1,7,1,-17,1,-3,1,9,1,4,1,-6,1,-10,1,-8,1
1380,-5,1,-19,1,-14,1,12,1,4,1,-17,1,-4,1,8,1,3,1,-7,1,-12,1,-10,1
1381,-12,1,-16,1,-4,1,14,1,-4,1,-10,1,-6,1,5,1,0,1,-11,1,-13,1,-13,1
1382,-19,1,-14,1,5,1,16,1,-12,1,-5,1,-10,1,-1,1,-4,1,-15,1,-16,1,-17,1
1383,-21,1,-10,1,11,1,15,1,-16,1,0,1,-12,1,-5,1,-7,1,-16,1,-16,1,-19,1
1384,-25,1,-8,1,17,1,16,1,-21,1,4,1,-14,1,-9,1,-9,1,-19,1,-17,1,-21,1
1385,-22,1,-8,1,14,1,15,1,-18,1,3,1,-12,1,-6,1,-6,1,-16,1,-15,1,-20,1
1386,-14,1,-11,1,3,1,12,1,-9,1,-4,1,-8,1,0,1,0,1,-10,1,-11,1,-14,1
1387,-5,1,-11,1,-6,1,8,1,0,1,-9,1,-4,1,8,1,6,1,-6,1,-7,1,-9,1
1388,-1,1,-13,1,-12,1,7,1,5,1,-13,1,-1,1,14,1,9,1,-3,1,-7,1,-8,1
1389,0,1,-17,1,-17,1,8,1,8,1,-17,1,1,1,18,1,11,1,-1,1,-6,1,-6,1
1390,-3,1,-17,1,-14,1,10,1,5,1,-16,1,0,1,17,1,8,1,-3,1,-7,1,-9,1
1391,-8,1,-15,1,-7,1,11,1,-1,1,-11,1,-2,1,12,1,4,1,-7,1,-10,1,-12,1
1392,-17,1,-12,1,5,1,14,1,-11,1,-4,1,-6,1,5,1,0,1,-11,1,-13,1,-17,1
1393,-21,1,-10,1,11,1,15,1,-16,1,0,1,-9,1,-1,1,-3,1,-15,1,-14,1,-19,1
1394,-23,1,-6,1,17,1,14,1,-20,1,5,1,-11,1,-3,1,-5,1,-16,1,-15,1,-21,1
1395,-17,1,-4,1,13,1,10,1,-15,1,4,1,-8,1,-1,1,-3,1,-13,1,-12,1,-18,1
1396,-12,1,-7,1,5,1,9,1,-9,1,-1,1,-4,1,3,1,1,1,-9,1,-10,1,-14,1
1397,-4,1,-8,1,-4,1,6,1,0,1,-6,1,-2,1,11,1,8,1,-3,1,-7,1,-10,1
1398,0,1,-10,1,-10,1,5,1,5,1,-10,1,0,1,16,1,10,1,-1,1,-5,1,-8,1
1399,4,1,-12,1,-16,1,4,1,10,1,-14,1,1,1,20,1,12,1,0,1,-5,1,-6,1
1400,1,1,-13,1,-14,1,6,1,7,1,-13,1,0,1,18,1,10,1,-1,1,-6,1,-8,1
1401,-7,1,-11,1,-4,1,9,1,-2,1,-8,1,-3,1,13,1,6,1,-5,1,-9,1,-12,1
1402,-16,1,-10,1,6,1,13,1,-11,1,-2,1,-6,1,5,1,1,1,-9,1,-11,1,-16,1
1403,-20,1,-8,1,12,1,14,1,-16,1,2,1,-8,1,0,1,-2,1,-12,1,-12,1,-18,1
1404,-22,1,-4,1,18,1,13,1,-20,1,7,1,-9,1,-2,1,-4,1,-14,1,-13,1,-19,1
1405,-17,1,-2,1,15,1,9,1,-16,1,6,1,-6,1,0,1,-1,1,-11,1,-10,1,-16,1
1406,-11,1,-5,1,6,1,8,1,-9,1,0,1,-3,1,4,1,3,1,-8,1,-8,1,-12,1
1407,-3,1,-7,1,-4,1,5,1,0,1,-6,1,0,1,12,1,8,1,-3,1,-4,1,-8,1
1408,3,1,-7,1,-10,1,2,1,6,1,-8,1,2,1,17,1,11,1,0,1,-3,1,-6,1
1409,5,1,-12,1,-17,1,3,1,11,1,-14,1,3,1,22,1,13,1,2,1,-3,1,-5,1
1410,0,1,-15,1,-15,1,7,1,7,1,-15,1,0,1,19,1,11,1,-1,1,-6,1,-8,1
1411,-5,1,-13,1,-8,1,9,1,1,1,-11,1,-2,1,14,1,6,1,-5,1,-9,1,-11,1
1412,-12,1,-9,1,3,1,10,1,-8,1,-3,1,-5,1,7,1,3,1,-9,1,-11,1,-14,1
1413,-15,1,-6,1,9,1,10,1,-12,1,1,1,-7,1,2,1,0,1,-11,1,-12,1,-16,1
1414,-19,1,-3,1,16,1,11,1,-18,1,6,1,-8,1,-1,1,-2,1,-13,1,-13,1,-18,1
1415,-15,1,-2,1,13,1,8,1,-14,1,5,1,-6,1,0,1,0,1,-12,1,-10,1,-16,1
1416,-8,1,-5,1,3,1,6,1,-6,1,-1,1,-3,1,5,1,3,1,-7,1,-7,1,-11,1
1417,0,1,-6,1,-6,1,3,1,3,1,-6,1,1,1,13,1,9,1,-2,1,-4,1,-6,1
1418,4,1,-8,1,-12,1,2,1,8,1,-10,1,3,1,19,1,12,1,1,1,-3,1,-4,1
1419,6,1,-12,1,-18,1,3,1,12,1,-15,1,4,1,22,1,15,1,3,1,-3,1,-3,1
1420,2,1,-13,1,-15,1,5,1,8,1,-14,1,1,1,20,1,12,1,1,1,-5,1,-6,1
1421,-4,1,-10,1,-6,1,7,1,1,1,-8,1,-2,1,14,1,7,1,-3,1,-7,1,-10,1
1422,-11,1,-8,1,3,1,9,1,-7,1,-3,1,-7,1,7,1,2,1,-8,1,-10,1,-14,1
1423,-15,1,-5,1,10,1,10,1,-13,1,2,1,-8,1,2,1,0,1,-10,1,-10,1,-16,1
1424,-18,1,-1,1,17,1,9,1,-18,1,8,1,-9,1,0,1,-1,1,-12,1,-11,1,-17,1
1425,-15,1,-1,1,14,1,8,1,-15,1,6,1,-8,1,1,1,1,1,-9,1,-8,1,-15,1
1426,-7,1,-2,1,5,1,4,1,-6,1,1,1,-4,1,6,1,6,1,-5,1,-5,1,-10,1
1427,0,1,-5,1,-5,1,2,1,2,1,-5,1,0,1,14,1,11,1,0,1,-2,1,-7,1
1428,7,1,-5,1,-12,1,-1,1,9,1,-8,1,2,1,19,1,13,1,1,1,0,1,-4,1
1429,9,1,-9,1,-18,1,0,1,13,1,-13,1,3,1,22,1,15,1,3,1,0,1,-3,1
1430,4,1,-11,1,-15,1,3,1,9,1,-13,1,0,1,20,1,12,1,0,1,-3,1,-4,1
1431,0,1,-7,1,-7,1,3,1,3,1,-7,1,-2,1,15,1,9,1,-3,1,-6,1,-7,1
1432,-9,1,-6,1,3,1,7,1,-6,1,-2,1,-7,1,8,1,4,1,-8,1,-9,1,-12,1
1433,-12,1,-2,1,10,1,7,1,-11,1,4,1,-8,1,3,1,1,1,-10,1,-9,1,-14,1
1434,-16,1,1,1,17,1,7,1,-16,1,9,1,-10,1,-1,1,-1,1,-12,1,-10,1,-16,1
1435,-11,1,3,1,14,1,4,1,-12,1,8,1,-7,1,0,1,1,1,-9,1,-8,1,-13,1
1436,-6,1,0,1,6,1,3,1,-6,1,3,1,-4,1,7,1,6,1,-4,1,-4,1,-8,1
1437,3,1,0,1,-3,1,-1,1,3,1,-1,1,0,1,15,1,12,1,1,1,0,1,-3,1
1438,6,1,-4,1,-10,1,-1,1,8,1,-7,1,0,1,19,1,14,1,2,1,0,1,-2,1
1439,9,1,-7,1,-16,1,-1,1,12,1,-11,1,2,1,22,1,17,1,4,1,1,1,0,1
1440,5,1,-7,1,-12,1,1,1,8,1,-9,1,1,1,21,1,15,1,3,1,-1,1,-2,1
1441,-1,1,-4,1,-3,1,2,1,1,1,-4,1,-1,1,16,1,10,1,0,1,-3,1,-6,1
1442,-9,1,-4,1,5,1,6,1,-7,1,0,1,-5,1,8,1,4,1,-5,1,-7,1,-12,1
1443,-13,1,0,1,13,1,6,1,-13,1,6,1,-7,1,4,1,2,1,-8,1,-8,1,-13,1
1444,-15,1,4,1,19,1,5,1,-17,1,11,1,-8,1,0,1,0,1,-9,1,-8,1,-14,1
1445,-10,1,4,1,14,1,3,1,-12,1,9,1,-6,1,1,1,2,1,-7,1,-6,1,-11,1
1446,-3,1,3,1,6,1,0,1,-4,1,4,1,-3,1,7,1,6,1,-3,1,-3,1,-7,1
1447,4,1,1,1,-3,1,-2,1,4,1,-1,1,0,1,14,1,12,1,1,1,0,1,-2,1
1448,10,1,0,1,-10,1,-5,1,10,1,-5,1,2,1,19,1,16,1,4,1,1,1,0,1
1449,12,1,-4,1,-16,1,-4,1,14,1,-10,1,3,1,23,1,18,1,7,1,3,1,3,1
1450,7,1,-5,1,-12,1,-1,1,9,1,-8,1,0,1,21,1,16,1,5,1,0,1,1,1
1451,0,1,-2,1,-2,1,1,1,1,1,-2,1,-2,1,17,1,12,1,1,1,-2,1,-3,1
1452,-7,1,0,1,7,1,3,1,-7,1,3,1,-6,1,9,1,6,1,-3,1,-5,1,-7,1
1453,-11,1,3,1,14,1,4,1,-12,1,8,1,-8,1,4,1,3,1,-5,1,-6,1,-8,1
1454,-14,1,7,1,21,1,3,1,-17,1,14,1,-9,1,0,1,1,1,-7,1,-7,1,-10,1
1455,-9,1,10,1,19,1,0,1,-14,1,14,1,-7,1,3,1,4,1,-5,1,-3,1,-7,1
1456,-3,1,7,1,10,1,-2,1,-6,1,8,1,-4,1,7,1,8,1,0,1,0,1,-3,1
1457,3,1,5,1,2,1,-4,1,1,1,4,1,1,1,16,1,15,1,5,1,4,1,2,1
1458,8,1,3,1,-5,1,-5,1,7,1,-1,1,2,1,21,1,19,1,8,1,6,1,4,1
1459,10,1,0,1,-10,1,-5,1,10,1,-5,1,3,1,24,1,21,1,10,1,6,1,5,1
1460,6,1,0,1,-6,1,-3,1,6,1,-3,1,1,1,22,1,19,1,8,1,4,1,4,1
1461,0,1,3,1,3,1,-1,1,-1,1,3,1,-2,1,17,1,15,1,3,1,1,1,0,1
1462,-7,1,4,1,11,1,1,1,-9,1,7,1,-6,1,10,1,10,1,0,1,0,1,-2,1
1463,-11,1,7,1,18,1,2,1,-14,1,12,1,-8,1,5,1,7,1,-2,1,-1,1,-4,1
1464,-14,1,12,1,26,1,1,1,-20,1,19,1,-10,1,0,1,5,1,-4,1,-3,1,-6,1
1465,-9,1,14,1,23,1,-2,1,-16,1,18,1,-8,1,2,1,7,1,0,1,0,1,-3,1
1466,-5,1,10,1,15,1,-2,1,-10,1,12,1,-6,1,7,1,11,1,3,1,2,1,0,1
1467,4,1,10,1,6,1,-7,1,-1,1,8,1,-1,1,14,1,16,1,9,1,6,1,5,1
1468,8,1,8,1,0,1,-8,1,4,1,4,1,0,1,18,1,20,1,12,1,7,1,8,1
1469,12,1,7,1,-5,1,-9,1,9,1,1,1,2,1,23,1,24,1,15,1,9,1,12,1
1470,8,1,6,1,-2,1,-7,1,5,1,2,1,0,1,21,1,22,1,13,1,7,1,11,1
1471,0,1,7,1,7,1,-3,1,-3,1,7,1,-5,1,15,1,16,1,7,1,4,1,5,1
1472,-8,1,10,1,18,1,-1,1,-13,1,14,1,-11,1,6,1,10,1,2,1,0,1,1,1
1473,-12,1,15,1,27,1,-1,1,-19,1,21,1,-13,1,0,1,8,1,0,1,0,1,0,1
1474,-15,1,19,1,34,1,-2,1,-24,1,26,1,-15,1,-5,1,5,1,-1,1,0,1,-1,1
1475,-11,1,21,1,32,1,-5,1,-21,1,26,1,-15,1,-4,1,8,1,0,1,2,1,1,1
1476,-3,1,21,1,24,1,-9,1,-13,1,22,1,-12,1,1,1,12,1,5,1,5,1,6,1
1477,5,1,21,1,16,1,-13,1,-5,1,19,1,-8,1,9,1,17,1,10,1,8,1,12,1
1478,9,1,19,1,10,1,-14,1,0,1,15,1,-7,1,12,1,20,1,12,1,9,1,14,1
1479,11,1,15,1,4,1,-13,1,4,1,10,1,-8,1,16,1,22,1,15,1,11,1,16,1
1480,7,1,15,1,8,1,-11,1,0,1,12,1,-9,1,13,1,20,1,13,1,9,1,14,1
1481,0,1,17,1,17,1,-8,1,-8,1,17,1,-12,1,7,1,16,1,8,1,6,1,11,1
1482,-9,1,20,1,29,1,-5,1,-19,1,24,1,-17,1,-1,1,11,1,4,1,3,1,8,1
1483,-12,1,25,1,37,1,-6,1,-24,1,31,1,-19,1,-7,1,8,1,2,1,3,1,7,1
1484,-16,1,29,1,45,1,-6,1,-30,1,37,1,-21,1,-11,1,6,1,0,1,3,1,5,1
1485,-12,1,32,1,44,1,-10,1,-28,1,38,1,-19,1,-10,1,8,1,1,1,4,1,7,1
1486,-6,1,29,1,35,1,-11,1,-20,1,32,1,-18,1,-6,1,11,1,5,1,6,1,10,1
1487,3,1,30,1,27,1,-16,1,-12,1,29,1,-15,1,1,1,17,1,10,1,9,1,15,1
1488,7,1,28,1,21,1,-17,1,-7,1,25,1,-12,1,4,1,20,1,13,1,11,1,17,1
1489,11,1,25,1,14,1,-18,1,-1,1,20,1,-12,1,7,1,22,1,15,1,12,1,20,1
1490,4,1,22,1,18,1,-13,1,-7,1,20,1,-15,1,5,1,18,1,13,1,9,1,17,1
1491,-2,1,24,1,26,1,-11,1,-14,1,25,1,-18,1,-1,1,13,1,8,1,5,1,13,1
1492,-9,1,27,1,36,1,-9,1,-22,1,31,1,-21,1,-9,1,8,1,3,1,3,1,9,1
1493,-14,1,29,1,43,1,-7,1,-28,1,36,1,-23,1,-15,1,5,1,1,1,3,1,6,1
1494,-18,1,34,1,52,1,-8,1,-35,1,43,1,-25,1,-20,1,3,1,-1,1,3,1,5,1
1495,-15,1,35,1,50,1,-10,1,-32,1,42,1,-23,1,-19,1,5,1,1,1,5,1,7,1
1496,-9,1,32,1,41,1,-11,1,-25,1,36,1,-19,1,-13,1,10,1,6,1,8,1,12,1
1497,-1,1,30,1,31,1,-14,1,-16,1,30,1,-15,1,-6,1,15,1,11,1,11,1,16,1
1498,2,1,27,1,25,1,-14,1,-11,1,26,1,-12,1,0,1,20,1,14,1,12,1,18,1
1499,6,1,24,1,18,1,-15,1,-6,1,21,1,-10,1,6,1,25,1,17,1,14,1,21,1
1500,3,1,23,1,20,1,-13,1,-8,1,22,1,-10,1,6,1,24,1,16,1,13,1,18,1
1501,-4,1,25,1,29,1,-10,1,-16,1,27,1,-12,1,3,1,21,1,13,1,11,1,14,1
1502,-13,1,26,1,39,1,-6,1,-26,1,32,1,-15,1,-2,1,17,1,9,1,8,1,10,1
1503,-17,1,26,1,43,1,-4,1,-30,1,34,1,-15,1,-6,1,15,1,8,1,7,1,7,1
1504,-20,1,29,1,49,1,-4,1,-34,1,39,1,-15,1,-9,1,15,1,6,1,7,1,3,1
1505,-18,1,27,1,45,1,-4,1,-31,1,36,1,-12,1,-4,1,17,1,9,1,10,1,5,1
1506,-12,1,23,1,35,1,-5,1,-23,1,29,1,-7,1,4,1,24,1,14,1,13,1,8,1
1507,-3,1,22,1,25,1,-9,1,-14,1,23,1,0,1,14,1,31,1,21,1,16,1,13,1
1508,2,1,18,1,16,1,-10,1,-7,1,17,1,3,1,21,1,35,1,23,1,18,1,15,1
1509,3,1,13,1,10,1,-8,1,-3,1,12,1,5,1,28,1,38,1,26,1,19,1,17,1
1510,-1,1,9,1,10,1,-4,1,-5,1,9,1,4,1,27,1,36,1,23,1,16,1,13,1
1511,-6,1,11,1,17,1,-2,1,-11,1,14,1,2,1,22,1,31,1,18,1,13,1,9,1
1512,-14,1,13,1,27,1,0,1,-20,1,20,1,-1,1,15,1,25,1,13,1,9,1,4,1
1513,-18,1,13,1,31,1,2,1,-24,1,22,1,-3,1,10,1,20,1,9,1,7,1,1,1
1514,-21,1,14,1,35,1,3,1,-28,1,24,1,-5,1,5,1,16,1,5,1,5,1,-3,1
1515,-16,1,14,1,30,1,1,1,-23,1,22,1,-1,1,7,1,17,1,6,1,6,1,-2,1
1516,-10,1,11,1,21,1,0,1,-15,1,16,1,2,1,13,1,21,1,10,1,9,1,1,1
1517,-1,1,8,1,9,1,-3,1,-5,1,8,1,6,1,21,1,25,1,14,1,12,1,6,1
1518,2,1,3,1,1,1,-2,1,1,1,2,1,9,1,25,1,27,1,15,1,11,1,7,1
1519,5,1,-2,1,-7,1,-1,1,6,1,-4,1,12,1,28,1,29,1,17,1,11,1,8,1
1520,2,1,-4,1,-6,1,1,1,4,1,-5,1,9,1,26,1,25,1,13,1,8,1,4,1
1521,-3,1,-3,1,0,1,3,1,-2,1,-2,1,6,1,20,1,19,1,8,1,4,1,0,1
1522,-12,1,-3,1,9,1,7,1,-11,1,3,1,2,1,12,1,12,1,2,1,1,1,-5,1
1523,-17,1,-2,1,15,1,9,1,-16,1,6,1,0,1,6,1,8,1,0,1,0,1,-6,1
1524,-21,1,0,1,21,1,10,1,-21,1,10,1,-2,1,2,1,4,1,-3,1,-2,1,-9,1
1525,-17,1,2,1,19,1,7,1,-18,1,10,1,0,1,2,1,6,1,-2,1,-1,1,-8,1
1526,-10,1,0,1,10,1,5,1,-10,1,5,1,3,1,6,1,9,1,0,1,1,1,-4,1
1527,0,1,-2,1,-2,1,1,1,1,1,-2,1,7,1,14,1,14,1,4,1,4,1,-1,1
1528,3,1,-5,1,-8,1,1,1,5,1,-6,1,8,1,18,1,15,1,6,1,4,1,0,1
1529,5,1,-10,1,-15,1,2,1,10,1,-12,1,11,1,21,1,18,1,8,1,4,1,2,1
1530,1,1,-12,1,-13,1,5,1,7,1,-12,1,9,1,20,1,15,1,5,1,3,1,1,1
1531,-3,1,-10,1,-7,1,6,1,2,1,-9,1,5,1,15,1,10,1,0,1,0,1,-3,1
1532,-11,1,-7,1,4,1,9,1,-8,1,-2,1,1,1,6,1,5,1,-4,1,-3,1,-8,1
1533,-16,1,-5,1,11,1,10,1,-14,1,3,1,0,1,1,1,1,1,-7,1,-4,1,-9,1
1534,-18,1,-2,1,16,1,10,1,-17,1,7,1,-3,1,-3,1,-1,1,-10,1,-6,1,-12,1
1535,-16,1,-2,1,14,1,9,1,-15,1,6,1,0,1,-2,1,0,1,-8,1,-4,1,-8,1
1536,-9,1,-4,1,5,1,6,1,-7,1,0,1,2,1,2,1,3,1,-5,1,-2,1,-5,1
1537,-2,1,-7,1,-5,1,4,1,1,1,-6,1,6,1,9,1,9,1,0,1,0,1,-1,1
1538,2,1,-9,1,-11,1,3,1,6,1,-10,1,8,1,14,1,11,1,2,1,1,1,0,1
1539,6,1,-12,1,-18,1,3,1,12,1,-15,1,10,1,18,1,14,1,5,1,3,1,2,1
1540,0,1,-15,1,-15,1,7,1,7,1,-15,1,8,1,16,1,11,1,2,1,0,1,0,1
1541,-5,1,-12,1,-7,1,8,1,1,1,-10,1,5,1,11,1,7,1,-2,1,-3,1,-4,1
1542,-14,1,-11,1,3,1,12,1,-9,1,-4,1,1,1,3,1,1,1,-7,1,-6,1,-10,1
1543,-17,1,-9,1,8,1,13,1,-13,1,-1,1,-1,1,-1,1,-1,1,-9,1,-7,1,-11,1
1544,-20,1,-6,1,14,1,13,1,-17,1,4,1,-4,1,-7,1,-5,1,-12,1,-9,1,-14,1
1545,-15,1,-4,1,11,1,9,1,-13,1,3,1,0,1,-5,1,-2,1,-10,1,-6,1,-12,1
1546,-11,1,-6,1,5,1,8,1,-8,1,-1,1,3,1,0,1,2,1,-6,1,-3,1,-8,1
1547,-2,1,-8,1,-6,1,5,1,2,1,-7,1,6,1,7,1,6,1,-1,1,0,1,-4,1
1548,2,1,-11,1,-13,1,4,1,7,1,-12,1,8,1,12,1,8,1,0,1,0,1,-2,1
1549,4,1,-15,1,-19,1,5,1,11,1,-17,1,10,1,15,1,11,1,2,1,1,1,-1,1
1550,2,1,-15,1,-17,1,6,1,9,1,-16,1,9,1,15,1,10,1,1,1,-1,1,-1,1
1551,-6,1,-15,1,-9,1,10,1,1,1,-12,1,4,1,10,1,4,1,-4,1,-5,1,-6,1
1552,-15,1,-14,1,1,1,14,1,-8,1,-7,1,0,1,0,1,-1,1,-10,1,-9,1,-12,1
1553,-19,1,-11,1,8,1,15,1,-14,1,-2,1,-2,1,-5,1,-4,1,-13,1,-10,1,-14,1
1554,-21,1,-6,1,15,1,13,1,-18,1,4,1,-4,1,-8,1,-6,1,-14,1,-10,1,-15,1
1555,-17,1,-4,1,13,1,10,1,-15,1,4,1,-2,1,-7,1,-4,1,-12,1,-7,1,-13,1
1556,-12,1,-7,1,5,1,9,1,-9,1,-1,1,0,1,-2,1,0,1,-9,1,-6,1,-10,1
1557,-4,1,-8,1,-4,1,6,1,0,1,-6,1,3,1,5,1,5,1,-4,1,-3,1,-6,1
1558,0,1,-11,1,-11,1,5,1,5,1,-11,1,5,1,10,1,8,1,-1,1,-1,1,-3,1
1559,3,1,-14,1,-17,1,5,1,10,1,-15,1,6,1,14,1,11,1,0,1,-1,1,-2,1
1560,-2,1,-15,1,-13,1,8,1,5,1,-14,1,3,1,12,1,7,1,-2,1,-3,1,-4,1
1561,-7,1,-12,1,-5,1,9,1,-1,1,-9,1,1,1,7,1,3,1,-6,1,-6,1,-8,1
1562,-16,1,-11,1,5,1,13,1,-11,1,-3,1,-4,1,0,1,-3,1,-12,1,-9,1,-13,1
1563,-20,1,-9,1,11,1,14,1,-16,1,1,1,-6,1,-6,1,-5,1,-13,1,-10,1,-15,1
1564,-22,1,-4,1,18,1,13,1,-20,1,7,1,-6,1,-9,1,-7,1,-15,1,-10,1,-17,1
1565,-18,1,-2,1,16,1,10,1,-17,1,7,1,-4,1,-7,1,-5,1,-13,1,-7,1,-14,1
1566,-14,1,-7,1,7,1,10,1,-11,1,0,1,-3,1,-4,1,-1,1,-9,1,-5,1,-12,1
1567,-6,1,-9,1,-3,1,7,1,-2,1,-6,1,0,1,3,1,4,1,-4,1,-2,1,-7,1
1568,-1,1,-10,1,-9,1,5,1,4,1,-10,1,2,1,10,1,8,1,-1,1,-1,1,-4,1
1569,1,1,-14,1,-15,1,6,1,8,1,-14,1,4,1,13,1,11,1,0,1,0,1,-2,1
1570,-1,1,-15,1,-14,1,8,1,6,1,-15,1,0,1,12,1,8,1,-2,1,-2,1,-4,1
1571,-7,1,-12,1,-5,1,9,1,-1,1,-9,1,-3,1,8,1,5,1,-5,1,-4,1,-8,1
1572,-16,1,-10,1,6,1,13,1,-11,1,-2,1,-7,1,1,1,0,1,-10,1,-7,1,-13,1
1573,-20,1,-8,1,12,1,14,1,-16,1,2,1,-8,1,-4,1,-3,1,-12,1,-8,1,-15,1
1574,-24,1,-5,1,19,1,14,1,-22,1,7,1,-9,1,-9,1,-6,1,-15,1,-9,1,-17,1
1575,-20,1,-2,1,18,1,11,1,-19,1,8,1,-8,1,-8,1,-4,1,-14,1,-8,1,-15,1
1576,-13,1,-4,1,9,1,8,1,-11,1,2,1,-5,1,-2,1,-1,1,-10,1,-4,1,-11,1
1577,-4,1,-5,1,-1,1,4,1,-2,1,-3,1,-1,1,5,1,5,1,-5,1,-1,1,-7,1
1578,0,1,-7,1,-7,1,3,1,3,1,-7,1,0,1,10,1,8,1,-2,1,0,1,-5,1
1579,3,1,-11,1,-14,1,4,1,8,1,-12,1,2,1,14,1,11,1,0,1,1,1,-1,1
1580,0,1,-12,1,-12,1,6,1,6,1,-12,1,1,1,13,1,9,1,-2,1,-1,1,-4,1
1581,-5,1,-9,1,-4,1,7,1,-1,1,-7,1,-2,1,8,1,5,1,-7,1,-5,1,-8,1
1582,-13,1,-7,1,6,1,10,1,-10,1,-1,1,-6,1,1,1,-1,1,-12,1,-8,1,-14,1
1583,-19,1,-6,1,13,1,12,1,-16,1,3,1,-9,1,-4,1,-4,1,-13,1,-9,1,-16,1
1584,-21,1,-3,1,18,1,12,1,-20,1,7,1,-10,1,-9,1,-6,1,-15,1,-10,1,-18,1
1585,-17,1,-1,1,16,1,9,1,-17,1,7,1,-7,1,-8,1,-4,1,-13,1,-8,1,-16,1
1586,-11,1,-4,1,7,1,7,1,-9,1,1,1,-4,1,-2,1,0,1,-9,1,-5,1,-12,1
1587,-2,1,-5,1,-3,1,3,1,0,1,-4,1,0,1,5,1,5,1,-3,1,-2,1,-6,1
1588,1,1,-8,1,-9,1,3,1,5,1,-8,1,2,1,10,1,7,1,-1,1,-1,1,-5,1
1589,3,1,-12,1,-15,1,4,1,9,1,-13,1,3,1,14,1,9,1,0,1,-1,1,-3,1
1590,0,1,-13,1,-13,1,6,1,6,1,-13,1,1,1,13,1,8,1,-2,1,-2,1,-5,1
1591,-6,1,-10,1,-4,1,8,1,-1,1,-7,1,-1,1,7,1,4,1,-5,1,-5,1,-9,1
1592,-13,1,-9,1,4,1,11,1,-9,1,-3,1,-4,1,0,1,-1,1,-10,1,-7,1,-12,1
1593,-16,1,-6,1,10,1,11,1,-13,1,2,1,-6,1,-4,1,-3,1,-12,1,-8,1,-13,1
1594,-20,1,-2,1,18,1,11,1,-19,1,8,1,-8,1,-8,1,-5,1,-14,1,-8,1,-16,1
1595,-18,1,-1,1,17,1,9,1,-18,1,8,1,-6,1,-8,1,-4,1,-12,1,-7,1,-15,1
1596,-12,1,-4,1,8,1,8,1,-10,1,2,1,-3,1,-2,1,0,1,-8,1,-4,1,-12,1
1597,-2,1,-5,1,-3,1,3,1,0,1,-4,1,1,1,5,1,7,1,-3,1,-1,1,-6,1
1598,3,1,-8,1,-11,1,2,1,7,1,-9,1,3,1,11,1,9,1,0,1,0,1,-4,1
1599,6,1,-12,1,-18,1,3,1,12,1,-15,1,5,1,16,1,12,1,2,1,1,1,-2,1
1600,2,1,-13,1,-15,1,5,1,8,1,-14,1,4,1,14,1,9,1,0,1,0,1,-4,1
1601,-1,1,-10,1,-9,1,5,1,4,1,-10,1,1,1,9,1,6,1,-4,1,-3,1,-8,1
1602,-9,1,-8,1,1,1,8,1,-5,1,-4,1,-3,1,2,1,0,1,-9,1,-6,1,-13,1
1603,-13,1,-6,1,7,1,9,1,-10,1,0,1,-5,1,-3,1,-3,1,-12,1,-7,1,-16,1
1604,-18,1,-3,1,15,1,10,1,-17,1,6,1,-6,1,-7,1,-5,1,-14,1,-8,1,-17,1
1605,-15,1,-2,1,13,1,8,1,-14,1,5,1,-4,1,-6,1,-4,1,-11,1,-6,1,-15,1
1606,-9,1,-5,1,4,1,7,1,-7,1,-1,1,0,1,-1,1,0,1,-8,1,-3,1,-11,1
1607,-1,1,-7,1,-6,1,4,1,2,1,-7,1,3,1,6,1,5,1,-2,1,0,1,-7,1
1608,3,1,-9,1,-12,1,3,1,7,1,-10,1,5,1,11,1,9,1,0,1,0,1,-5,1
1609,7,1,-12,1,-19,1,2,1,13,1,-15,1,7,1,15,1,11,1,2,1,1,1,-3,1
1610,4,1,-14,1,-18,1,5,1,11,1,-16,1,5,1,13,1,9,1,0,1,-1,1,-5,1
1611,-3,1,-12,1,-9,1,7,1,3,1,-11,1,3,1,8,1,5,1,-4,1,-4,1,-8,1
1612,-12,1,-10,1,2,1,11,1,-7,1,-4,1,-1,1,0,1,-1,1,-10,1,-8,1,-14,1
1613,-14,1,-6,1,8,1,10,1,-11,1,1,1,-3,1,-3,1,-3,1,-11,1,-8,1,-15,1
1614,-17,1,-2,1,15,1,9,1,-16,1,6,1,-5,1,-8,1,-6,1,-14,1,-9,1,-18,1
1615,-16,1,-3,1,13,1,9,1,-15,1,5,1,-4,1,-8,1,-6,1,-14,1,-8,1,-17,1
1616,-8,1,-4,1,4,1,6,1,-6,1,0,1,-2,1,-3,1,-1,1,-10,1,-6,1,-14,1
1617,2,1,-4,1,-6,1,1,1,4,1,-5,1,3,1,6,1,4,1,-4,1,-1,1,-8,1
1618,5,1,-8,1,-13,1,1,1,9,1,-10,1,4,1,12,1,7,1,-1,1,0,1,-5,1
1619,8,1,-11,1,-19,1,1,1,13,1,-15,1,6,1,15,1,10,1,0,1,0,1,-4,1
1620,4,1,-14,1,-18,1,5,1,11,1,-16,1,3,1,14,1,8,1,-1,1,-2,1,-6,1
1621,-2,1,-10,1,-8,1,6,1,3,1,-9,1,1,1,9,1,4,1,-5,1,-4,1,-9,1
1622,-11,1,-9,1,2,1,10,1,-7,1,-4,1,-2,1,2,1,0,1,-10,1,-8,1,-13,1
1623,-15,1,-6,1,9,1,10,1,-12,1,1,1,-4,1,-3,1,-4,1,-13,1,-8,1,-15,1
1624,-18,1,-3,1,15,1,10,1,-17,1,6,1,-7,1,-8,1,-7,1,-16,1,-10,1,-18,1
1625,-14,1,-1,1,13,1,7,1,-14,1,6,1,-5,1,-6,1,-5,1,-12,1,-7,1,-16,1
1626,-8,1,-4,1,4,1,6,1,-6,1,0,1,-2,1,-1,1,-1,1,-9,1,-3,1,-12,1
1627,0,1,-5,1,-5,1,2,1,2,1,-5,1,1,1,5,1,3,1,-4,1,-1,1,-8,1
1628,6,1,-6,1,-12,1,0,1,9,1,-9,1,3,1,11,1,6,1,-1,1,-1,1,-7,1
1629,9,1,-8,1,-17,1,0,1,13,1,-12,1,5,1,15,1,9,1,0,1,0,1,-4,1
1630,4,1,-11,1,-15,1,3,1,9,1,-13,1,2,1,13,1,7,1,-2,1,-3,1,-7,1
1631,-2,1,-10,1,-8,1,6,1,3,1,-9,1,0,1,8,1,2,1,-6,1,-5,1,-11,1
1632,-10,1,-8,1,2,1,9,1,-6,1,-3,1,-4,1,0,1,-2,1,-11,1,-8,1,-15,1
1633,-14,1,-5,1,9,1,9,1,-12,1,2,1,-6,1,-5,1,-5,1,-13,1,-9,1,-17,1
1634,-18,1,-2,1,16,1,10,1,-17,1,7,1,-8,1,-10,1,-8,1,-16,1,-11,1,-20,1
1635,-15,1,0,1,15,1,7,1,-15,1,7,1,-6,1,-9,1,-6,1,-15,1,-8,1,-17,1
1636,-7,1,-1,1,6,1,4,1,-7,1,2,1,-4,1,-4,1,-1,1,-9,1,-4,1,-12,1
1637,1,1,-2,1,-3,1,0,1,2,1,-2,1,0,1,4,1,4,1,-4,1,-1,1,-7,1
1638,4,1,-6,1,-10,1,1,1,7,1,-8,1,1,1,9,1,6,1,-2,1,0,1,-5,1
1639,6,1,-9,1,-15,1,1,1,10,1,-12,1,3,1,14,1,10,1,1,1,1,1,-3,1
1640,4,1,-11,1,-15,1,3,1,9,1,-13,1,2,1,12,1,8,1,0,1,0,1,-4,1
1641,-1,1,-7,1,-6,1,4,1,2,1,-7,1,-1,1,7,1,3,1,-5,1,-3,1,-8,1
1642,-9,1,-5,1,4,1,7,1,-7,1,-1,1,-5,1,0,1,-2,1,-10,1,-6,1,-12,1
1643,-14,1,-2,1,12,1,8,1,-13,1,5,1,-8,1,-5,1,-6,1,-12,1,-8,1,-16,1
1644,-18,1,1,1,19,1,8,1,-18,1,10,1,-11,1,-11,1,-9,1,-15,1,-9,1,-19,1
1645,-15,1,3,1,18,1,6,1,-16,1,10,1,-9,1,-10,1,-6,1,-13,1,-6,1,-17,1
1646,-8,1,0,1,8,1,4,1,-8,1,4,1,-6,1,-5,1,-3,1,-9,1,-4,1,-13,1
1647,0,1,-1,1,-1,1,0,1,0,1,-1,1,-1,1,3,1,3,1,-4,1,-1,1,-8,1
1648,4,1,-4,1,-8,1,0,1,6,1,-6,1,0,1,8,1,6,1,-2,1,-1,1,-5,1
1649,7,1,-8,1,-15,1,0,1,11,1,-11,1,2,1,12,1,8,1,0,1,0,1,-3,1
1650,5,1,-9,1,-14,1,2,1,9,1,-11,1,2,1,12,1,7,1,0,1,-1,1,-4,1
1651,-1,1,-6,1,-5,1,3,1,2,1,-6,1,-1,1,6,1,3,1,-5,1,-5,1,-9,1
1652,-11,1,-6,1,5,1,8,1,-8,1,-1,1,-6,1,-2,1,-4,1,-12,1,-8,1,-15,1
1653,-15,1,-4,1,11,1,9,1,-13,1,3,1,-7,1,-6,1,-6,1,-12,1,-8,1,-15,1
1654,-17,1,0,1,17,1,8,1,-17,1,8,1,-9,1,-11,1,-8,1,-15,1,-9,1,-17,1
1655,-13,1,3,1,16,1,5,1,-14,1,9,1,-7,1,-10,1,-6,1,-13,1,-6,1,-15,1
1656,-8,1,0,1,8,1,4,1,-8,1,4,1,-5,1,-5,1,-2,1,-9,1,-3,1,-12,1
1657,0,1,-3,1,-3,1,1,1,1,1,-3,1,-1,1,2,1,3,1,-4,1,-1,1,-7,1
1658,5,1,-4,1,-9,1,0,1,7,1,-6,1,1,1,9,1,7,1,-1,1,0,1,-4,1
1659,7,1,-8,1,-15,1,0,1,11,1,-11,1,3,1,13,1,9,1,0,1,1,1,-3,1
1660,4,1,-11,1,-15,1,3,1,9,1,-13,1,2,1,12,1,8,1,-1,1,0,1,-3,1
1661,-1,1,-8,1,-7,1,4,1,3,1,-8,1,0,1,7,1,4,1,-5,1,-2,1,-7,1
1662,-9,1,-6,1,3,1,7,1,-6,1,-2,1,-4,1,0,1,0,1,-10,1,-6,1,-12,1
1663,-14,1,-4,1,10,1,9,1,-12,1,3,1,-6,1,-5,1,-4,1,-13,1,-7,1,-15,1
1664,-18,1,-1,1,17,1,9,1,-18,1,8,1,-8,1,-10,1,-7,1,-15,1,-9,1,-18,1
1665,-14,1,0,1,14,1,7,1,-14,1,7,1,-5,1,-8,1,-5,1,-13,1,-6,1,-15,1
1666,-8,1,-1,1,7,1,4,1,-8,1,3,1,-2,1,-3,1,-1,1,-7,1,-4,1,-10,1
1667,2,1,-2,1,-4,1,0,1,3,1,-3,1,2,1,5,1,5,1,-1,1,0,1,-5,1
1668,4,1,-6,1,-10,1,1,1,7,1,-8,1,3,1,10,1,8,1,0,1,0,1,-3,1
1669,7,1,-9,1,-16,1,1,1,11,1,-12,1,5,1,15,1,11,1,2,1,3,1,-1,1
1670,7,1,-10,1,-17,1,1,1,12,1,-13,1,3,1,15,1,11,1,1,1,1,1,-2,1
1671,2,1,-5,1,-7,1,1,1,4,1,-6,1,2,1,12,1,9,1,0,1,1,1,-4,1
1672,-4,1,0,1,4,1,2,1,-4,1,2,1,0,1,7,1,6,1,-3,1,-1,1,-7,1
1673,-9,1,2,1,11,1,3,1,-10,1,6,1,-1,1,3,1,5,1,-4,1,0,1,-8,1
1674,-12,1,6,1,18,1,3,1,-15,1,12,1,-3,1,-1,1,1,1,-7,1,-2,1,-10,1
1675,-7,1,8,1,15,1,0,1,-11,1,11,1,0,1,0,1,4,1,-5,1,0,1,-9,1
1676,0,1,6,1,6,1,-3,1,-3,1,6,1,4,1,6,1,9,1,0,1,4,1,-4,1
1677,6,1,3,1,-3,1,-4,1,5,1,0,1,6,1,13,1,13,1,4,1,6,1,0,1
1678,11,1,1,1,-10,1,-6,1,11,1,-4,1,8,1,17,1,15,1,5,1,6,1,0,1
1679,14,1,-1,1,-15,1,-6,1,14,1,-8,1,12,1,23,1,20,1,9,1,9,1,5,1
1680,12,1,-1,1,-13,1,-5,1,12,1,-7,1,11,1,23,1,20,1,9,1,8,1,5,1
1681,7,1,3,1,-4,1,-5,1,6,1,0,1,9,1,21,1,17,1,7,1,7,1,1,1
1682,0,1,7,1,7,1,-3,1,-3,1,7,1,7,1,15,1,14,1,4,1,5,1,-1,1
1683,-4,1,10,1,14,1,-3,1,-9,1,12,1,4,1,11,1,12,1,1,1,6,1,-2,1
1684,-8,1,13,1,21,1,-2,1,-14,1,17,1,0,1,6,1,9,1,0,1,4,1,-5,1
1685,-5,1,15,1,20,1,-5,1,-12,1,17,1,2,1,5,1,11,1,0,1,6,1,-3,1
1686,0,1,13,1,13,1,-6,1,-6,1,13,1,4,1,9,1,14,1,4,1,8,1,0,1
1687,8,1,9,1,1,1,-8,1,4,1,5,1,5,1,14,1,17,1,6,1,10,1,3,1
1688,12,1,6,1,-6,1,-9,1,9,1,0,1,4,1,18,1,19,1,8,1,9,1,5,1
1689,17,1,3,1,-14,1,-10,1,16,1,-5,1,3,1,20,1,20,1,11,1,11,1,8,1
1690,15,1,1,1,-14,1,-8,1,15,1,-6,1,0,1,16,1,15,1,8,1,7,1,5,1
1691,11,1,5,1,-6,1,-8,1,9,1,0,1,-3,1,10,1,11,1,3,1,4,1,0,1
1692,2,1,6,1,4,1,-4,1,-1,1,5,1,-7,1,3,1,7,1,-2,1,1,1,-4,1
1693,0,1,8,1,8,1,-4,1,-4,1,8,1,-9,1,0,1,5,1,-4,1,1,1,-5,1
1694,-2,1,12,1,14,1,-5,1,-8,1,13,1,-10,1,-1,1,4,1,-5,1,1,1,-6,1
1695,1,1,13,1,12,1,-7,1,-5,1,13,1,-9,1,0,1,6,1,-2,1,3,1,-6,1
1696,7,1,9,1,2,1,-8,1,3,1,6,1,-7,1,4,1,11,1,1,1,6,1,-2,1
1697,14,1,7,1,-7,1,-10,1,11,1,0,1,-3,1,12,1,17,1,7,1,9,1,2,1
1698,19,1,4,1,-15,1,-11,1,17,1,-5,1,-2,1,18,1,19,1,10,1,11,1,5,1
1699,22,1,0,1,-22,1,-11,1,22,1,-11,1,-1,1,21,1,21,1,11,1,10,1,7,1
1700,19,1,-4,1,-23,1,-7,1,21,1,-13,1,-4,1,19,1,18,1,8,1,8,1,4,1
1701,13,1,-3,1,-16,1,-5,1,14,1,-9,1,-8,1,12,1,11,1,2,1,3,1,-1,1
1702,2,1,-3,1,-5,1,0,1,3,1,-4,1,-13,1,4,1,4,1,-4,1,0,1,-7,1
1703,-3,1,-1,1,2,1,2,1,-3,1,0,1,-15,1,-3,1,0,1,-7,1,-2,1,-10,1
1704,-5,1,2,1,7,1,1,1,-6,1,4,1,-15,1,-8,1,-3,1,-9,1,-3,1,-12,1
1705,-5,1,2,1,7,1,1,1,-6,1,4,1,-12,1,-8,1,-2,1,-9,1,-2,1,-11,1
1706,-3,1,-3,1,0,1,3,1,-2,1,-2,1,-10,1,-5,1,0,1,-7,1,0,1,-8,1
1707,5,1,-5,1,-10,1,0,1,7,1,-7,1,-5,1,3,1,7,1,-1,1,1,1,-4,1
1708,8,1,-7,1,-15,1,0,1,11,1,-11,1,-2,1,9,1,10,1,1,1,2,1,0,1
1709,10,1,-11,1,-21,1,0,1,15,1,-16,1,1,1,15,1,13,1,4,1,3,1,1,1
1710,7,1,-13,1,-20,1,3,1,13,1,-16,1,0,1,14,1,12,1,3,1,1,1,0,1
1711,0,1,-12,1,-12,1,6,1,6,1,-12,1,-2,1,8,1,7,1,-2,1,-2,1,-5,1
1712,-10,1,-11,1,-1,1,10,1,-5,1,-6,1,-7,1,0,1,0,1,-7,1,-6,1,-10,1
1713,-16,1,-10,1,6,1,13,1,-11,1,-2,1,-9,1,-7,1,-4,1,-11,1,-7,1,-14,1
1714,-18,1,-7,1,11,1,12,1,-15,1,2,1,-11,1,-12,1,-8,1,-14,1,-9,1,-17,1
1715,-17,1,-5,1,12,1,11,1,-15,1,3,1,-11,1,-12,1,-7,1,-14,1,-8,1,-16,1
1716,-11,1,-8,1,3,1,9,1,-7,1,-3,1,-7,1,-7,1,-2,1,-10,1,-4,1,-12,1
1717,-2,1,-9,1,-7,1,5,1,2,1,-8,1,-2,1,0,1,3,1,-4,1,-1,1,-7,1
1718,1,1,-13,1,-14,1,6,1,7,1,-13,1,-2,1,4,1,5,1,-2,1,-1,1,-5,1
1719,4,1,-17,1,-21,1,6,1,12,1,-19,1,1,1,10,1,8,1,0,1,0,1,-2,1
1720,3,1,-18,1,-21,1,7,1,12,1,-19,1,-1,1,10,1,8,1,0,1,-1,1,-4,1
1721,-3,1,-16,1,-13,1,9,1,5,1,-15,1,-4,1,5,1,3,1,-6,1,-4,1,-8,1
1722,-12,1,-15,1,-3,1,13,1,-5,1,-9,1,-9,1,-2,1,-2,1,-11,1,-8,1,-13,1
1723,-17,1,-13,1,4,1,15,1,-11,1,-5,1,-10,1,-8,1,-5,1,-14,1,-9,1,-16,1
1724,-20,1,-10,1,10,1,15,1,-15,1,0,1,-13,1,-13,1,-9,1,-17,1,-11,1,-18,1
1725,-16,1,-7,1,9,1,11,1,-13,1,1,1,-11,1,-12,1,-7,1,-15,1,-8,1,-17,1
1726,-10,1,-9,1,1,1,9,1,-6,1,-4,1,-7,1,-7,1,-2,1,-11,1,-6,1,-13,1
1727,-3,1,-12,1,-9,1,7,1,3,1,-11,1,-4,1,0,1,2,1,-7,1,-3,1,-9,1
1728,0,1,-13,1,-13,1,6,1,6,1,-13,1,-2,1,5,1,4,1,-3,1,-2,1,-7,1
1729,3,1,-17,1,-20,1,7,1,11,1,-18,1,0,1,10,1,7,1,-1,1,-1,1,-4,1
1730,0,1,-20,1,-20,1,10,1,10,1,-20,1,-2,1,9,1,6,1,-3,1,-2,1,-5,1
1731,-5,1,-16,1,-11,1,10,1,3,1,-14,1,-4,1,5,1,3,1,-6,1,-4,1,-9,1
1732,-14,1,-15,1,-1,1,14,1,-7,1,-8,1,-8,1,-3,1,-3,1,-11,1,-8,1,-15,1
1733,-20,1,-13,1,7,1,16,1,-14,1,-3,1,-11,1,-9,1,-7,1,-14,1,-10,1,-18,1
1734,-22,1,-10,1,12,1,16,1,-17,1,1,1,-12,1,-13,1,-9,1,-16,1,-11,1,-20,1
1735,-20,1,-8,1,12,1,14,1,-16,1,2,1,-11,1,-13,1,-7,1,-16,1,-9,1,-18,1
1736,-13,1,-10,1,3,1,11,1,-8,1,-4,1,-7,1,-8,1,-2,1,-11,1,-6,1,-14,1
1737,-4,1,-12,1,-8,1,8,1,2,1,-10,1,-2,1,0,1,3,1,-6,1,-3,1,-9,1
1738,0,1,-14,1,-14,1,7,1,7,1,-14,1,0,1,4,1,5,1,-3,1,-2,1,-8,1
1739,3,1,-17,1,-20,1,7,1,11,1,-18,1,2,1,9,1,9,1,0,1,-1,1,-6,1
1740,2,1,-19,1,-21,1,8,1,11,1,-20,1,0,1,10,1,6,1,-2,1,-3,1,-7,1
1741,-4,1,-16,1,-12,1,10,1,4,1,-14,1,-4,1,4,1,2,1,-6,1,-6,1,-12,1
1742,-11,1,-13,1,-2,1,12,1,-5,1,-8,1,-8,1,-3,1,-2,1,-11,1,-9,1,-16,1
1743,-16,1,-11,1,5,1,13,1,-11,1,-3,1,-9,1,-8,1,-5,1,-14,1,-10,1,-17,1
1744,-21,1,-10,1,11,1,15,1,-16,1,0,1,-11,1,-14,1,-8,1,-16,1,-11,1,-20,1
1745,-19,1,-8,1,11,1,13,1,-15,1,1,1,-9,1,-13,1,-7,1,-15,1,-9,1,-18,1
1746,-14,1,-10,1,4,1,12,1,-9,1,-3,1,-6,1,-7,1,-3,1,-11,1,-6,1,-14,1
1747,-5,1,-11,1,-6,1,8,1,0,1,-9,1,-1,1,0,1,2,1,-6,1,-1,1,-10,1
1748,-1,1,-14,1,-13,1,7,1,6,1,-14,1,0,1,4,1,4,1,-4,1,-2,1,-7,1
1749,0,1,-15,1,-15,1,7,1,7,1,-15,1,3,1,8,1,9,1,-1,1,0,1,-4,1
1750,0,1,-12,1,-12,1,6,1,6,1,-12,1,3,1,11,1,11,1,1,1,2,1,-3,1
1751,-3,1,-6,1,-3,1,4,1,0,1,-5,1,1,1,12,1,12,1,3,1,3,1,-3,1
1752,-9,1,-1,1,8,1,5,1,-9,1,3,1,-2,1,15,1,14,1,4,1,5,1,-4,1
1753,-6,1,5,1,11,1,0,1,-8,1,8,1,-7,1,25,1,21,1,10,1,12,1,-1,1
1754,0,1,11,1,11,1,-5,1,-5,1,11,1,-7,1,47,1,37,1,22,1,21,1,2,1
1755,13,1,18,1,5,1,-15,1,4,1,12,1,-1,1,89,1,66,1,44,1,38,1,12,1
1756,32,1,22,1,-10,1,-27,1,21,1,6,1,7,1,137,1,104,1,75,1,61,1,28,1
1757,56,1,28,1,-28,1,-42,1,42,1,0,1,12,1,176,1,139,1,106,1,85,1,46,1
1758,84,1,36,1,-48,1,-60,1,66,1,-6,1,10,1,205,1,173,1,139,1,116,1,71,1
1759,114,1,45,1,-69,1,-79,1,92,1,-12,1,8,1,238,1,207,1,176,1,151,1,98,1
1760,147,1,55,1,-92,1,-101,1,120,1,-18,1,-3,1,259,1,234,1,210,1,187,1,125,1
1761,184,1,72,1,-112,1,-128,1,148,1,-20,1,-28,1,263,1,251,1,239,1,224,1,153,1
1762,222,1,95,1,-127,1,-158,1,175,1,-16,1,-63,1,235,1,249,1,261,1,262,1,187,1
1763,256,1,118,1,-138,1,-187,1,197,1,-10,1,-94,1,166,1,223,1,269,1,292,1,217,1
1764,284,1,139,1,-145,1,-211,1,215,1,-3,1,-122,1,102,1,191,1,269,1,313,1,243,1
1765,304,1,156,1,-148,1,-230,1,226,1,4,1,-131,1,55,1,167,1,265,1,325,1,261,1
1766,316,1,168,1,-148,1,-242,1,232,1,10,1,-137,1,17,1,142,1,255,1,324,1,271,1
1767,329,1,172,1,-157,1,-250,1,243,1,8,1,-149,1,-14,1,117,1,244,1,319,1,274,1
1768,332,1,161,1,-171,1,-246,1,252,1,-5,1,-168,1,-51,1,79,1,214,1,291,1,256,1
1769,315,1,133,1,-182,1,-224,1,249,1,-24,1,-180,1,-97,1,24,1,155,1,230,1,210,1
1770,278,1,94,1,-184,1,-186,1,231,1,-45,1,-187,1,-149,1,-43,1,80,1,152,1,151,1
1771,201,1,60,1,-141,1,-130,1,171,1,-40,1,-172,1,-212,1,-111,1,-5,1,64,1,82,1
1772,87,1,15,1,-72,1,-51,1,80,1,-28,1,-133,1,-271,1,-177,1,-98,1,-35,1,2,1
1773,-1,1,-17,1,-16,1,9,1,7,1,-17,1,-103,1,-324,1,-241,1,-177,1,-112,1,-53,1
1774,-50,1,-32,1,18,1,41,1,-34,1,-7,1,-94,1,-353,1,-277,1,-221,1,-152,1,-81,1
1775,-74,1,-46,1,28,1,60,1,-51,1,-9,1,-81,1,-337,1,-274,1,-227,1,-165,1,-100,1
1776,-79,1,-61,1,18,1,70,1,-49,1,-22,1,-64,1,-301,1,-254,1,-218,1,-165,1,-108,1
1777,-70,1,-69,1,1,1,69,1,-36,1,-34,1,-54,1,-263,1,-229,1,-199,1,-156,1,-105,1
1778,-58,1,-63,1,-5,1,60,1,-27,1,-34,1,-48,1,-221,1,-195,1,-172,1,-135,1,-91,1
1779,-44,1,-51,1,-7,1,47,1,-19,1,-29,1,-41,1,-177,1,-155,1,-139,1,-110,1,-74,1
1780,-38,1,-41,1,-3,1,39,1,-18,1,-22,1,-33,1,-139,1,-122,1,-111,1,-90,1,-61,1
1781,-38,1,-31,1,7,1,34,1,-23,1,-12,1,-33,1,-118,1,-104,1,-96,1,-78,1,-54,1
1782,-41,1,-28,1,13,1,34,1,-27,1,-8,1,-33,1,-104,1,-90,1,-85,1,-68,1,-51,1
1783,-37,1,-22,1,15,1,29,1,-26,1,-4,1,-27,1,-82,1,-69,1,-67,1,-52,1,-43,1
1784,-34,1,-14,1,20,1,24,1,-27,1,3,1,-22,1,-64,1,-51,1,-52,1,-38,1,-36,1
1785,-30,1,-9,1,21,1,19,1,-26,1,6,1,-17,1,-52,1,-39,1,-42,1,-31,1,-31,1
1786,-21,1,-10,1,11,1,15,1,-16,1,0,1,-12,1,-39,1,-28,1,-33,1,-23,1,-24,1
1787,-9,1,-11,1,-2,1,10,1,-4,1,-7,1,-7,1,-25,1,-17,1,-23,1,-17,1,-18,1
1788,-2,1,-12,1,-10,1,7,1,4,1,-11,1,-4,1,-14,1,-10,1,-18,1,-15,1,-15,1
1789,1,1,-16,1,-17,1,7,1,9,1,-16,1,-1,1,-5,1,-5,1,-14,1,-13,1,-12,1
1790,-3,1,-19,1,-16,1,11,1,6,1,-18,1,-1,1,-3,1,-4,1,-14,1,-14,1,-14,1
1791,-9,1,-16,1,-7,1,12,1,-1,1,-12,1,-3,1,-6,1,-7,1,-17,1,-17,1,-18,1
1792,-18,1,-14,1,4,1,16,1,-11,1,-5,1,-5,1,-13,1,-11,1,-21,1,-18,1,-22,1
1793,-23,1,-11,1,12,1,17,1,-18,1,0,1,-7,1,-15,1,-12,1,-22,1,-17,1,-23,1
1794,-25,1,-6,1,19,1,15,1,-22,1,6,1,-9,1,-18,1,-14,1,-23,1,-19,1,-25,1
1795,-22,1,-3,1,19,1,12,1,-21,1,8,1,-7,1,-16,1,-12,1,-20,1,-16,1,-24,1
1796,-18,1,-8,1,10,1,13,1,-14,1,1,1,-4,1,-9,1,-7,1,-16,1,-13,1,-21,1
1797,-9,1,-9,1,0,1,9,1,-5,1,-5,1,0,1,-1,1,0,1,-11,1,-9,1,-15,1
1798,-3,1,-10,1,-7,1,6,1,2,1,-9,1,2,1,5,1,3,1,-7,1,-7,1,-11,1
1799,0,1,-12,1,-12,1,6,1,6,1,-12,1,5,1,11,1,7,1,-5,1,-6,1,-9,1
1800,-1,1,-16,1,-15,1,8,1,7,1,-16,1,4,1,12,1,7,1,-5,1,-6,1,-10,1
1801,-10,1,-16,1,-6,1,13,1,-2,1,-11,1,0,1,6,1,2,1,-10,1,-10,1,-15,1
1802,-17,1,-14,1,3,1,15,1,-10,1,-6,1,-3,1,0,1,-2,1,-14,1,-12,1,-20,1
1803,-22,1,-12,1,10,1,17,1,-16,1,-1,1,-6,1,-4,1,-5,1,-16,1,-13,1,-21,1
1804,-25,1,-8,1,17,1,16,1,-21,1,4,1,-8,1,-8,1,-7,1,-18,1,-14,1,-23,1
1805,-22,1,-5,1,17,1,13,1,-20,1,6,1,-6,1,-8,1,-5,1,-16,1,-11,1,-21,1
1806,-15,1,-7,1,8,1,11,1,-12,1,0,1,-2,1,-2,1,-1,1,-12,1,-9,1,-17,1
1807,-6,1,-9,1,-3,1,7,1,-2,1,-6,1,1,1,5,1,5,1,-6,1,-6,1,-12,1
1808,-1,1,-11,1,-10,1,6,1,4,1,-11,1,4,1,10,1,8,1,-3,1,-5,1,-9,1
1809,2,1,-15,1,-17,1,6,1,9,1,-16,1,6,1,16,1,10,1,-1,1,-4,1,-7,1
1810,1,1,-16,1,-17,1,7,1,9,1,-16,1,4,1,16,1,9,1,-3,1,-5,1,-9,1
1811,-4,1,-13,1,-9,1,8,1,2,1,-11,1,1,1,11,1,6,1,-6,1,-8,1,-12,1
1812,-13,1,-12,1,1,1,12,1,-7,1,-6,1,-3,1,4,1,0,1,-11,1,-10,1,-16,1
1813,-19,1,-10,1,9,1,14,1,-14,1,-1,1,-6,1,-2,1,-2,1,-15,1,-12,1,-19,1
1814,-22,1,-7,1,15,1,14,1,-19,1,4,1,-7,1,-6,1,-5,1,-16,1,-13,1,-21,1
1815,-20,1,-4,1,16,1,12,1,-18,1,6,1,-6,1,-7,1,-4,1,-16,1,-11,1,-20,1
1816,-13,1,-5,1,8,1,9,1,-11,1,1,1,-3,1,-2,1,1,1,-12,1,-8,1,-17,1
1817,-5,1,-7,1,-2,1,6,1,-2,1,-5,1,0,1,6,1,6,1,-6,1,-5,1,-12,1
1818,0,1,-8,1,-8,1,4,1,4,1,-8,1,3,1,12,1,10,1,-3,1,-4,1,-9,1
1819,3,1,-12,1,-15,1,4,1,9,1,-13,1,5,1,16,1,12,1,-1,1,-3,1,-7,1
1820,2,1,-15,1,-17,1,6,1,9,1,-16,1,5,1,17,1,12,1,0,1,-4,1,-7,1
1821,-3,1,-13,1,-10,1,8,1,3,1,-12,1,0,1,12,1,7,1,-4,1,-7,1,-11,1
1822,-12,1,-12,1,0,1,12,1,-6,1,-6,1,-5,1,5,1,1,1,-10,1,-10,1,-16,1
1823,-18,1,-10,1,8,1,14,1,-13,1,-1,1,-6,1,-1,1,-1,1,-13,1,-11,1,-18,1
1824,-21,1,-7,1,14,1,14,1,-18,1,3,1,-7,1,-5,1,-4,1,-14,1,-12,1,-19,1
1825,-19,1,-4,1,15,1,11,1,-17,1,5,1,-5,1,-5,1,-2,1,-12,1,-10,1,-18,1
1826,-11,1,-5,1,6,1,8,1,-9,1,0,1,-2,1,0,1,2,1,-8,1,-7,1,-14,1
1827,-3,1,-7,1,-4,1,5,1,0,1,-6,1,1,1,6,1,7,1,-3,1,-4,1,-11,1
1828,2,1,-7,1,-9,1,2,1,5,1,-8,1,4,1,12,1,11,1,0,1,-3,1,-7,1
1829,5,1,-11,1,-16,1,3,1,10,1,-13,1,6,1,17,1,14,1,1,1,-3,1,-6,1
1830,2,1,-14,1,-16,1,6,1,9,1,-15,1,4,1,17,1,13,1,0,1,-4,1,-6,1
1831,-2,1,-10,1,-8,1,6,1,3,1,-9,1,0,1,13,1,9,1,-3,1,-6,1,-9,1
1832,-11,1,-9,1,2,1,10,1,-7,1,-4,1,-3,1,6,1,3,1,-8,1,-8,1,-13,1
1833,-18,1,-9,1,9,1,13,1,-14,1,0,1,-5,1,0,1,0,1,-11,1,-9,1,-16,1
1834,-20,1,-5,1,15,1,12,1,-18,1,5,1,-7,1,-4,1,-2,1,-12,1,-10,1,-18,1
1835,-17,1,-2,1,15,1,9,1,-16,1,6,1,-6,1,-4,1,-1,1,-12,1,-8,1,-17,1
1836,-11,1,-3,1,8,1,7,1,-10,1,2,1,-2,1,1,1,3,1,-9,1,-5,1,-13,1
1837,-3,1,-5,1,-2,1,4,1,-1,1,-4,1,2,1,8,1,8,1,-3,1,-2,1,-8,1
1838,3,1,-6,1,-9,1,1,1,6,1,-7,1,4,1,13,1,12,1,0,1,0,1,-6,1
1839,8,1,-9,1,-17,1,0,1,12,1,-13,1,5,1,19,1,15,1,2,1,1,1,-4,1
1840,6,1,-13,1,-19,1,3,1,12,1,-16,1,4,1,20,1,15,1,2,1,0,1,-4,1
1841,0,1,-11,1,-11,1,5,1,5,1,-11,1,2,1,15,1,11,1,-2,1,-3,1,-6,1
1842,-9,1,-9,1,0,1,9,1,-5,1,-5,1,-1,1,8,1,6,1,-6,1,-5,1,-11,1
1843,-14,1,-7,1,7,1,10,1,-11,1,0,1,-4,1,2,1,3,1,-10,1,-7,1,-14,1
1844,-17,1,-4,1,13,1,10,1,-15,1,4,1,-6,1,-3,1,0,1,-12,1,-9,1,-17,1
1845,-14,1,0,1,14,1,7,1,-14,1,7,1,-5,1,-2,1,1,1,-10,1,-6,1,-15,1
1846,-8,1,-3,1,5,1,5,1,-7,1,1,1,-1,1,2,1,6,1,-5,1,-2,1,-10,1
1847,-2,1,-6,1,-4,1,4,1,1,1,-5,1,1,1,9,1,10,1,-1,1,0,1,-7,1
1848,5,1,-7,1,-12,1,1,1,8,1,-9,1,3,1,15,1,15,1,2,1,1,1,-3,1
1849,7,1,-9,1,-16,1,1,1,11,1,-12,1,5,1,21,1,17,1,5,1,3,1,-1,1
1850,5,1,-12,1,-17,1,3,1,11,1,-14,1,4,1,21,1,17,1,4,1,2,1,-1,1
