TS,I,If,II,IIf,III,IIIf,aVR,aVRf,aVL,aVLf,aVF,aVFf,V1,V1f,V2,V2f,V3,V3f,V4,V4f,V5,V5f,V6,V6f
1,-22,1,-24,1,-2,1,23,1,-10,1,-13,1,4,1,0,1,-23,1,-30,1,7,1,62,1
2,-23,1,-27,1,-4,1,25,1,-10,1,-16,1,5,1,-8,1,-23,1,-30,1,0,1,51,1
3,-24,1,-29,1,-5,1,26,1,-10,1,-17,1,6,1,-14,1,-24,1,-31,1,-11,1,28,1
4,-25,1,-30,1,-5,1,27,1,-10,1,-18,1,6,1,-17,1,-26,1,-32,1,-17,1,15,1
5,-26,1,-32,1,-6,1,29,1,-10,1,-19,1,4,1,-13,1,-28,1,-34,1,-12,1,29,1
6,-27,1,-33,1,-6,1,30,1,-11,1,-20,1,4,1,-10,1,-30,1,-35,1,-1,1,57,1
7,-28,1,-33,1,-5,1,30,1,-12,1,-19,1,6,1,-14,1,-29,1,-35,1,-10,1,44,1
8,-29,1,-34,1,-5,1,31,1,-12,1,-20,1,7,1,-14,1,-29,1,-36,1,-17,1,24,1
9,-31,1,-34,1,-3,1,32,1,-14,1,-19,1,8,1,-13,1,-29,1,-36,1,-21,1,13,1
10,-30,1,-33,1,-3,1,31,1,-14,1,-18,1,7,1,-7,1,-29,1,-37,1,-13,1,28,1
11,-30,1,-33,1,-3,1,31,1,-14,1,-18,1,7,1,-5,1,-30,1,-37,1,-1,1,57,1
12,-31,1,-35,1,-4,1,33,1,-14,1,-20,1,9,1,-14,1,-30,1,-38,1,-9,1,47,1
13,-32,1,-37,1,-5,1,34,1,-14,1,-21,1,10,1,-19,1,-31,1,-39,1,-18,1,28,1
14,-32,1,-38,1,-6,1,35,1,-13,1,-22,1,10,1,-22,1,-32,1,-40,1,-24,1,15,1
15,-33,1,-38,1,-5,1,35,1,-14,1,-22,1,8,1,-17,1,-34,1,-41,1,-16,1,29,1
16,-33,1,-37,1,-4,1,35,1,-15,1,-21,1,8,1,-13,1,-33,1,-41,1,-4,1,58,1
17,-34,1,-38,1,-4,1,36,1,-15,1,-21,1,10,1,-17,1,-33,1,-40,1,-10,1,47,1
18,-35,1,-38,1,-3,1,36,1,-16,1,-21,1,10,1,-15,1,-32,1,-40,1,-16,1,29,1
19,-34,1,-38,1,-4,1,36,1,-15,1,-21,1,11,1,-14,1,-32,1,-41,1,-19,1,18,1
20,-32,1,-37,1,-5,1,34,1,-14,1,-21,1,9,1,-7,1,-33,1,-41,1,-10,1,35,1
21,-33,1,-38,1,-5,1,35,1,-14,1,-22,1,8,1,-6,1,-33,1,-41,1,1,1,65,1
22,-34,1,-40,1,-6,1,37,1,-14,1,-23,1,9,1,-15,1,-33,1,-41,1,-6,1,53,1
23,-35,1,-41,1,-6,1,38,1,-15,1,-24,1,8,1,-21,1,-34,1,-41,1,-16,1,33,1
24,-36,1,-42,1,-6,1,39,1,-15,1,-24,1,8,1,-24,1,-34,1,-41,1,-21,1,21,1
25,-36,1,-40,1,-4,1,38,1,-16,1,-22,1,7,1,-19,1,-35,1,-42,1,-13,1,35,1
26,-35,1,-39,1,-4,1,37,1,-16,1,-22,1,8,1,-14,1,-34,1,-41,1,0,1,64,1
27,-35,1,-38,1,-3,1,36,1,-16,1,-21,1,11,1,-18,1,-34,1,-41,1,-6,1,54,1
28,-35,1,-37,1,-2,1,36,1,-17,1,-20,1,12,1,-17,1,-34,1,-42,1,-14,1,34,1
29,-35,1,-37,1,-2,1,36,1,-17,1,-20,1,11,1,-15,1,-35,1,-42,1,-18,1,22,1
30,-33,1,-37,1,-4,1,35,1,-15,1,-21,1,10,1,-9,1,-35,1,-42,1,-9,1,39,1
31,-33,1,-37,1,-4,1,35,1,-15,1,-21,1,10,1,-8,1,-35,1,-41,1,2,1,67,1
32,-34,1,-40,1,-6,1,37,1,-14,1,-23,1,11,1,-18,1,-34,1,-40,1,-5,1,54,1
33,-35,1,-41,1,-6,1,38,1,-15,1,-24,1,11,1,-23,1,-34,1,-39,1,-14,1,33,1
34,-34,1,-41,1,-7,1,37,1,-14,1,-24,1,10,1,-27,1,-34,1,-39,1,-21,1,19,1
35,-34,1,-40,1,-6,1,37,1,-14,1,-23,1,9,1,-21,1,-34,1,-40,1,-14,1,30,1
36,-34,1,-39,1,-5,1,36,1,-15,1,-22,1,9,1,-15,1,-33,1,-40,1,-2,1,59,1
37,-34,1,-39,1,-5,1,36,1,-15,1,-22,1,11,1,-17,1,-32,1,-40,1,-9,1,48,1
38,-34,1,-39,1,-5,1,36,1,-15,1,-22,1,11,1,-16,1,-32,1,-41,1,-17,1,30,1
39,-34,1,-40,1,-6,1,37,1,-14,1,-23,1,11,1,-15,1,-32,1,-42,1,-22,1,18,1
40,-33,1,-39,1,-6,1,36,1,-14,1,-23,1,10,1,-9,1,-33,1,-42,1,-13,1,33,1
41,-33,1,-39,1,-6,1,36,1,-14,1,-23,1,10,1,-9,1,-33,1,-41,1,-1,1,64,1
42,-35,1,-40,1,-5,1,37,1,-15,1,-23,1,11,1,-18,1,-33,1,-41,1,-9,1,51,1
43,-35,1,-41,1,-6,1,38,1,-15,1,-24,1,11,1,-24,1,-34,1,-41,1,-17,1,30,1
44,-35,1,-41,1,-6,1,38,1,-15,1,-24,1,11,1,-26,1,-35,1,-41,1,-21,1,18,1
45,-35,1,-40,1,-5,1,37,1,-15,1,-23,1,10,1,-20,1,-35,1,-41,1,-11,1,33,1
46,-35,1,-40,1,-5,1,37,1,-15,1,-23,1,10,1,-14,1,-35,1,-41,1,3,1,64,1
47,-35,1,-41,1,-6,1,38,1,-15,1,-24,1,12,1,-17,1,-34,1,-40,1,-2,1,56,1
48,-36,1,-42,1,-6,1,39,1,-15,1,-24,1,12,1,-17,1,-33,1,-40,1,-9,1,39,1
49,-35,1,-41,1,-6,1,38,1,-15,1,-24,1,12,1,-17,1,-33,1,-41,1,-15,1,26,1
50,-33,1,-39,1,-6,1,36,1,-14,1,-23,1,10,1,-9,1,-34,1,-41,1,-7,1,39,1
51,-33,1,-38,1,-5,1,35,1,-14,1,-22,1,10,1,-7,1,-32,1,-40,1,4,1,68,1
52,-32,1,-38,1,-6,1,35,1,-13,1,-22,1,12,1,-14,1,-30,1,-37,1,-3,1,53,1
53,-31,1,-38,1,-7,1,34,1,-12,1,-23,1,13,1,-17,1,-28,1,-35,1,-13,1,29,1
54,-29,1,-36,1,-7,1,32,1,-11,1,-22,1,14,1,-13,1,-22,1,-30,1,-17,1,17,1
55,-27,1,-33,1,-6,1,30,1,-11,1,-20,1,17,1,3,1,-11,1,-21,1,-6,1,31,1
56,-23,1,-29,1,-6,1,26,1,-9,1,-18,1,24,1,25,1,7,1,-7,1,13,1,65,1
57,-20,1,-24,1,-4,1,22,1,-8,1,-14,1,34,1,41,1,29,1,11,1,16,1,61,1
58,-16,1,-18,1,-2,1,17,1,-7,1,-10,1,44,1,62,1,52,1,30,1,21,1,54,1
59,-10,1,-10,1,0,1,10,1,-5,1,-5,1,50,1,81,1,74,1,50,1,34,1,56,1
60,1,1,4,1,3,1,-2,1,-1,1,4,1,50,1,101,1,92,1,71,1,67,1,91,1
61,15,1,21,1,6,1,-18,1,5,1,14,1,51,1,115,1,111,1,95,1,110,1,149,1
62,30,1,38,1,8,1,-34,1,11,1,23,1,51,1,118,1,126,1,118,1,139,1,170,1
63,46,1,54,1,8,1,-50,1,19,1,31,1,45,1,118,1,134,1,137,1,167,1,184,1
64,62,1,71,1,9,1,-66,1,27,1,40,1,30,1,109,1,131,1,148,1,199,1,210,1
65,80,1,88,1,8,1,-84,1,36,1,48,1,2,1,93,1,114,1,148,1,244,1,263,1
66,98,1,102,1,4,1,-100,1,47,1,53,1,-33,1,62,1,83,1,139,1,289,1,330,1
67,112,1,107,1,-5,1,-109,1,59,1,51,1,-69,1,14,1,43,1,119,1,301,1,346,1
68,122,1,108,1,-14,1,-115,1,68,1,47,1,-100,1,-27,1,0,1,93,1,298,1,342,1
69,128,1,105,1,-23,1,-116,1,76,1,41,1,-123,1,-63,1,-41,1,61,1,285,1,329,1
70,127,1,100,1,-27,1,-113,1,77,1,37,1,-139,1,-88,1,-83,1,21,1,269,1,330,1
71,119,1,91,1,-28,1,-105,1,74,1,32,1,-148,1,-117,1,-125,1,-23,1,245,1,334,1
72,100,1,71,1,-29,1,-85,1,65,1,21,1,-150,1,-158,1,-169,1,-75,1,187,1,281,1
73,70,1,47,1,-23,1,-58,1,47,1,12,1,-144,1,-191,1,-212,1,-131,1,111,1,204,1
74,35,1,25,1,-10,1,-30,1,23,1,8,1,-131,1,-214,1,-244,1,-179,1,40,1,132,1
75,4,1,8,1,4,1,-6,1,0,1,6,1,-119,1,-217,1,-258,1,-207,1,-1,1,100,1
76,-18,1,-7,1,11,1,12,1,-15,1,2,1,-106,1,-209,1,-255,1,-216,1,-22,1,96,1
77,-35,1,-25,1,10,1,30,1,-23,1,-8,1,-92,1,-202,1,-242,1,-213,1,-51,1,60,1
78,-45,1,-39,1,6,1,42,1,-26,1,-17,1,-79,1,-188,1,-227,1,-205,1,-74,1,22,1
79,-51,1,-48,1,3,1,49,1,-27,1,-23,1,-67,1,-173,1,-210,1,-194,1,-84,1,0,1
80,-55,1,-50,1,5,1,52,1,-30,1,-23,1,-56,1,-151,1,-193,1,-181,1,-75,1,10,1
81,-57,1,-50,1,7,1,53,1,-32,1,-22,1,-46,1,-133,1,-174,1,-165,1,-58,1,37,1
82,-57,1,-49,1,8,1,53,1,-33,1,-21,1,-35,1,-124,1,-154,1,-147,1,-58,1,26,1
83,-55,1,-46,1,9,1,50,1,-32,1,-19,1,-27,1,-113,1,-134,1,-130,1,-58,1,8,1
84,-51,1,-43,1,8,1,47,1,-30,1,-18,1,-23,1,-102,1,-116,1,-113,1,-55,1,0,1
85,-46,1,-40,1,6,1,43,1,-26,1,-17,1,-22,1,-84,1,-100,1,-98,1,-40,1,16,1
86,-41,1,-36,1,5,1,38,1,-23,1,-16,1,-21,1,-69,1,-86,1,-84,1,-19,1,51,1
87,-36,1,-33,1,3,1,34,1,-20,1,-15,1,-18,1,-62,1,-71,1,-69,1,-17,1,46,1
88,-30,1,-31,1,-1,1,30,1,-15,1,-16,1,-14,1,-53,1,-58,1,-57,1,-18,1,30,1
89,-26,1,-27,1,-1,1,26,1,-13,1,-14,1,-12,1,-44,1,-48,1,-49,1,-17,1,19,1
90,-23,1,-22,1,1,1,22,1,-12,1,-11,1,-10,1,-31,1,-40,1,-42,1,-3,1,35,1
91,-19,1,-17,1,2,1,18,1,-11,1,-8,1,-8,1,-23,1,-34,1,-37,1,13,1,64,1
92,-16,1,-15,1,1,1,15,1,-9,1,-7,1,-3,1,-26,1,-28,1,-30,1,10,1,53,1
93,-15,1,-14,1,1,1,14,1,-8,1,-7,1,-1,1,-25,1,-23,1,-25,1,2,1,30,1
94,-13,1,-14,1,-1,1,13,1,-6,1,-8,1,0,1,-23,1,-19,1,-21,1,-2,1,15,1
95,-12,1,-14,1,-2,1,13,1,-5,1,-8,1,0,1,-15,1,-16,1,-18,1,5,1,27,1
96,-11,1,-14,1,-3,1,12,1,-4,1,-9,1,0,1,-9,1,-13,1,-16,1,18,1,55,1
97,-12,1,-14,1,-2,1,13,1,-5,1,-8,1,2,1,-10,1,-9,1,-13,1,11,1,41,1
98,-12,1,-14,1,-2,1,13,1,-5,1,-8,1,3,1,-9,1,-7,1,-12,1,2,1,19,1
99,-13,1,-14,1,-1,1,13,1,-6,1,-8,1,4,1,-8,1,-6,1,-12,1,-1,1,5,1
100,-12,1,-12,1,0,1,12,1,-6,1,-6,1,3,1,-1,1,-6,1,-12,1,6,1,15,1
101,-12,1,-12,1,0,1,12,1,-6,1,-6,1,3,1,2,1,-5,1,-10,1,19,1,43,1
102,-12,1,-12,1,0,1,12,1,-6,1,-6,1,6,1,-4,1,-3,1,-7,1,13,1,30,1
103,-12,1,-13,1,-1,1,12,1,-6,1,-7,1,7,1,-6,1,-2,1,-5,1,3,1,6,1
104,-12,1,-13,1,-1,1,12,1,-6,1,-7,1,7,1,-8,1,-1,1,-4,1,-2,1,-8,1
105,-12,1,-13,1,-1,1,12,1,-6,1,-7,1,6,1,-3,1,-2,1,-5,1,3,1,0,1
106,-12,1,-13,1,-1,1,12,1,-6,1,-7,1,5,1,0,1,-1,1,-4,1,14,1,29,1
107,-12,1,-13,1,-1,1,12,1,-6,1,-7,1,6,1,-4,1,0,1,-4,1,8,1,18,1
108,-12,1,-13,1,-1,1,12,1,-6,1,-7,1,7,1,-4,1,1,1,-4,1,-1,1,-3,1
109,-12,1,-13,1,-1,1,12,1,-6,1,-7,1,7,1,-2,1,2,1,-4,1,-6,1,-18,1
110,-10,1,-11,1,-1,1,10,1,-5,1,-6,1,6,1,5,1,2,1,-5,1,3,1,-7,1
111,-11,1,-11,1,0,1,11,1,-6,1,-6,1,6,1,8,1,2,1,-3,1,16,1,21,1
112,-11,1,-12,1,-1,1,11,1,-5,1,-7,1,8,1,2,1,3,1,-2,1,8,1,8,1
113,-12,1,-13,1,-1,1,12,1,-6,1,-7,1,9,1,-2,1,4,1,0,1,-3,1,-16,1
114,-11,1,-14,1,-3,1,12,1,-4,1,-9,1,9,1,-4,1,5,1,0,1,-10,1,-31,1
115,-11,1,-15,1,-4,1,13,1,-4,1,-10,1,8,1,0,1,5,1,0,1,-4,1,-19,1
116,-10,1,-15,1,-5,1,12,1,-3,1,-10,1,8,1,4,1,5,1,0,1,7,1,8,1
117,-10,1,-15,1,-5,1,12,1,-3,1,-10,1,9,1,0,1,6,1,0,1,0,1,-4,1
118,-10,1,-14,1,-4,1,12,1,-3,1,-9,1,9,1,-1,1,6,1,-1,1,-10,1,-25,1
119,-11,1,-13,1,-2,1,12,1,-5,1,-8,1,8,1,0,1,5,1,-2,1,-15,1,-41,1
120,-9,1,-11,1,-2,1,10,1,-4,1,-7,1,6,1,6,1,5,1,-2,1,-7,1,-30,1
121,-9,1,-11,1,-2,1,10,1,-4,1,-7,1,6,1,9,1,4,1,0,1,6,1,-3,1
122,-10,1,-11,1,-1,1,10,1,-5,1,-6,1,7,1,2,1,5,1,0,1,-1,1,-15,1
123,-9,1,-12,1,-3,1,10,1,-3,1,-8,1,7,1,-1,1,5,1,1,1,-10,1,-37,1
124,-8,1,-12,1,-4,1,10,1,-2,1,-8,1,7,1,-3,1,6,1,2,1,-16,1,-50,1
125,-8,1,-11,1,-3,1,9,1,-3,1,-7,1,5,1,2,1,5,1,1,1,-11,1,-39,1
126,-8,1,-10,1,-2,1,9,1,-3,1,-6,1,5,1,6,1,5,1,1,1,1,1,-10,1
127,-8,1,-10,1,-2,1,9,1,-3,1,-6,1,7,1,3,1,6,1,2,1,-6,1,-21,1
128,-8,1,-9,1,-1,1,8,1,-4,1,-5,1,7,1,4,1,7,1,2,1,-14,1,-41,1
129,-8,1,-9,1,-1,1,8,1,-4,1,-5,1,7,1,4,1,7,1,2,1,-18,1,-56,1
130,-7,1,-8,1,-1,1,7,1,-3,1,-5,1,6,1,10,1,7,1,2,1,-11,1,-44,1
131,-7,1,-7,1,0,1,7,1,-4,1,-4,1,6,1,12,1,7,1,2,1,2,1,-15,1
132,-7,1,-8,1,-1,1,7,1,-3,1,-5,1,7,1,3,1,8,1,4,1,-5,1,-27,1
133,-6,1,-8,1,-2,1,7,1,-2,1,-5,1,8,1,-2,1,8,1,4,1,-14,1,-50,1
134,-6,1,-8,1,-2,1,7,1,-2,1,-5,1,7,1,-3,1,9,1,5,1,-19,1,-62,1
135,-6,1,-8,1,-2,1,7,1,-2,1,-5,1,6,1,3,1,8,1,5,1,-12,1,-51,1
136,-6,1,-8,1,-2,1,7,1,-2,1,-5,1,5,1,8,1,8,1,5,1,0,1,-21,1
137,-6,1,-8,1,-2,1,7,1,-2,1,-5,1,5,1,5,1,9,1,5,1,-7,1,-31,1
138,-5,1,-8,1,-3,1,6,1,-1,1,-6,1,5,1,5,1,9,1,6,1,-15,1,-52,1
139,-5,1,-7,1,-2,1,6,1,-2,1,-5,1,4,1,4,1,10,1,6,1,-20,1,-65,1
140,-3,1,-5,1,-2,1,4,1,-1,1,-4,1,3,1,10,1,9,1,6,1,-12,1,-53,1
141,-3,1,-5,1,-2,1,4,1,-1,1,-4,1,4,1,11,1,9,1,6,1,0,1,-25,1
142,-4,1,-7,1,-3,1,5,1,-1,1,-5,1,6,1,2,1,11,1,7,1,-7,1,-37,1
143,-4,1,-8,1,-4,1,6,1,0,1,-6,1,6,1,-3,1,11,1,7,1,-17,1,-60,1
144,-4,1,-7,1,-3,1,5,1,-1,1,-5,1,5,1,-5,1,11,1,7,1,-22,1,-73,1
145,-5,1,-6,1,-1,1,5,1,-2,1,-4,1,3,1,0,1,11,1,6,1,-17,1,-63,1
146,-4,1,-6,1,-2,1,5,1,-1,1,-4,1,3,1,5,1,11,1,6,1,-4,1,-34,1
147,-4,1,-6,1,-2,1,5,1,-1,1,-4,1,3,1,2,1,12,1,8,1,-10,1,-44,1
148,-5,1,-6,1,-1,1,5,1,-2,1,-4,1,3,1,3,1,13,1,9,1,-18,1,-66,1
149,-5,1,-5,1,0,1,5,1,-3,1,-3,1,4,1,3,1,13,1,10,1,-23,1,-81,1
150,-3,1,-4,1,-1,1,3,1,-1,1,-3,1,3,1,9,1,14,1,11,1,-14,1,-70,1
151,-2,1,-3,1,-1,1,2,1,-1,1,-2,1,3,1,10,1,14,1,11,1,-2,1,-41,1
152,-2,1,-4,1,-2,1,3,1,0,1,-3,1,4,1,1,1,16,1,12,1,-8,1,-53,1
153,-3,1,-4,1,-1,1,3,1,-1,1,-3,1,4,1,-3,1,16,1,13,1,-17,1,-75,1
154,-3,1,-4,1,-1,1,3,1,-1,1,-3,1,3,1,-4,1,16,1,13,1,-21,1,-87,1
155,-3,1,-4,1,-1,1,3,1,-1,1,-3,1,2,1,3,1,15,1,13,1,-14,1,-75,1
156,-2,1,-3,1,-1,1,2,1,-1,1,-2,1,1,1,9,1,16,1,13,1,-2,1,-45,1
157,-1,1,-4,1,-3,1,2,1,1,1,-4,1,3,1,8,1,16,1,14,1,-9,1,-54,1
158,-1,1,-4,1,-3,1,2,1,1,1,-4,1,3,1,8,1,17,1,15,1,-18,1,-76,1
159,0,1,-2,1,-2,1,1,1,1,1,-2,1,4,1,8,1,16,1,14,1,-23,1,-91,1
160,1,1,0,1,-1,1,0,1,1,1,0,1,3,1,14,1,16,1,15,1,-15,1,-78,1
161,3,1,1,1,-2,1,-2,1,3,1,0,1,2,1,15,1,17,1,15,1,-3,1,-49,1
162,3,1,1,1,-2,1,-2,1,3,1,0,1,2,1,6,1,18,1,16,1,-9,1,-61,1
163,3,1,0,1,-3,1,-1,1,3,1,-1,1,1,1,1,1,20,1,17,1,-19,1,-84,1
164,3,1,1,1,-2,1,-2,1,3,1,0,1,0,1,-1,1,21,1,17,1,-25,1,-98,1
165,2,1,1,1,-1,1,-1,1,2,1,0,1,0,1,5,1,20,1,18,1,-18,1,-88,1
166,2,1,2,1,0,1,-2,1,1,1,1,1,0,1,11,1,21,1,18,1,-3,1,-58,1
167,3,1,2,1,-1,1,-2,1,2,1,1,1,1,1,9,1,21,1,20,1,-8,1,-67,1
168,3,1,2,1,-1,1,-2,1,2,1,1,1,2,1,10,1,21,1,21,1,-16,1,-88,1
169,4,1,2,1,-2,1,-3,1,3,1,0,1,3,1,11,1,21,1,22,1,-20,1,-102,1
170,6,1,4,1,-2,1,-5,1,4,1,1,1,1,1,18,1,21,1,23,1,-13,1,-90,1
171,7,1,4,1,-3,1,-5,1,5,1,1,1,0,1,20,1,22,1,23,1,-1,1,-59,1
172,7,1,3,1,-4,1,-5,1,6,1,0,1,0,1,12,1,23,1,23,1,-7,1,-68,1
173,7,1,3,1,-4,1,-5,1,6,1,0,1,0,1,8,1,25,1,24,1,-16,1,-90,1
174,7,1,4,1,-3,1,-5,1,5,1,1,1,-1,1,8,1,26,1,25,1,-21,1,-102,1
175,6,1,5,1,-1,1,-5,1,4,1,2,1,-2,1,16,1,26,1,25,1,-13,1,-90,1
176,8,1,6,1,-2,1,-7,1,5,1,2,1,-1,1,22,1,27,1,27,1,1,1,-58,1
177,9,1,7,1,-2,1,-8,1,6,1,3,1,0,1,21,1,29,1,29,1,-2,1,-67,1
178,10,1,8,1,-2,1,-9,1,6,1,3,1,0,1,23,1,29,1,31,1,-9,1,-86,1
179,11,1,9,1,-2,1,-10,1,7,1,4,1,0,1,24,1,30,1,32,1,-13,1,-100,1
180,12,1,11,1,-1,1,-11,1,7,1,5,1,-1,1,31,1,30,1,32,1,-6,1,-87,1
181,13,1,12,1,-1,1,-12,1,7,1,6,1,-3,1,32,1,31,1,33,1,6,1,-57,1
182,14,1,12,1,-2,1,-13,1,8,1,5,1,-3,1,23,1,33,1,35,1,0,1,-65,1
183,14,1,12,1,-2,1,-13,1,8,1,5,1,-4,1,19,1,35,1,37,1,-9,1,-84,1
184,14,1,13,1,-1,1,-13,1,8,1,6,1,-5,1,18,1,37,1,38,1,-13,1,-95,1
185,15,1,14,1,-1,1,-14,1,8,1,7,1,-6,1,25,1,37,1,38,1,-3,1,-78,1
186,17,1,15,1,-2,1,-16,1,10,1,7,1,-7,1,31,1,38,1,40,1,13,1,-42,1
187,18,1,16,1,-2,1,-17,1,10,1,7,1,-6,1,30,1,40,1,42,1,12,1,-47,1
188,19,1,17,1,-2,1,-18,1,11,1,8,1,-6,1,31,1,41,1,43,1,7,1,-63,1
189,21,1,18,1,-3,1,-19,1,12,1,8,1,-6,1,32,1,41,1,45,1,5,1,-71,1
190,22,1,20,1,-2,1,-21,1,12,1,9,1,-7,1,39,1,42,1,46,1,15,1,-53,1
191,24,1,22,1,-2,1,-23,1,13,1,10,1,-9,1,39,1,42,1,46,1,31,1,-17,1
192,25,1,22,1,-3,1,-23,1,14,1,10,1,-9,1,31,1,44,1,48,1,26,1,-21,1
193,25,1,22,1,-3,1,-23,1,14,1,10,1,-10,1,26,1,45,1,50,1,20,1,-34,1
194,26,1,22,1,-4,1,-24,1,15,1,9,1,-11,1,25,1,47,1,52,1,18,1,-41,1
195,28,1,23,1,-5,1,-25,1,17,1,9,1,-13,1,31,1,48,1,54,1,28,1,-24,1
196,30,1,25,1,-5,1,-27,1,18,1,10,1,-13,1,37,1,50,1,56,1,46,1,13,1
197,31,1,25,1,-6,1,-28,1,19,1,10,1,-12,1,36,1,52,1,58,1,46,1,11,1
198,33,1,26,1,-7,1,-29,1,20,1,10,1,-13,1,39,1,55,1,61,1,42,1,-5,1
199,36,1,27,1,-9,1,-31,1,23,1,9,1,-14,1,40,1,57,1,64,1,42,1,-15,1
200,40,1,31,1,-9,1,-35,1,25,1,11,1,-16,1,47,1,59,1,67,1,52,1,1,1
201,42,1,33,1,-9,1,-37,1,26,1,12,1,-18,1,49,1,61,1,70,1,66,1,37,1
202,43,1,34,1,-9,1,-38,1,26,1,13,1,-18,1,42,1,63,1,74,1,62,1,33,1
203,43,1,35,1,-8,1,-39,1,26,1,14,1,-20,1,37,1,65,1,77,1,53,1,14,1
204,46,1,37,1,-9,1,-41,1,28,1,14,1,-22,1,34,1,67,1,79,1,50,1,5,1
205,48,1,40,1,-8,1,-44,1,28,1,16,1,-23,1,40,1,68,1,81,1,61,1,21,1
206,51,1,43,1,-8,1,-47,1,30,1,18,1,-24,1,46,1,72,1,84,1,78,1,54,1
207,53,1,45,1,-8,1,-49,1,31,1,19,1,-24,1,44,1,75,1,88,1,77,1,46,1
208,55,1,47,1,-8,1,-51,1,32,1,20,1,-24,1,45,1,78,1,90,1,72,1,27,1
209,59,1,50,1,-9,1,-54,1,34,1,21,1,-26,1,48,1,81,1,94,1,71,1,17,1
210,63,1,53,1,-10,1,-58,1,37,1,22,1,-28,1,55,1,84,1,98,1,82,1,30,1
211,66,1,55,1,-11,1,-60,1,39,1,22,1,-31,1,58,1,86,1,102,1,98,1,62,1
212,68,1,57,1,-11,1,-62,1,40,1,23,1,-31,1,52,1,90,1,108,1,94,1,54,1
213,70,1,60,1,-10,1,-65,1,40,1,25,1,-32,1,47,1,92,1,112,1,87,1,37,1
214,72,1,63,1,-9,1,-67,1,41,1,27,1,-34,1,47,1,96,1,115,1,85,1,27,1
215,75,1,67,1,-8,1,-71,1,42,1,30,1,-35,1,53,1,98,1,118,1,95,1,40,1
216,77,1,69,1,-8,1,-73,1,43,1,31,1,-36,1,59,1,101,1,121,1,113,1,73,1
217,79,1,71,1,-8,1,-75,1,44,1,32,1,-37,1,59,1,105,1,124,1,113,1,69,1
218,81,1,73,1,-8,1,-77,1,45,1,33,1,-37,1,60,1,108,1,126,1,110,1,51,1
219,83,1,75,1,-8,1,-79,1,46,1,34,1,-39,1,63,1,110,1,129,1,111,1,41,1
220,85,1,79,1,-6,1,-82,1,46,1,37,1,-40,1,71,1,112,1,132,1,123,1,58,1
221,86,1,81,1,-5,1,-83,1,46,1,38,1,-41,1,74,1,114,1,136,1,138,1,93,1
222,85,1,82,1,-3,1,-83,1,44,1,40,1,-39,1,67,1,116,1,139,1,133,1,87,1
223,85,1,83,1,-2,1,-84,1,44,1,41,1,-39,1,63,1,117,1,140,1,123,1,68,1
224,85,1,84,1,-1,1,-84,1,43,1,42,1,-38,1,62,1,117,1,140,1,118,1,58,1
225,84,1,85,1,1,1,-84,1,42,1,43,1,-38,1,68,1,116,1,139,1,125,1,70,1
226,83,1,87,1,4,1,-85,1,40,1,46,1,-37,1,73,1,116,1,139,1,140,1,102,1
227,81,1,87,1,6,1,-84,1,38,1,47,1,-33,1,70,1,118,1,138,1,136,1,94,1
228,78,1,87,1,9,1,-82,1,35,1,48,1,-32,1,70,1,118,1,138,1,128,1,72,1
229,75,1,87,1,12,1,-81,1,32,1,50,1,-30,1,71,1,117,1,136,1,123,1,57,1
230,73,1,87,1,14,1,-80,1,30,1,51,1,-28,1,74,1,116,1,135,1,127,1,67,1
231,70,1,85,1,15,1,-77,1,28,1,50,1,-26,1,76,1,114,1,132,1,134,1,93,1
232,64,1,82,1,18,1,-73,1,23,1,50,1,-23,1,68,1,111,1,128,1,122,1,79,1
233,58,1,78,1,20,1,-68,1,19,1,49,1,-20,1,62,1,108,1,123,1,104,1,52,1
234,52,1,74,1,22,1,-63,1,15,1,48,1,-17,1,58,1,104,1,117,1,92,1,34,1
235,46,1,72,1,26,1,-59,1,10,1,49,1,-14,1,62,1,99,1,110,1,91,1,39,1
236,43,1,70,1,27,1,-56,1,8,1,49,1,-11,1,64,1,95,1,103,1,99,1,64,1
237,39,1,66,1,27,1,-52,1,6,1,47,1,-7,1,59,1,91,1,96,1,88,1,50,1
238,35,1,60,1,25,1,-47,1,5,1,43,1,-3,1,58,1,85,1,89,1,73,1,25,1
239,30,1,54,1,24,1,-42,1,3,1,39,1,0,1,56,1,79,1,82,1,62,1,9,1
240,27,1,48,1,21,1,-37,1,3,1,35,1,1,1,60,1,73,1,75,1,62,1,16,1
241,22,1,43,1,21,1,-32,1,1,1,32,1,2,1,58,1,67,1,69,1,68,1,41,1
242,17,1,36,1,19,1,-26,1,-1,1,28,1,4,1,46,1,62,1,63,1,53,1,25,1
243,11,1,32,1,21,1,-21,1,-5,1,27,1,5,1,37,1,56,1,56,1,34,1,-3,1
244,7,1,28,1,21,1,-17,1,-7,1,25,1,6,1,31,1,51,1,50,1,22,1,-21,1
245,3,1,25,1,22,1,-14,1,-9,1,24,1,7,1,34,1,46,1,43,1,23,1,-15,1
246,0,1,23,1,23,1,-11,1,-11,1,23,1,8,1,36,1,42,1,37,1,32,1,12,1
247,-2,1,19,1,21,1,-8,1,-11,1,20,1,11,1,29,1,37,1,31,1,23,1,2,1
248,-4,1,15,1,19,1,-5,1,-11,1,17,1,13,1,27,1,31,1,25,1,12,1,-20,1
249,-5,1,11,1,16,1,-3,1,-10,1,13,1,13,1,23,1,26,1,20,1,3,1,-36,1
250,-5,1,9,1,14,1,-2,1,-9,1,11,1,12,1,26,1,20,1,14,1,6,1,-27,1
251,-7,1,6,1,13,1,0,1,-10,1,9,1,12,1,24,1,15,1,11,1,14,1,-1,1
252,-10,1,1,1,11,1,4,1,-10,1,6,1,13,1,13,1,12,1,8,1,3,1,-13,1
253,-12,1,-1,1,11,1,6,1,-12,1,5,1,13,1,5,1,9,1,4,1,-11,1,-38,1
254,-14,1,-3,1,11,1,8,1,-13,1,4,1,12,1,0,1,6,1,1,1,-21,1,-54,1
255,-16,1,-4,1,12,1,10,1,-14,1,4,1,10,1,3,1,3,1,-3,1,-18,1,-47,1
256,-17,1,-5,1,12,1,11,1,-15,1,3,1,10,1,6,1,0,1,-5,1,-5,1,-17,1
257,-18,1,-7,1,11,1,12,1,-15,1,2,1,11,1,1,1,0,1,-7,1,-11,1,-26,1
258,-19,1,-9,1,10,1,14,1,-15,1,0,1,12,1,0,1,-2,1,-9,1,-20,1,-47,1
259,-20,1,-11,1,9,1,15,1,-15,1,-1,1,12,1,0,1,-4,1,-10,1,-25,1,-60,1
260,-19,1,-11,1,8,1,15,1,-14,1,-2,1,11,1,4,1,-7,1,-11,1,-19,1,-47,1
261,-20,1,-12,1,8,1,16,1,-14,1,-2,1,10,1,3,1,-9,1,-13,1,-9,1,-16,1
262,-21,1,-14,1,7,1,17,1,-14,1,-4,1,10,1,-7,1,-11,1,-15,1,-18,1,-25,1
263,-22,1,-16,1,6,1,19,1,-14,1,-5,1,10,1,-13,1,-12,1,-16,1,-31,1,-48,1
264,-23,1,-16,1,7,1,19,1,-15,1,-5,1,9,1,-17,1,-14,1,-18,1,-38,1,-62,1
265,-23,1,-16,1,7,1,19,1,-15,1,-5,1,7,1,-12,1,-15,1,-19,1,-31,1,-52,1
266,-23,1,-17,1,6,1,20,1,-15,1,-6,1,7,1,-8,1,-16,1,-21,1,-17,1,-20,1
267,-24,1,-17,1,7,1,20,1,-16,1,-5,1,8,1,-12,1,-17,1,-21,1,-20,1,-25,1
268,-24,1,-18,1,6,1,21,1,-15,1,-6,1,10,1,-12,1,-17,1,-22,1,-28,1,-45,1
269,-23,1,-18,1,5,1,20,1,-14,1,-7,1,10,1,-12,1,-18,1,-23,1,-33,1,-57,1
270,-22,1,-16,1,6,1,19,1,-14,1,-5,1,9,1,-8,1,-18,1,-24,1,-27,1,-47,1
271,-21,1,-16,1,5,1,18,1,-13,1,-6,1,9,1,-8,1,-18,1,-25,1,-15,1,-19,1
272,-23,1,-19,1,4,1,21,1,-14,1,-8,1,10,1,-16,1,-18,1,-24,1,-24,1,-29,1
273,-24,1,-20,1,4,1,22,1,-14,1,-8,1,10,1,-21,1,-19,1,-25,1,-36,1,-54,1
274,-24,1,-21,1,3,1,22,1,-14,1,-9,1,9,1,-23,1,-19,1,-25,1,-42,1,-69,1
275,-25,1,-22,1,3,1,23,1,-14,1,-10,1,7,1,-17,1,-19,1,-26,1,-37,1,-61,1
276,-24,1,-21,1,3,1,22,1,-14,1,-9,1,8,1,-12,1,-19,1,-25,1,-23,1,-29,1
277,-25,1,-21,1,4,1,23,1,-15,1,-9,1,9,1,-15,1,-18,1,-23,1,-27,1,-34,1
278,-24,1,-22,1,2,1,23,1,-13,1,-10,1,11,1,-16,1,-18,1,-23,1,-34,1,-53,1
279,-25,1,-21,1,4,1,23,1,-15,1,-9,1,11,1,-16,1,-18,1,-23,1,-39,1,-65,1
280,-24,1,-19,1,5,1,21,1,-15,1,-7,1,10,1,-10,1,-19,1,-23,1,-33,1,-54,1
281,-25,1,-19,1,6,1,22,1,-16,1,-7,1,10,1,-9,1,-19,1,-25,1,-22,1,-23,1
282,-26,1,-21,1,5,1,23,1,-16,1,-8,1,11,1,-17,1,-19,1,-25,1,-30,1,-34,1
283,-27,1,-23,1,4,1,25,1,-16,1,-10,1,11,1,-23,1,-19,1,-26,1,-42,1,-59,1
284,-28,1,-23,1,5,1,25,1,-17,1,-9,1,11,1,-24,1,-20,1,-27,1,-49,1,-75,1
285,-28,1,-23,1,5,1,25,1,-17,1,-9,1,10,1,-19,1,-21,1,-27,1,-44,1,-67,1
286,-26,1,-23,1,3,1,24,1,-15,1,-10,1,9,1,-14,1,-21,1,-26,1,-30,1,-35,1
287,-27,1,-23,1,4,1,25,1,-16,1,-10,1,10,1,-18,1,-20,1,-25,1,-33,1,-42,1
288,-26,1,-22,1,4,1,24,1,-15,1,-9,1,11,1,-18,1,-20,1,-25,1,-41,1,-61,1
289,-27,1,-22,1,5,1,24,1,-16,1,-9,1,11,1,-18,1,-20,1,-25,1,-47,1,-74,1
290,-26,1,-21,1,5,1,23,1,-16,1,-8,1,10,1,-13,1,-21,1,-26,1,-41,1,-65,1
291,-26,1,-21,1,5,1,23,1,-16,1,-8,1,10,1,-11,1,-21,1,-27,1,-30,1,-37,1
292,-27,1,-22,1,5,1,24,1,-16,1,-9,1,11,1,-19,1,-21,1,-27,1,-38,1,-48,1
293,-29,1,-23,1,6,1,26,1,-18,1,-9,1,12,1,-23,1,-20,1,-27,1,-49,1,-74,1
294,-29,1,-23,1,6,1,26,1,-18,1,-9,1,11,1,-25,1,-21,1,-28,1,-56,1,-89,1
295,-28,1,-22,1,6,1,25,1,-17,1,-8,1,9,1,-20,1,-22,1,-29,1,-51,1,-79,1
296,-27,1,-21,1,6,1,24,1,-17,1,-8,1,9,1,-17,1,-21,1,-29,1,-37,1,-46,1
297,-26,1,-21,1,5,1,23,1,-16,1,-8,1,11,1,-20,1,-20,1,-28,1,-42,1,-53,1
298,-25,1,-21,1,4,1,23,1,-15,1,-9,1,11,1,-20,1,-20,1,-27,1,-51,1,-74,1
299,-25,1,-22,1,3,1,23,1,-14,1,-10,1,11,1,-19,1,-20,1,-27,1,-56,1,-87,1
300,-24,1,-21,1,3,1,22,1,-14,1,-9,1,9,1,-13,1,-21,1,-27,1,-49,1,-78,1
301,-25,1,-21,1,4,1,23,1,-15,1,-9,1,9,1,-12,1,-22,1,-28,1,-37,1,-49,1
302,-26,1,-23,1,3,1,24,1,-15,1,-10,1,10,1,-20,1,-23,1,-28,1,-45,1,-61,1
303,-28,1,-25,1,3,1,26,1,-16,1,-11,1,10,1,-24,1,-24,1,-29,1,-56,1,-84,1
304,-29,1,-26,1,3,1,27,1,-16,1,-12,1,10,1,-27,1,-24,1,-29,1,-62,1,-97,1
305,-30,1,-26,1,4,1,28,1,-17,1,-11,1,9,1,-21,1,-24,1,-30,1,-55,1,-87,1
306,-29,1,-25,1,4,1,27,1,-17,1,-11,1,9,1,-16,1,-24,1,-29,1,-39,1,-53,1
307,-29,1,-26,1,3,1,27,1,-16,1,-12,1,10,1,-19,1,-22,1,-27,1,-42,1,-57,1
308,-28,1,-26,1,2,1,27,1,-15,1,-12,1,11,1,-19,1,-21,1,-27,1,-49,1,-76,1
309,-27,1,-25,1,2,1,26,1,-15,1,-12,1,11,1,-18,1,-21,1,-28,1,-55,1,-88,1
310,-26,1,-25,1,1,1,25,1,-14,1,-12,1,10,1,-12,1,-22,1,-28,1,-50,1,-77,1
311,-26,1,-25,1,1,1,25,1,-14,1,-12,1,10,1,-11,1,-23,1,-29,1,-39,1,-47,1
312,-28,1,-26,1,2,1,27,1,-15,1,-12,1,11,1,-19,1,-23,1,-29,1,-47,1,-58,1
313,-29,1,-26,1,3,1,27,1,-16,1,-12,1,11,1,-25,1,-23,1,-29,1,-59,1,-83,1
314,-30,1,-27,1,3,1,28,1,-17,1,-12,1,11,1,-27,1,-24,1,-30,1,-65,1,-97,1
315,-29,1,-26,1,3,1,27,1,-16,1,-12,1,10,1,-22,1,-24,1,-31,1,-57,1,-85,1
316,-28,1,-25,1,3,1,26,1,-16,1,-11,1,10,1,-18,1,-25,1,-31,1,-42,1,-50,1
317,-28,1,-25,1,3,1,26,1,-16,1,-11,1,12,1,-21,1,-24,1,-30,1,-45,1,-56,1
318,-27,1,-26,1,1,1,26,1,-14,1,-13,1,13,1,-20,1,-24,1,-30,1,-52,1,-76,1
319,-28,1,-26,1,2,1,27,1,-15,1,-12,1,12,1,-20,1,-23,1,-30,1,-57,1,-89,1
320,-27,1,-25,1,2,1,26,1,-15,1,-12,1,10,1,-14,1,-23,1,-31,1,-52,1,-80,1
321,-27,1,-25,1,2,1,26,1,-15,1,-12,1,10,1,-12,1,-24,1,-32,1,-41,1,-50,1
322,-27,1,-26,1,1,1,26,1,-14,1,-13,1,10,1,-21,1,-25,1,-32,1,-50,1,-62,1
323,-29,1,-27,1,2,1,28,1,-16,1,-13,1,11,1,-26,1,-25,1,-33,1,-60,1,-87,1
324,-30,1,-29,1,1,1,29,1,-16,1,-14,1,11,1,-29,1,-26,1,-34,1,-67,1,-101,1
325,-30,1,-29,1,1,1,29,1,-16,1,-14,1,9,1,-24,1,-26,1,-34,1,-61,1,-93,1
326,-30,1,-28,1,2,1,29,1,-16,1,-13,1,9,1,-19,1,-25,1,-33,1,-45,1,-59,1
327,-31,1,-28,1,3,1,29,1,-17,1,-13,1,10,1,-22,1,-24,1,-31,1,-48,1,-64,1
328,-30,1,-28,1,2,1,29,1,-16,1,-13,1,11,1,-23,1,-24,1,-31,1,-56,1,-85,1
329,-29,1,-28,1,1,1,28,1,-15,1,-14,1,11,1,-22,1,-24,1,-31,1,-61,1,-96,1
330,-28,1,-27,1,1,1,27,1,-15,1,-13,1,10,1,-17,1,-25,1,-32,1,-56,1,-86,1
331,-28,1,-27,1,1,1,27,1,-15,1,-13,1,9,1,-14,1,-26,1,-32,1,-44,1,-56,1
332,-29,1,-27,1,2,1,28,1,-16,1,-13,1,10,1,-22,1,-26,1,-31,1,-51,1,-66,1
333,-30,1,-28,1,2,1,29,1,-16,1,-13,1,10,1,-28,1,-27,1,-32,1,-64,1,-93,1
334,-30,1,-28,1,2,1,29,1,-16,1,-13,1,9,1,-30,1,-28,1,-33,1,-70,1,-108,1
335,-30,1,-27,1,3,1,28,1,-17,1,-12,1,7,1,-25,1,-29,1,-34,1,-64,1,-97,1
336,-29,1,-27,1,2,1,28,1,-16,1,-13,1,7,1,-20,1,-28,1,-33,1,-50,1,-64,1
337,-30,1,-27,1,3,1,28,1,-17,1,-12,1,10,1,-23,1,-27,1,-32,1,-54,1,-70,1
338,-30,1,-27,1,3,1,28,1,-17,1,-12,1,11,1,-24,1,-26,1,-32,1,-62,1,-91,1
339,-30,1,-28,1,2,1,29,1,-16,1,-13,1,12,1,-23,1,-26,1,-33,1,-67,1,-103,1
340,-28,1,-26,1,2,1,27,1,-15,1,-12,1,10,1,-19,1,-27,1,-34,1,-62,1,-93,1
341,-28,1,-25,1,3,1,26,1,-16,1,-11,1,10,1,-18,1,-27,1,-35,1,-52,1,-63,1
342,-27,1,-26,1,1,1,26,1,-14,1,-13,1,11,1,-26,1,-27,1,-34,1,-60,1,-74,1
343,-29,1,-27,1,2,1,28,1,-16,1,-13,1,10,1,-31,1,-28,1,-35,1,-72,1,-101,1
344,-30,1,-27,1,3,1,28,1,-17,1,-12,1,9,1,-33,1,-28,1,-35,1,-78,1,-115,1
345,-31,1,-27,1,4,1,29,1,-18,1,-12,1,8,1,-27,1,-28,1,-34,1,-71,1,-106,1
346,-30,1,-26,1,4,1,28,1,-17,1,-11,1,8,1,-20,1,-26,1,-33,1,-53,1,-70,1
347,-29,1,-25,1,4,1,27,1,-17,1,-11,1,10,1,-22,1,-25,1,-31,1,-55,1,-72,1
348,-28,1,-24,1,4,1,26,1,-16,1,-10,1,11,1,-21,1,-24,1,-31,1,-61,1,-91,1
349,-26,1,-23,1,3,1,24,1,-15,1,-10,1,12,1,-19,1,-24,1,-31,1,-65,1,-102,1
350,-24,1,-21,1,3,1,22,1,-14,1,-9,1,11,1,-13,1,-24,1,-31,1,-58,1,-91,1
351,-23,1,-20,1,3,1,21,1,-13,1,-9,1,11,1,-10,1,-24,1,-31,1,-45,1,-59,1
352,-24,1,-21,1,3,1,22,1,-14,1,-9,1,12,1,-18,1,-22,1,-29,1,-53,1,-68,1
353,-26,1,-22,1,4,1,24,1,-15,1,-9,1,13,1,-22,1,-22,1,-28,1,-66,1,-95,1
354,-26,1,-21,1,5,1,23,1,-16,1,-8,1,13,1,-24,1,-22,1,-28,1,-71,1,-109,1
355,-26,1,-20,1,6,1,23,1,-16,1,-7,1,11,1,-18,1,-23,1,-28,1,-63,1,-99,1
356,-25,1,-19,1,6,1,22,1,-16,1,-7,1,11,1,-13,1,-22,1,-27,1,-47,1,-63,1
357,-26,1,-18,1,8,1,22,1,-17,1,-5,1,12,1,-17,1,-20,1,-26,1,-48,1,-65,1
358,-26,1,-17,1,9,1,21,1,-18,1,-4,1,14,1,-16,1,-19,1,-26,1,-55,1,-82,1
359,-25,1,-18,1,7,1,21,1,-16,1,-6,1,13,1,-14,1,-19,1,-27,1,-59,1,-93,1
360,-24,1,-17,1,7,1,20,1,-16,1,-5,1,12,1,-8,1,-19,1,-28,1,-53,1,-82,1
361,-25,1,-17,1,8,1,21,1,-17,1,-5,1,11,1,-7,1,-20,1,-29,1,-43,1,-52,1
362,-24,1,-17,1,7,1,20,1,-16,1,-5,1,11,1,-16,1,-21,1,-30,1,-52,1,-64,1
363,-24,1,-16,1,8,1,20,1,-16,1,-4,1,10,1,-22,1,-22,1,-30,1,-65,1,-92,1
364,-24,1,-16,1,8,1,20,1,-16,1,-4,1,9,1,-24,1,-23,1,-30,1,-72,1,-107,1
365,-23,1,-15,1,8,1,19,1,-16,1,-4,1,8,1,-19,1,-23,1,-29,1,-66,1,-99,1
366,-21,1,-15,1,6,1,18,1,-14,1,-5,1,8,1,-14,1,-22,1,-28,1,-49,1,-63,1
367,-21,1,-16,1,5,1,18,1,-13,1,-6,1,10,1,-16,1,-21,1,-26,1,-50,1,-66,1
368,-21,1,-17,1,4,1,19,1,-13,1,-7,1,10,1,-17,1,-21,1,-27,1,-57,1,-83,1
369,-21,1,-18,1,3,1,19,1,-12,1,-8,1,10,1,-16,1,-23,1,-28,1,-61,1,-92,1
370,-21,1,-18,1,3,1,19,1,-12,1,-8,1,9,1,-11,1,-24,1,-29,1,-55,1,-81,1
371,-21,1,-19,1,2,1,20,1,-12,1,-9,1,8,1,-9,1,-25,1,-30,1,-43,1,-49,1
372,-21,1,-20,1,1,1,20,1,-11,1,-10,1,9,1,-17,1,-24,1,-29,1,-50,1,-59,1
373,-22,1,-21,1,1,1,21,1,-12,1,-10,1,8,1,-23,1,-24,1,-29,1,-63,1,-85,1
374,-22,1,-23,1,-1,1,22,1,-11,1,-12,1,7,1,-25,1,-25,1,-30,1,-71,1,-100,1
375,-23,1,-23,1,0,1,23,1,-12,1,-12,1,5,1,-19,1,-27,1,-32,1,-65,1,-92,1
376,-23,1,-23,1,0,1,23,1,-12,1,-12,1,5,1,-15,1,-28,1,-32,1,-49,1,-56,1
377,-24,1,-25,1,-1,1,24,1,-12,1,-13,1,6,1,-18,1,-28,1,-33,1,-52,1,-60,1
378,-25,1,-26,1,-1,1,25,1,-12,1,-14,1,7,1,-19,1,-29,1,-33,1,-60,1,-79,1
379,-27,1,-28,1,-1,1,27,1,-13,1,-15,1,8,1,-18,1,-29,1,-34,1,-65,1,-90,1
380,-27,1,-28,1,-1,1,27,1,-13,1,-15,1,8,1,-13,1,-29,1,-35,1,-59,1,-80,1
381,-28,1,-28,1,0,1,28,1,-14,1,-14,1,8,1,-11,1,-30,1,-36,1,-47,1,-48,1
382,-30,1,-30,1,0,1,30,1,-15,1,-15,1,9,1,-18,1,-29,1,-36,1,-55,1,-58,1
383,-32,1,-32,1,0,1,32,1,-16,1,-16,1,10,1,-23,1,-30,1,-36,1,-68,1,-85,1
384,-31,1,-32,1,-1,1,31,1,-15,1,-17,1,10,1,-26,1,-31,1,-37,1,-75,1,-101,1
385,-31,1,-32,1,-1,1,31,1,-15,1,-17,1,9,1,-21,1,-32,1,-38,1,-69,1,-94,1
386,-30,1,-32,1,-2,1,31,1,-14,1,-17,1,9,1,-17,1,-32,1,-39,1,-53,1,-58,1
387,-31,1,-34,1,-3,1,32,1,-14,1,-19,1,11,1,-20,1,-31,1,-38,1,-55,1,-60,1
388,-33,1,-35,1,-2,1,34,1,-16,1,-19,1,12,1,-20,1,-31,1,-38,1,-63,1,-79,1
389,-33,1,-35,1,-2,1,34,1,-16,1,-19,1,13,1,-18,1,-31,1,-38,1,-67,1,-90,1
390,-33,1,-34,1,-1,1,33,1,-16,1,-18,1,12,1,-12,1,-31,1,-38,1,-62,1,-81,1
391,-33,1,-33,1,0,1,33,1,-17,1,-17,1,12,1,-8,1,-33,1,-39,1,-51,1,-50,1
392,-33,1,-35,1,-2,1,34,1,-16,1,-19,1,13,1,-16,1,-33,1,-38,1,-60,1,-61,1
393,-34,1,-36,1,-2,1,35,1,-16,1,-19,1,13,1,-22,1,-34,1,-38,1,-73,1,-90,1
394,-35,1,-36,1,-1,1,35,1,-17,1,-19,1,12,1,-24,1,-34,1,-38,1,-80,1,-107,1
395,-35,1,-37,1,-2,1,36,1,-17,1,-20,1,10,1,-20,1,-35,1,-39,1,-74,1,-99,1
396,-34,1,-36,1,-2,1,35,1,-16,1,-19,1,9,1,-15,1,-35,1,-39,1,-57,1,-61,1
397,-33,1,-35,1,-2,1,34,1,-16,1,-19,1,11,1,-19,1,-34,1,-39,1,-58,1,-63,1
398,-33,1,-36,1,-3,1,34,1,-15,1,-20,1,12,1,-20,1,-34,1,-39,1,-65,1,-81,1
399,-33,1,-36,1,-3,1,34,1,-15,1,-20,1,11,1,-19,1,-34,1,-40,1,-69,1,-93,1
400,-32,1,-35,1,-3,1,33,1,-15,1,-19,1,10,1,-13,1,-34,1,-40,1,-63,1,-82,1
401,-32,1,-35,1,-3,1,33,1,-15,1,-19,1,9,1,-11,1,-35,1,-41,1,-49,1,-51,1
402,-32,1,-36,1,-4,1,34,1,-14,1,-20,1,10,1,-20,1,-34,1,-40,1,-57,1,-62,1
403,-34,1,-37,1,-3,1,35,1,-16,1,-20,1,11,1,-25,1,-34,1,-40,1,-72,1,-91,1
404,-34,1,-37,1,-3,1,35,1,-16,1,-20,1,12,1,-27,1,-35,1,-39,1,-81,1,-108,1
405,-35,1,-37,1,-2,1,36,1,-17,1,-20,1,11,1,-22,1,-36,1,-40,1,-75,1,-99,1
406,-34,1,-37,1,-3,1,35,1,-16,1,-20,1,11,1,-16,1,-35,1,-40,1,-58,1,-62,1
407,-35,1,-37,1,-2,1,36,1,-17,1,-20,1,13,1,-20,1,-33,1,-39,1,-60,1,-63,1
408,-35,1,-37,1,-2,1,36,1,-17,1,-20,1,14,1,-22,1,-33,1,-40,1,-67,1,-80,1
409,-34,1,-36,1,-2,1,35,1,-16,1,-19,1,13,1,-21,1,-33,1,-41,1,-71,1,-91,1
410,-33,1,-35,1,-2,1,34,1,-16,1,-19,1,12,1,-15,1,-33,1,-41,1,-65,1,-83,1
411,-33,1,-34,1,-1,1,33,1,-16,1,-18,1,11,1,-13,1,-34,1,-40,1,-53,1,-53,1
412,-35,1,-35,1,0,1,35,1,-18,1,-18,1,12,1,-20,1,-34,1,-39,1,-61,1,-64,1
413,-36,1,-37,1,-1,1,36,1,-18,1,-19,1,13,1,-25,1,-35,1,-38,1,-73,1,-92,1
414,-36,1,-37,1,-1,1,36,1,-18,1,-19,1,12,1,-27,1,-35,1,-39,1,-79,1,-107,1
415,-37,1,-37,1,0,1,37,1,-19,1,-19,1,11,1,-22,1,-36,1,-39,1,-72,1,-99,1
416,-36,1,-36,1,0,1,36,1,-18,1,-18,1,11,1,-16,1,-35,1,-39,1,-53,1,-60,1
417,-35,1,-36,1,-1,1,35,1,-17,1,-19,1,13,1,-19,1,-32,1,-38,1,-53,1,-59,1
418,-34,1,-37,1,-3,1,35,1,-16,1,-20,1,15,1,-21,1,-32,1,-38,1,-60,1,-79,1
419,-33,1,-37,1,-4,1,35,1,-15,1,-21,1,15,1,-21,1,-32,1,-39,1,-64,1,-92,1
420,-31,1,-36,1,-5,1,33,1,-13,1,-21,1,14,1,-16,1,-33,1,-41,1,-59,1,-83,1
421,-32,1,-36,1,-4,1,34,1,-14,1,-20,1,13,1,-13,1,-33,1,-41,1,-46,1,-51,1
422,-31,1,-37,1,-6,1,34,1,-13,1,-22,1,14,1,-21,1,-32,1,-39,1,-53,1,-61,1
423,-33,1,-37,1,-4,1,35,1,-15,1,-21,1,15,1,-25,1,-31,1,-38,1,-67,1,-91,1
424,-33,1,-36,1,-3,1,34,1,-15,1,-20,1,14,1,-25,1,-30,1,-36,1,-73,1,-107,1
425,-32,1,-34,1,-2,1,33,1,-15,1,-18,1,13,1,-16,1,-28,1,-34,1,-64,1,-96,1
426,-30,1,-31,1,-1,1,30,1,-15,1,-16,1,15,1,-4,1,-21,1,-29,1,-44,1,-56,1
427,-27,1,-28,1,-1,1,27,1,-13,1,-15,1,22,1,5,1,-6,1,-17,1,-41,1,-53,1
428,-23,1,-24,1,-1,1,23,1,-11,1,-13,1,30,1,21,1,13,1,-2,1,-40,1,-65,1
429,-18,1,-19,1,-1,1,18,1,-9,1,-10,1,38,1,42,1,36,1,16,1,-32,1,-67,1
430,-11,1,-13,1,-2,1,12,1,-5,1,-8,1,46,1,70,1,59,1,36,1,-13,1,-48,1
431,-1,1,-3,1,-2,1,2,1,0,1,-3,1,50,1,91,1,82,1,58,1,19,1,-1,1
432,10,1,9,1,-1,1,-9,1,6,1,4,1,50,1,98,1,102,1,82,1,37,1,9,1
433,25,1,26,1,1,1,-25,1,12,1,14,1,49,1,106,1,121,1,108,1,56,1,9,1
434,42,1,44,1,2,1,-43,1,20,1,23,1,46,1,115,1,135,1,131,1,85,1,25,1
435,59,1,62,1,3,1,-60,1,28,1,33,1,39,1,124,1,142,1,149,1,129,1,69,1
436,79,1,79,1,0,1,-79,1,40,1,40,1,24,1,123,1,138,1,159,1,184,1,145,1
437,98,1,95,1,-3,1,-96,1,51,1,46,1,0,1,97,1,120,1,159,1,218,1,184,1
438,115,1,106,1,-9,1,-110,1,62,1,49,1,-34,1,55,1,86,1,143,1,235,1,195,1
439,126,1,110,1,-16,1,-118,1,71,1,47,1,-70,1,10,1,42,1,118,1,242,1,201,1
440,135,1,110,1,-25,1,-122,1,80,1,43,1,-102,1,-28,1,-2,1,87,1,245,1,216,1
441,136,1,106,1,-30,1,-121,1,83,1,38,1,-125,1,-62,1,-46,1,51,1,240,1,238,1
442,131,1,97,1,-34,1,-114,1,83,1,32,1,-138,1,-105,1,-89,1,10,1,200,1,206,1
443,117,1,84,1,-33,1,-100,1,75,1,26,1,-144,1,-144,1,-134,1,-37,1,142,1,145,1
444,92,1,62,1,-30,1,-77,1,61,1,16,1,-143,1,-180,1,-182,1,-93,1,75,1,79,1
445,56,1,39,1,-17,1,-47,1,37,1,11,1,-133,1,-203,1,-225,1,-151,1,12,1,26,1
446,17,1,20,1,3,1,-18,1,7,1,12,1,-118,1,-215,1,-251,1,-194,1,-29,1,9,1
447,-13,1,4,1,17,1,4,1,-15,1,10,1,-101,1,-223,1,-259,1,-214,1,-69,1,-30,1
448,-36,1,-13,1,23,1,24,1,-30,1,5,1,-86,1,-218,1,-253,1,-219,1,-103,1,-77,1
449,-49,1,-28,1,21,1,38,1,-35,1,-4,1,-75,1,-205,1,-240,1,-215,1,-124,1,-111,1
450,-56,1,-40,1,16,1,48,1,-36,1,-12,1,-67,1,-186,1,-225,1,-206,1,-128,1,-117,1
451,-59,1,-45,1,14,1,52,1,-37,1,-16,1,-60,1,-169,1,-208,1,-193,1,-119,1,-97,1
452,-62,1,-47,1,15,1,54,1,-39,1,-16,1,-49,1,-161,1,-189,1,-176,1,-124,1,-112,1
453,-62,1,-46,1,16,1,54,1,-39,1,-15,1,-40,1,-148,1,-168,1,-158,1,-131,1,-141,1
454,-60,1,-44,1,16,1,52,1,-38,1,-14,1,-32,1,-133,1,-148,1,-139,1,-130,1,-156,1
455,-58,1,-42,1,16,1,50,1,-37,1,-13,1,-27,1,-112,1,-129,1,-123,1,-118,1,-149,1
456,-53,1,-38,1,15,1,45,1,-34,1,-12,1,-23,1,-93,1,-112,1,-107,1,-94,1,-110,1
457,-49,1,-35,1,14,1,42,1,-32,1,-11,1,-18,1,-84,1,-95,1,-93,1,-87,1,-108,1
458,-43,1,-31,1,12,1,37,1,-28,1,-10,1,-15,1,-74,1,-80,1,-79,1,-85,1,-119,1
459,-36,1,-26,1,10,1,31,1,-23,1,-8,1,-11,1,-63,1,-65,1,-66,1,-79,1,-123,1
460,-29,1,-22,1,7,1,25,1,-18,1,-8,1,-10,1,-49,1,-55,1,-55,1,-66,1,-109,1
461,-26,1,-18,1,8,1,22,1,-17,1,-5,1,-9,1,-38,1,-45,1,-45,1,-47,1,-76,1
462,-21,1,-16,1,5,1,18,1,-13,1,-6,1,-7,1,-39,1,-37,1,-37,1,-50,1,-84,1
463,-18,1,-14,1,4,1,16,1,-11,1,-5,1,-5,1,-38,1,-30,1,-30,1,-60,1,-112,1
464,-15,1,-12,1,3,1,13,1,-9,1,-5,1,-4,1,-33,1,-23,1,-24,1,-65,1,-128,1
465,-13,1,-10,1,3,1,11,1,-8,1,-4,1,-3,1,-22,1,-19,1,-21,1,-59,1,-123,1
466,-12,1,-9,1,3,1,10,1,-8,1,-3,1,-2,1,-13,1,-16,1,-18,1,-43,1,-89,1
467,-12,1,-9,1,3,1,10,1,-8,1,-3,1,0,1,-14,1,-12,1,-16,1,-46,1,-91,1
468,-12,1,-10,1,2,1,11,1,-7,1,-4,1,2,1,-15,1,-9,1,-14,1,-54,1,-110,1
469,-12,1,-10,1,2,1,11,1,-7,1,-4,1,3,1,-13,1,-7,1,-13,1,-58,1,-122,1
470,-11,1,-10,1,1,1,10,1,-6,1,-5,1,4,1,-7,1,-6,1,-12,1,-53,1,-113,1
471,-11,1,-9,1,2,1,10,1,-7,1,-4,1,4,1,-3,1,-6,1,-12,1,-40,1,-84,1
472,-11,1,-10,1,1,1,10,1,-6,1,-5,1,5,1,-8,1,-4,1,-10,1,-46,1,-93,1
473,-10,1,-10,1,0,1,10,1,-5,1,-5,1,6,1,-11,1,-3,1,-9,1,-58,1,-122,1
474,-10,1,-10,1,0,1,10,1,-5,1,-5,1,6,1,-11,1,-1,1,-7,1,-65,1,-140,1
475,-10,1,-9,1,1,1,9,1,-6,1,-4,1,4,1,-4,1,0,1,-7,1,-61,1,-137,1
476,-10,1,-8,1,2,1,9,1,-6,1,-3,1,4,1,0,1,0,1,-6,1,-46,1,-103,1
477,-10,1,-8,1,2,1,9,1,-6,1,-3,1,5,1,-4,1,1,1,-5,1,-48,1,-105,1
478,-10,1,-8,1,2,1,9,1,-6,1,-3,1,7,1,-6,1,1,1,-4,1,-56,1,-123,1
479,-11,1,-9,1,2,1,10,1,-7,1,-4,1,8,1,-5,1,0,1,-4,1,-59,1,-133,1
480,-10,1,-9,1,1,1,9,1,-6,1,-4,1,8,1,1,1,0,1,-4,1,-53,1,-124,1
481,-10,1,-10,1,0,1,10,1,-5,1,-5,1,8,1,6,1,0,1,-4,1,-39,1,-93,1
482,-11,1,-10,1,1,1,10,1,-6,1,-5,1,8,1,0,1,1,1,-3,1,-44,1,-102,1
483,-11,1,-10,1,1,1,10,1,-6,1,-5,1,9,1,-4,1,2,1,-3,1,-57,1,-129,1
484,-10,1,-10,1,0,1,10,1,-5,1,-5,1,8,1,-4,1,2,1,-3,1,-64,1,-148,1
485,-10,1,-10,1,0,1,10,1,-5,1,-5,1,7,1,1,1,3,1,-3,1,-60,1,-144,1
486,-9,1,-10,1,-1,1,9,1,-4,1,-6,1,6,1,7,1,3,1,-2,1,-44,1,-110,1
487,-9,1,-10,1,-1,1,9,1,-4,1,-6,1,8,1,3,1,4,1,-1,1,-46,1,-111,1
488,-9,1,-10,1,-1,1,9,1,-4,1,-6,1,9,1,1,1,5,1,0,1,-54,1,-130,1
489,-8,1,-9,1,-1,1,8,1,-4,1,-5,1,9,1,1,1,6,1,0,1,-57,1,-142,1
490,-7,1,-9,1,-2,1,8,1,-3,1,-6,1,8,1,7,1,5,1,1,1,-52,1,-133,1
491,-8,1,-9,1,-1,1,8,1,-4,1,-5,1,7,1,11,1,5,1,2,1,-38,1,-104,1
492,-7,1,-10,1,-3,1,8,1,-2,1,-7,1,8,1,5,1,6,1,3,1,-45,1,-113,1
493,-9,1,-10,1,-1,1,9,1,-4,1,-6,1,9,1,1,1,6,1,3,1,-59,1,-142,1
494,-9,1,-11,1,-2,1,10,1,-4,1,-7,1,8,1,1,1,6,1,2,1,-66,1,-158,1
495,-10,1,-10,1,0,1,10,1,-5,1,-5,1,8,1,6,1,6,1,2,1,-62,1,-155,1
496,-9,1,-10,1,-1,1,9,1,-4,1,-6,1,8,1,11,1,6,1,1,1,-46,1,-120,1
497,-8,1,-10,1,-2,1,9,1,-3,1,-6,1,8,1,6,1,8,1,2,1,-47,1,-121,1
498,-7,1,-9,1,-2,1,8,1,-3,1,-6,1,9,1,3,1,9,1,2,1,-56,1,-140,1
499,-7,1,-8,1,-1,1,7,1,-3,1,-5,1,8,1,3,1,9,1,2,1,-59,1,-150,1
500,-5,1,-7,1,-2,1,6,1,-2,1,-5,1,7,1,8,1,8,1,3,1,-53,1,-142,1
501,-5,1,-6,1,-1,1,5,1,-2,1,-4,1,6,1,12,1,8,1,3,1,-40,1,-112,1
502,-6,1,-6,1,0,1,6,1,-3,1,-3,1,6,1,9,1,9,1,3,1,-45,1,-119,1
503,-7,1,-7,1,0,1,7,1,-4,1,-4,1,7,1,5,1,9,1,4,1,-57,1,-145,1
504,-7,1,-7,1,0,1,7,1,-4,1,-4,1,7,1,3,1,9,1,3,1,-65,1,-163,1
505,-8,1,-7,1,1,1,7,1,-5,1,-3,1,5,1,8,1,9,1,3,1,-61,1,-159,1
506,-8,1,-6,1,2,1,7,1,-5,1,-2,1,5,1,12,1,9,1,3,1,-45,1,-125,1
507,-8,1,-6,1,2,1,7,1,-5,1,-2,1,6,1,6,1,10,1,4,1,-46,1,-125,1
508,-7,1,-7,1,0,1,7,1,-4,1,-4,1,7,1,2,1,10,1,5,1,-54,1,-143,1
509,-6,1,-6,1,0,1,6,1,-3,1,-3,1,6,1,2,1,9,1,5,1,-57,1,-155,1
510,-5,1,-5,1,0,1,5,1,-3,1,-3,1,5,1,8,1,8,1,4,1,-52,1,-149,1
511,-5,1,-5,1,0,1,5,1,-3,1,-3,1,5,1,12,1,8,1,4,1,-40,1,-119,1
512,-5,1,-6,1,-1,1,5,1,-2,1,-4,1,6,1,6,1,9,1,5,1,-46,1,-128,1
513,-6,1,-6,1,0,1,6,1,-3,1,-3,1,6,1,2,1,9,1,5,1,-59,1,-156,1
514,-6,1,-6,1,0,1,6,1,-3,1,-3,1,5,1,0,1,9,1,4,1,-66,1,-173,1
515,-6,1,-5,1,1,1,5,1,-4,1,-2,1,4,1,5,1,9,1,4,1,-61,1,-167,1
516,-5,1,-4,1,1,1,4,1,-3,1,-2,1,4,1,11,1,9,1,6,1,-44,1,-133,1
517,-6,1,-5,1,1,1,5,1,-4,1,-2,1,5,1,6,1,11,1,8,1,-45,1,-135,1
518,-6,1,-5,1,1,1,5,1,-4,1,-2,1,5,1,3,1,12,1,10,1,-52,1,-154,1
519,-4,1,-5,1,-1,1,4,1,-2,1,-3,1,5,1,3,1,12,1,11,1,-55,1,-165,1
520,-3,1,-5,1,-2,1,4,1,-1,1,-4,1,3,1,7,1,11,1,9,1,-51,1,-160,1
521,-3,1,-5,1,-2,1,4,1,-1,1,-4,1,2,1,9,1,10,1,8,1,-39,1,-128,1
522,-3,1,-5,1,-2,1,4,1,-1,1,-4,1,3,1,3,1,11,1,9,1,-46,1,-137,1
523,-4,1,-5,1,-1,1,4,1,-2,1,-3,1,4,1,1,1,12,1,10,1,-59,1,-165,1
524,-4,1,-4,1,0,1,4,1,-2,1,-2,1,4,1,0,1,13,1,11,1,-66,1,-182,1
525,-3,1,-2,1,1,1,2,1,-2,1,-1,1,3,1,6,1,13,1,11,1,-61,1,-179,1
526,-2,1,-1,1,1,1,1,1,-2,1,0,1,3,1,13,1,14,1,11,1,-43,1,-145,1
527,-2,1,-1,1,1,1,1,1,-2,1,0,1,3,1,10,1,16,1,13,1,-45,1,-146,1
528,-3,1,-2,1,1,1,2,1,-2,1,-1,1,3,1,5,1,16,1,14,1,-53,1,-166,1
529,-2,1,-2,1,0,1,2,1,-1,1,-1,1,2,1,5,1,16,1,15,1,-57,1,-177,1
530,0,1,-1,1,-1,1,0,1,0,1,-1,1,1,1,11,1,16,1,15,1,-52,1,-170,1
531,1,1,-1,1,-2,1,0,1,1,1,-1,1,1,1,16,1,16,1,16,1,-39,1,-138,1
532,1,1,-1,1,-2,1,0,1,1,1,-1,1,2,1,9,1,18,1,17,1,-44,1,-145,1
533,1,1,-2,1,-3,1,0,1,2,1,-2,1,4,1,5,1,19,1,17,1,-57,1,-172,1
534,1,1,-1,1,-2,1,0,1,1,1,-1,1,4,1,5,1,19,1,16,1,-61,1,-187,1
535,1,1,0,1,-1,1,0,1,1,1,0,1,2,1,11,1,20,1,16,1,-53,1,-178,1
536,2,1,1,1,-1,1,-1,1,2,1,0,1,2,1,18,1,20,1,17,1,-34,1,-141,1
537,2,1,1,1,-1,1,-1,1,2,1,0,1,2,1,14,1,21,1,19,1,-33,1,-138,1
538,2,1,1,1,-1,1,-1,1,2,1,0,1,0,1,12,1,22,1,20,1,-39,1,-152,1
539,3,1,1,1,-2,1,-2,1,3,1,0,1,-1,1,13,1,22,1,21,1,-40,1,-156,1
540,5,1,2,1,-3,1,-3,1,4,1,0,1,-2,1,19,1,22,1,21,1,-33,1,-144,1
541,7,1,3,1,-4,1,-5,1,6,1,0,1,-3,1,24,1,22,1,21,1,-18,1,-105,1
542,6,1,2,1,-4,1,-4,1,5,1,-1,1,-2,1,18,1,23,1,22,1,-21,1,-107,1
543,6,1,3,1,-3,1,-4,1,5,1,0,1,-1,1,14,1,24,1,23,1,-31,1,-129,1
544,5,1,4,1,-1,1,-4,1,3,1,2,1,0,1,14,1,25,1,23,1,-33,1,-138,1
545,5,1,5,1,0,1,-5,1,3,1,3,1,-1,1,21,1,25,1,23,1,-26,1,-127,1
546,6,1,5,1,-1,1,-5,1,4,1,2,1,-2,1,28,1,26,1,24,1,-6,1,-83,1
547,7,1,4,1,-3,1,-5,1,5,1,1,1,-2,1,25,1,27,1,26,1,-3,1,-75,1
548,8,1,4,1,-4,1,-6,1,6,1,0,1,-3,1,23,1,28,1,27,1,-10,1,-89,1
549,9,1,5,1,-4,1,-7,1,7,1,1,1,-4,1,23,1,28,1,28,1,-12,1,-95,1
550,11,1,6,1,-5,1,-8,1,8,1,1,1,-6,1,29,1,28,1,28,1,-5,1,-82,1
551,11,1,7,1,-4,1,-9,1,8,1,2,1,-7,1,33,1,29,1,28,1,9,1,-48,1
552,12,1,7,1,-5,1,-9,1,9,1,1,1,-5,1,28,1,30,1,30,1,5,1,-52,1
553,12,1,8,1,-4,1,-10,1,8,1,2,1,-5,1,24,1,30,1,32,1,-5,1,-77,1
554,13,1,9,1,-4,1,-11,1,9,1,3,1,-6,1,23,1,31,1,33,1,-10,1,-90,1
555,14,1,11,1,-3,1,-12,1,9,1,4,1,-7,1,29,1,32,1,34,1,-2,1,-83,1
556,16,1,13,1,-3,1,-14,1,10,1,5,1,-8,1,34,1,33,1,35,1,15,1,-46,1
557,18,1,13,1,-5,1,-15,1,12,1,4,1,-6,1,30,1,35,1,37,1,14,1,-46,1
558,18,1,12,1,-6,1,-15,1,12,1,3,1,-6,1,28,1,37,1,39,1,6,1,-64,1
559,20,1,13,1,-7,1,-16,1,14,1,3,1,-6,1,29,1,38,1,41,1,2,1,-74,1
560,23,1,14,1,-9,1,-18,1,16,1,3,1,-7,1,35,1,39,1,43,1,7,1,-68,1
561,24,1,16,1,-8,1,-20,1,16,1,4,1,-9,1,39,1,39,1,44,1,21,1,-38,1
562,23,1,16,1,-7,1,-19,1,15,1,5,1,-10,1,33,1,41,1,46,1,17,1,-46,1
563,22,1,16,1,-6,1,-19,1,14,1,5,1,-10,1,29,1,42,1,48,1,5,1,-75,1
564,22,1,18,1,-4,1,-20,1,13,1,7,1,-11,1,28,1,43,1,49,1,1,1,-91,1
565,23,1,19,1,-4,1,-21,1,14,1,8,1,-12,1,33,1,44,1,50,1,7,1,-86,1
566,26,1,21,1,-5,1,-23,1,16,1,8,1,-13,1,39,1,45,1,50,1,26,1,-49,1
567,28,1,22,1,-6,1,-25,1,17,1,8,1,-12,1,34,1,47,1,53,1,26,1,-46,1
568,30,1,22,1,-8,1,-26,1,19,1,7,1,-13,1,31,1,49,1,55,1,19,1,-63,1
569,33,1,23,1,-10,1,-28,1,22,1,7,1,-14,1,32,1,51,1,57,1,18,1,-70,1
570,36,1,25,1,-11,1,-30,1,24,1,7,1,-17,1,39,1,52,1,59,1,26,1,-58,1
571,37,1,27,1,-10,1,-32,1,24,1,9,1,-19,1,44,1,54,1,61,1,43,1,-23,1
572,38,1,29,1,-9,1,-33,1,24,1,10,1,-21,1,39,1,56,1,64,1,42,1,-24,1
573,39,1,32,1,-7,1,-35,1,23,1,13,1,-21,1,36,1,58,1,67,1,34,1,-45,1
574,41,1,34,1,-7,1,-37,1,24,1,14,1,-23,1,37,1,60,1,70,1,35,1,-54,1
575,43,1,37,1,-6,1,-40,1,25,1,16,1,-24,1,44,1,62,1,72,1,45,1,-41,1
576,47,1,39,1,-8,1,-43,1,28,1,16,1,-26,1,50,1,64,1,76,1,67,1,0,1
577,51,1,40,1,-11,1,-45,1,31,1,15,1,-25,1,46,1,67,1,80,1,69,1,5,1
578,53,1,40,1,-13,1,-46,1,33,1,14,1,-25,1,42,1,69,1,83,1,63,1,-9,1
579,56,1,42,1,-14,1,-49,1,35,1,14,1,-27,1,42,1,71,1,86,1,62,1,-17,1
580,59,1,44,1,-15,1,-51,1,37,1,15,1,-30,1,48,1,73,1,88,1,70,1,-5,1
581,60,1,47,1,-13,1,-53,1,37,1,17,1,-32,1,53,1,75,1,91,1,88,1,30,1
582,62,1,49,1,-13,1,-55,1,38,1,18,1,-34,1,48,1,78,1,95,1,88,1,28,1
583,63,1,52,1,-11,1,-57,1,37,1,21,1,-34,1,46,1,81,1,98,1,81,1,7,1
584,66,1,56,1,-10,1,-61,1,38,1,23,1,-36,1,47,1,84,1,102,1,81,1,-4,1
585,70,1,59,1,-11,1,-64,1,41,1,24,1,-38,1,55,1,87,1,106,1,89,1,3,1
586,74,1,64,1,-10,1,-69,1,42,1,27,1,-39,1,62,1,91,1,110,1,110,1,44,1
587,77,1,66,1,-11,1,-71,1,44,1,28,1,-40,1,58,1,95,1,115,1,113,1,49,1
588,79,1,67,1,-12,1,-73,1,46,1,28,1,-41,1,57,1,98,1,118,1,108,1,35,1
589,81,1,69,1,-12,1,-75,1,47,1,29,1,-42,1,57,1,100,1,122,1,107,1,29,1
590,83,1,72,1,-11,1,-77,1,47,1,31,1,-44,1,64,1,101,1,124,1,115,1,39,1
591,85,1,74,1,-11,1,-79,1,48,1,32,1,-46,1,69,1,102,1,128,1,132,1,75,1
592,87,1,75,1,-12,1,-81,1,50,1,32,1,-45,1,64,1,105,1,131,1,130,1,71,1
593,87,1,78,1,-9,1,-82,1,48,1,35,1,-44,1,61,1,108,1,133,1,122,1,48,1
594,87,1,81,1,-6,1,-84,1,47,1,38,1,-44,1,61,1,110,1,135,1,120,1,35,1
595,86,1,84,1,-2,1,-85,1,44,1,41,1,-44,1,69,1,111,1,136,1,127,1,42,1
596,86,1,86,1,0,1,-86,1,43,1,43,1,-43,1,75,1,112,1,137,1,145,1,80,1
597,84,1,87,1,3,1,-85,1,41,1,45,1,-41,1,71,1,113,1,137,1,144,1,81,1
598,81,1,86,1,5,1,-83,1,38,1,46,1,-39,1,68,1,112,1,136,1,135,1,62,1
599,79,1,86,1,7,1,-82,1,36,1,47,1,-38,1,68,1,111,1,134,1,128,1,50,1
600,76,1,86,1,10,1,-81,1,33,1,48,1,-38,1,74,1,109,1,132,1,131,1,54,1
601,74,1,84,1,10,1,-79,1,32,1,47,1,-36,1,77,1,108,1,128,1,141,1,83,1
602,69,1,81,1,12,1,-75,1,29,1,47,1,-31,1,71,1,109,1,126,1,133,1,76,1
603,65,1,78,1,13,1,-71,1,26,1,46,1,-27,1,65,1,108,1,123,1,118,1,46,1
604,61,1,76,1,15,1,-68,1,23,1,46,1,-24,1,64,1,106,1,119,1,107,1,27,1
605,56,1,75,1,19,1,-65,1,19,1,47,1,-21,1,70,1,103,1,115,1,106,1,25,1
606,51,1,73,1,22,1,-62,1,15,1,48,1,-18,1,74,1,100,1,110,1,116,1,55,1
607,46,1,68,1,22,1,-57,1,12,1,45,1,-14,1,68,1,97,1,106,1,108,1,49,1
608,40,1,63,1,23,1,-51,1,9,1,43,1,-10,1,63,1,93,1,100,1,92,1,22,1
609,35,1,59,1,24,1,-47,1,6,1,42,1,-8,1,61,1,88,1,93,1,81,1,5,1
610,31,1,56,1,25,1,-43,1,3,1,41,1,-5,1,65,1,82,1,86,1,79,1,5,1
611,27,1,52,1,25,1,-39,1,1,1,39,1,-3,1,66,1,77,1,79,1,85,1,30,1
612,22,1,46,1,24,1,-34,1,-1,1,35,1,0,1,59,1,72,1,73,1,75,1,19,1
613,17,1,40,1,23,1,-28,1,-3,1,32,1,3,1,52,1,67,1,66,1,58,1,-14,1
614,12,1,35,1,23,1,-23,1,-5,1,29,1,5,1,48,1,61,1,60,1,45,1,-36,1
615,7,1,30,1,23,1,-18,1,-8,1,27,1,7,1,50,1,56,1,54,1,43,1,-38,1
616,3,1,26,1,23,1,-14,1,-10,1,25,1,7,1,52,1,51,1,48,1,53,1,-8,1
617,0,1,21,1,21,1,-10,1,-10,1,21,1,9,1,44,1,48,1,43,1,46,1,-12,1
618,-1,1,17,1,18,1,-8,1,-9,1,17,1,11,1,36,1,43,1,38,1,31,1,-37,1
619,-3,1,14,1,17,1,-5,1,-10,1,15,1,11,1,32,1,38,1,31,1,20,1,-55,1
620,-4,1,12,1,16,1,-4,1,-10,1,14,1,11,1,34,1,32,1,25,1,20,1,-54,1
621,-6,1,9,1,15,1,-1,1,-10,1,12,1,11,1,34,1,26,1,20,1,28,1,-28,1
622,-9,1,5,1,14,1,2,1,-11,1,9,1,11,1,25,1,22,1,16,1,19,1,-38,1
623,-11,1,1,1,12,1,5,1,-11,1,6,1,12,1,17,1,18,1,11,1,3,1,-69,1
624,-14,1,0,1,14,1,7,1,-14,1,7,1,12,1,13,1,13,1,7,1,-5,1,-87,1
625,-16,1,-3,1,13,1,9,1,-15,1,5,1,10,1,15,1,9,1,4,1,-3,1,-84,1
626,-17,1,-4,1,13,1,10,1,-15,1,4,1,10,1,18,1,5,1,1,1,10,1,-51,1
627,-19,1,-7,1,12,1,13,1,-16,1,2,1,11,1,10,1,3,1,-1,1,5,1,-53,1
628,-21,1,-9,1,12,1,15,1,-17,1,1,1,12,1,4,1,1,1,-4,1,-6,1,-76,1
629,-22,1,-11,1,11,1,16,1,-17,1,0,1,11,1,2,1,-1,1,-7,1,-13,1,-89,1
630,-21,1,-12,1,9,1,16,1,-15,1,-2,1,10,1,8,1,-3,1,-10,1,-11,1,-85,1
631,-22,1,-12,1,10,1,17,1,-16,1,-1,1,9,1,10,1,-5,1,-12,1,1,1,-55,1
632,-23,1,-15,1,8,1,19,1,-16,1,-4,1,10,1,3,1,-7,1,-13,1,-6,1,-62,1
633,-24,1,-17,1,7,1,20,1,-16,1,-5,1,11,1,-4,1,-8,1,-14,1,-20,1,-90,1
634,-25,1,-17,1,8,1,21,1,-17,1,-5,1,11,1,-6,1,-9,1,-16,1,-27,1,-106,1
635,-26,1,-18,1,8,1,22,1,-17,1,-5,1,9,1,-1,1,-11,1,-18,1,-24,1,-105,1
636,-26,1,-17,1,9,1,21,1,-18,1,-4,1,7,1,3,1,-13,1,-19,1,-9,1,-72,1
637,-27,1,-17,1,10,1,22,1,-19,1,-4,1,7,1,-1,1,-13,1,-19,1,-10,1,-73,1
638,-26,1,-17,1,9,1,21,1,-18,1,-4,1,8,1,-7,1,-15,1,-20,1,-21,1,-95,1
639,-25,1,-17,1,8,1,21,1,-17,1,-5,1,8,1,-9,1,-16,1,-22,1,-26,1,-107,1
640,-23,1,-17,1,6,1,20,1,-15,1,-6,1,7,1,-5,1,-17,1,-23,1,-22,1,-102,1
641,-23,1,-18,1,5,1,20,1,-14,1,-7,1,7,1,-2,1,-19,1,-24,1,-9,1,-71,1
642,-24,1,-21,1,3,1,22,1,-14,1,-9,1,8,1,-9,1,-18,1,-24,1,-16,1,-77,1
643,-26,1,-22,1,4,1,24,1,-15,1,-9,1,9,1,-14,1,-19,1,-24,1,-29,1,-105,1
644,-26,1,-23,1,3,1,24,1,-15,1,-10,1,9,1,-15,1,-19,1,-25,1,-36,1,-122,1
645,-27,1,-24,1,3,1,25,1,-15,1,-11,1,7,1,-8,1,-20,1,-26,1,-32,1,-118,1
646,-27,1,-24,1,3,1,25,1,-15,1,-11,1,6,1,-3,1,-20,1,-25,1,-17,1,-85,1
647,-27,1,-24,1,3,1,25,1,-15,1,-11,1,7,1,-7,1,-18,1,-24,1,-18,1,-86,1
648,-27,1,-24,1,3,1,25,1,-15,1,-11,1,8,1,-11,1,-19,1,-23,1,-27,1,-107,1
649,-27,1,-24,1,3,1,25,1,-15,1,-11,1,8,1,-12,1,-20,1,-24,1,-31,1,-118,1
650,-26,1,-24,1,2,1,25,1,-14,1,-11,1,7,1,-7,1,-20,1,-25,1,-28,1,-112,1
651,-26,1,-24,1,2,1,25,1,-14,1,-11,1,6,1,-6,1,-22,1,-26,1,-16,1,-82,1
652,-28,1,-25,1,3,1,26,1,-16,1,-11,1,7,1,-14,1,-21,1,-26,1,-21,1,-87,1
653,-29,1,-26,1,3,1,27,1,-16,1,-12,1,8,1,-18,1,-20,1,-26,1,-33,1,-113,1
654,-30,1,-26,1,4,1,28,1,-17,1,-11,1,8,1,-19,1,-21,1,-27,1,-39,1,-128,1
655,-29,1,-24,1,5,1,26,1,-17,1,-10,1,7,1,-12,1,-21,1,-28,1,-34,1,-125,1
656,-29,1,-23,1,6,1,26,1,-18,1,-9,1,6,1,-6,1,-22,1,-28,1,-16,1,-90,1
657,-29,1,-24,1,5,1,26,1,-17,1,-10,1,7,1,-9,1,-21,1,-27,1,-15,1,-87,1
658,-30,1,-25,1,5,1,27,1,-18,1,-10,1,8,1,-13,1,-21,1,-27,1,-24,1,-106,1
659,-28,1,-25,1,3,1,26,1,-16,1,-11,1,8,1,-14,1,-22,1,-28,1,-28,1,-116,1
660,-26,1,-24,1,2,1,25,1,-14,1,-11,1,7,1,-7,1,-22,1,-28,1,-22,1,-109,1
661,-26,1,-24,1,2,1,25,1,-14,1,-11,1,7,1,-4,1,-22,1,-28,1,-9,1,-75,1
662,-27,1,-25,1,2,1,26,1,-15,1,-12,1,8,1,-11,1,-21,1,-28,1,-14,1,-79,1
663,-28,1,-26,1,2,1,27,1,-15,1,-12,1,9,1,-16,1,-20,1,-28,1,-27,1,-105,1
664,-28,1,-26,1,2,1,27,1,-15,1,-12,1,8,1,-18,1,-21,1,-29,1,-33,1,-119,1
665,-29,1,-25,1,4,1,27,1,-17,1,-11,1,7,1,-11,1,-21,1,-29,1,-29,1,-115,1
666,-29,1,-24,1,5,1,26,1,-17,1,-10,1,6,1,-5,1,-21,1,-29,1,-13,1,-81,1
667,-29,1,-24,1,5,1,26,1,-17,1,-10,1,7,1,-9,1,-21,1,-28,1,-15,1,-81,1
668,-29,1,-24,1,5,1,26,1,-17,1,-10,1,8,1,-12,1,-21,1,-29,1,-23,1,-101,1
669,-30,1,-24,1,6,1,27,1,-18,1,-9,1,8,1,-11,1,-22,1,-29,1,-26,1,-109,1
670,-29,1,-25,1,4,1,27,1,-17,1,-11,1,7,1,-6,1,-23,1,-29,1,-20,1,-100,1
671,-29,1,-25,1,4,1,27,1,-17,1,-11,1,6,1,-3,1,-24,1,-30,1,-7,1,-67,1
672,-30,1,-26,1,4,1,28,1,-17,1,-11,1,7,1,-9,1,-24,1,-29,1,-12,1,-70,1
673,-30,1,-27,1,3,1,28,1,-17,1,-12,1,8,1,-15,1,-24,1,-29,1,-25,1,-93,1
674,-30,1,-28,1,2,1,29,1,-16,1,-13,1,8,1,-16,1,-24,1,-29,1,-33,1,-106,1
675,-30,1,-28,1,2,1,29,1,-16,1,-13,1,8,1,-10,1,-24,1,-29,1,-29,1,-101,1
676,-29,1,-29,1,0,1,29,1,-15,1,-15,1,7,1,-5,1,-24,1,-30,1,-14,1,-65,1
677,-29,1,-29,1,0,1,29,1,-15,1,-15,1,9,1,-8,1,-22,1,-28,1,-16,1,-62,1
678,-30,1,-30,1,0,1,30,1,-15,1,-15,1,10,1,-11,1,-22,1,-28,1,-25,1,-78,1
679,-30,1,-30,1,0,1,30,1,-15,1,-15,1,10,1,-11,1,-22,1,-28,1,-30,1,-85,1
680,-30,1,-30,1,0,1,30,1,-15,1,-15,1,9,1,-6,1,-23,1,-29,1,-26,1,-75,1
681,-30,1,-29,1,1,1,29,1,-16,1,-14,1,8,1,-3,1,-24,1,-29,1,-13,1,-39,1
682,-31,1,-29,1,2,1,30,1,-17,1,-14,1,9,1,-10,1,-24,1,-28,1,-17,1,-39,1
683,-32,1,-29,1,3,1,30,1,-18,1,-13,1,10,1,-15,1,-23,1,-28,1,-30,1,-62,1
684,-32,1,-29,1,3,1,30,1,-18,1,-13,1,10,1,-16,1,-23,1,-29,1,-36,1,-76,1
685,-32,1,-29,1,3,1,30,1,-18,1,-13,1,9,1,-10,1,-24,1,-30,1,-32,1,-72,1
686,-31,1,-29,1,2,1,30,1,-17,1,-14,1,9,1,-5,1,-25,1,-31,1,-17,1,-40,1
687,-31,1,-29,1,2,1,30,1,-17,1,-14,1,9,1,-9,1,-25,1,-30,1,-19,1,-40,1
688,-31,1,-31,1,0,1,31,1,-16,1,-16,1,10,1,-12,1,-24,1,-30,1,-28,1,-59,1
689,-31,1,-31,1,0,1,31,1,-16,1,-16,1,9,1,-13,1,-24,1,-30,1,-32,1,-70,1
690,-30,1,-31,1,-1,1,30,1,-15,1,-16,1,8,1,-8,1,-25,1,-31,1,-29,1,-61,1
691,-30,1,-32,1,-2,1,31,1,-14,1,-17,1,8,1,-5,1,-25,1,-32,1,-15,1,-29,1
692,-31,1,-32,1,-1,1,31,1,-15,1,-17,1,9,1,-10,1,-25,1,-31,1,-20,1,-31,1
693,-32,1,-33,1,-1,1,32,1,-16,1,-17,1,10,1,-16,1,-25,1,-32,1,-33,1,-53,1
694,-33,1,-32,1,1,1,32,1,-17,1,-16,1,10,1,-17,1,-25,1,-32,1,-38,1,-65,1
695,-33,1,-31,1,2,1,32,1,-18,1,-15,1,9,1,-10,1,-26,1,-33,1,-34,1,-60,1
696,-32,1,-30,1,2,1,31,1,-17,1,-14,1,8,1,-5,1,-26,1,-32,1,-18,1,-26,1
697,-32,1,-30,1,2,1,31,1,-17,1,-14,1,9,1,-11,1,-26,1,-31,1,-20,1,-25,1
698,-32,1,-30,1,2,1,31,1,-17,1,-14,1,10,1,-15,1,-26,1,-31,1,-28,1,-45,1
699,-32,1,-31,1,1,1,31,1,-17,1,-15,1,10,1,-17,1,-27,1,-32,1,-32,1,-55,1
700,-31,1,-31,1,0,1,31,1,-16,1,-16,1,9,1,-11,1,-27,1,-32,1,-26,1,-45,1
701,-31,1,-30,1,1,1,30,1,-16,1,-15,1,8,1,-7,1,-28,1,-33,1,-12,1,-11,1
702,-32,1,-31,1,1,1,31,1,-17,1,-15,1,9,1,-13,1,-27,1,-32,1,-15,1,-10,1
703,-32,1,-32,1,0,1,32,1,-16,1,-16,1,10,1,-18,1,-27,1,-32,1,-25,1,-31,1
704,-32,1,-31,1,1,1,31,1,-17,1,-15,1,10,1,-19,1,-26,1,-32,1,-31,1,-42,1
705,-33,1,-30,1,3,1,31,1,-18,1,-14,1,9,1,-13,1,-27,1,-32,1,-26,1,-37,1
706,-32,1,-29,1,3,1,30,1,-18,1,-13,1,9,1,-8,1,-27,1,-33,1,-12,1,-5,1
707,-33,1,-30,1,3,1,31,1,-18,1,-14,1,10,1,-11,1,-26,1,-32,1,-14,1,-4,1
708,-33,1,-31,1,2,1,32,1,-18,1,-15,1,11,1,-15,1,-26,1,-33,1,-23,1,-23,1
709,-32,1,-31,1,1,1,31,1,-17,1,-15,1,11,1,-16,1,-26,1,-33,1,-28,1,-32,1
710,-32,1,-31,1,1,1,31,1,-17,1,-15,1,9,1,-10,1,-26,1,-34,1,-23,1,-21,1
711,-32,1,-31,1,1,1,31,1,-17,1,-15,1,8,1,-7,1,-26,1,-34,1,-8,1,14,1
712,-33,1,-33,1,0,1,33,1,-17,1,-17,1,9,1,-13,1,-26,1,-34,1,-11,1,15,1
713,-34,1,-34,1,0,1,34,1,-17,1,-17,1,9,1,-17,1,-26,1,-34,1,-21,1,-5,1
714,-34,1,-34,1,0,1,34,1,-17,1,-17,1,9,1,-18,1,-27,1,-33,1,-25,1,-15,1
715,-33,1,-32,1,1,1,32,1,-17,1,-16,1,8,1,-12,1,-27,1,-33,1,-19,1,-9,1
716,-32,1,-30,1,2,1,31,1,-17,1,-14,1,8,1,-7,1,-27,1,-33,1,-4,1,22,1
717,-31,1,-29,1,2,1,30,1,-17,1,-14,1,10,1,-12,1,-26,1,-31,1,-6,1,22,1
718,-31,1,-29,1,2,1,30,1,-17,1,-14,1,11,1,-16,1,-25,1,-31,1,-15,1,2,1
719,-29,1,-28,1,1,1,28,1,-15,1,-14,1,11,1,-15,1,-25,1,-32,1,-19,1,-4,1
720,-28,1,-27,1,1,1,27,1,-15,1,-13,1,10,1,-8,1,-25,1,-31,1,-13,1,6,1
721,-28,1,-26,1,2,1,27,1,-15,1,-12,1,10,1,-4,1,-25,1,-31,1,2,1,41,1
722,-29,1,-27,1,2,1,28,1,-16,1,-13,1,11,1,-9,1,-24,1,-29,1,1,1,44,1
723,-28,1,-26,1,2,1,27,1,-15,1,-12,1,11,1,-12,1,-23,1,-29,1,-7,1,27,1
724,-27,1,-26,1,1,1,26,1,-14,1,-13,1,11,1,-13,1,-22,1,-28,1,-10,1,18,1
725,-27,1,-25,1,2,1,26,1,-15,1,-12,1,10,1,-7,1,-22,1,-28,1,-6,1,24,1
726,-26,1,-22,1,4,1,24,1,-15,1,-9,1,10,1,-3,1,-23,1,-29,1,7,1,53,1
727,-26,1,-22,1,4,1,24,1,-15,1,-9,1,11,1,-8,1,-22,1,-28,1,3,1,51,1
728,-27,1,-22,1,5,1,24,1,-16,1,-9,1,13,1,-11,1,-21,1,-27,1,-6,1,30,1
729,-26,1,-21,1,5,1,23,1,-16,1,-8,1,14,1,-11,1,-20,1,-27,1,-9,1,21,1
730,-25,1,-21,1,4,1,23,1,-15,1,-9,1,12,1,-4,1,-20,1,-27,1,-4,1,30,1
731,-25,1,-21,1,4,1,23,1,-15,1,-9,1,12,1,-1,1,-21,1,-28,1,8,1,64,1
732,-25,1,-21,1,4,1,23,1,-15,1,-9,1,12,1,-6,1,-21,1,-28,1,5,1,66,1
733,-26,1,-21,1,5,1,23,1,-16,1,-8,1,10,1,-12,1,-22,1,-28,1,-5,1,46,1
734,-26,1,-21,1,5,1,23,1,-16,1,-8,1,8,1,-14,1,-23,1,-30,1,-10,1,36,1
735,-25,1,-21,1,4,1,23,1,-15,1,-9,1,6,1,-9,1,-24,1,-30,1,-5,1,41,1
736,-24,1,-20,1,4,1,22,1,-14,1,-8,1,6,1,-5,1,-23,1,-30,1,6,1,68,1
737,-24,1,-21,1,3,1,22,1,-14,1,-9,1,8,1,-10,1,-21,1,-28,1,1,1,61,1
738,-23,1,-22,1,1,1,22,1,-12,1,-11,1,10,1,-13,1,-21,1,-28,1,-12,1,36,1
739,-23,1,-23,1,0,1,23,1,-12,1,-12,1,10,1,-13,1,-21,1,-28,1,-17,1,24,1
740,-23,1,-23,1,0,1,23,1,-12,1,-12,1,9,1,-6,1,-21,1,-27,1,-13,1,33,1
741,-23,1,-23,1,0,1,23,1,-12,1,-12,1,8,1,-3,1,-23,1,-28,1,-1,1,66,1
742,-25,1,-25,1,0,1,25,1,-13,1,-13,1,8,1,-10,1,-24,1,-27,1,-5,1,66,1
743,-27,1,-26,1,1,1,26,1,-14,1,-13,1,8,1,-16,1,-25,1,-28,1,-15,1,49,1
744,-27,1,-27,1,0,1,27,1,-14,1,-14,1,6,1,-18,1,-27,1,-30,1,-21,1,39,1
745,-27,1,-27,1,0,1,27,1,-14,1,-14,1,4,1,-13,1,-27,1,-32,1,-18,1,42,1
746,-27,1,-27,1,0,1,27,1,-14,1,-14,1,3,1,-11,1,-29,1,-34,1,-8,1,65,1
747,-27,1,-29,1,-2,1,28,1,-13,1,-16,1,5,1,-17,1,-28,1,-34,1,-14,1,57,1
748,-28,1,-31,1,-3,1,29,1,-13,1,-17,1,7,1,-22,1,-29,1,-34,1,-26,1,31,1
749,-29,1,-31,1,-2,1,30,1,-14,1,-17,1,9,1,-23,1,-29,1,-35,1,-32,1,18,1
750,-29,1,-31,1,-2,1,30,1,-14,1,-17,1,9,1,-17,1,-29,1,-35,1,-28,1,26,1
751,-30,1,-31,1,-1,1,30,1,-15,1,-16,1,8,1,-13,1,-30,1,-36,1,-16,1,60,1
752,-31,1,-33,1,-2,1,32,1,-15,1,-18,1,9,1,-18,1,-28,1,-35,1,-19,1,62,1
753,-33,1,-34,1,-1,1,33,1,-16,1,-18,1,10,1,-23,1,-28,1,-36,1,-30,1,46,1
754,-33,1,-34,1,-1,1,33,1,-16,1,-18,1,9,1,-24,1,-29,1,-38,1,-35,1,37,1
755,-34,1,-34,1,0,1,34,1,-17,1,-17,1,9,1,-18,1,-30,1,-39,1,-31,1,42,1
756,-34,1,-35,1,-1,1,34,1,-17,1,-18,1,9,1,-14,1,-31,1,-39,1,-19,1,67,1
757,-34,1,-36,1,-2,1,35,1,-16,1,-19,1,11,1,-19,1,-30,1,-38,1,-25,1,57,1
758,-35,1,-38,1,-3,1,36,1,-16,1,-21,1,12,1,-23,1,-31,1,-38,1,-37,1,31,1
759,-35,1,-39,1,-4,1,37,1,-16,1,-22,1,12,1,-24,1,-32,1,-37,1,-42,1,19,1
760,-35,1,-38,1,-3,1,36,1,-16,1,-21,1,11,1,-18,1,-32,1,-37,1,-38,1,26,1
761,-34,1,-38,1,-4,1,36,1,-15,1,-21,1,10,1,-15,1,-33,1,-38,1,-25,1,60,1
762,-36,1,-39,1,-3,1,37,1,-17,1,-21,1,11,1,-20,1,-32,1,-38,1,-29,1,61,1
763,-37,1,-39,1,-2,1,38,1,-18,1,-21,1,13,1,-25,1,-33,1,-39,1,-40,1,44,1
764,-37,1,-39,1,-2,1,38,1,-18,1,-21,1,13,1,-27,1,-33,1,-41,1,-46,1,36,1
765,-38,1,-38,1,0,1,38,1,-19,1,-19,1,12,1,-20,1,-33,1,-41,1,-43,1,39,1
766,-36,1,-37,1,-1,1,36,1,-18,1,-19,1,10,1,-15,1,-33,1,-42,1,-31,1,65,1
767,-36,1,-37,1,-1,1,36,1,-18,1,-19,1,11,1,-19,1,-32,1,-41,1,-33,1,59,1
768,-35,1,-39,1,-4,1,37,1,-16,1,-22,1,11,1,-23,1,-32,1,-41,1,-44,1,32,1
769,-34,1,-40,1,-6,1,37,1,-14,1,-23,1,11,1,-24,1,-32,1,-40,1,-48,1,18,1
770,-33,1,-39,1,-6,1,36,1,-14,1,-23,1,10,1,-19,1,-32,1,-40,1,-42,1,25,1
771,-33,1,-39,1,-6,1,36,1,-14,1,-23,1,10,1,-15,1,-33,1,-40,1,-29,1,56,1
772,-35,1,-41,1,-6,1,38,1,-15,1,-24,1,12,1,-22,1,-33,1,-40,1,-32,1,57,1
773,-37,1,-42,1,-5,1,39,1,-16,1,-24,1,13,1,-27,1,-33,1,-40,1,-42,1,40,1
774,-38,1,-41,1,-3,1,39,1,-18,1,-22,1,14,1,-28,1,-34,1,-41,1,-45,1,32,1
775,-38,1,-39,1,-1,1,38,1,-19,1,-20,1,12,1,-22,1,-34,1,-42,1,-41,1,38,1
776,-37,1,-38,1,-1,1,37,1,-18,1,-20,1,11,1,-17,1,-35,1,-43,1,-29,1,63,1
777,-37,1,-38,1,-1,1,37,1,-18,1,-20,1,12,1,-21,1,-34,1,-41,1,-33,1,52,1
778,-38,1,-39,1,-1,1,38,1,-19,1,-20,1,12,1,-25,1,-33,1,-40,1,-43,1,26,1
779,-37,1,-40,1,-3,1,38,1,-17,1,-22,1,12,1,-25,1,-33,1,-40,1,-46,1,15,1
780,-36,1,-40,1,-4,1,38,1,-16,1,-22,1,10,1,-19,1,-33,1,-40,1,-41,1,23,1
781,-36,1,-40,1,-4,1,38,1,-16,1,-22,1,10,1,-16,1,-34,1,-40,1,-28,1,57,1
782,-36,1,-41,1,-5,1,38,1,-16,1,-23,1,12,1,-22,1,-33,1,-39,1,-31,1,61,1
783,-37,1,-41,1,-4,1,39,1,-17,1,-23,1,14,1,-27,1,-33,1,-40,1,-39,1,45,1
784,-37,1,-40,1,-3,1,38,1,-17,1,-22,1,14,1,-28,1,-34,1,-41,1,-43,1,39,1
785,-37,1,-39,1,-2,1,38,1,-18,1,-21,1,13,1,-22,1,-34,1,-41,1,-40,1,43,1
786,-35,1,-38,1,-3,1,36,1,-16,1,-21,1,12,1,-17,1,-34,1,-42,1,-30,1,64,1
787,-35,1,-38,1,-3,1,36,1,-16,1,-21,1,13,1,-22,1,-33,1,-41,1,-37,1,51,1
788,-37,1,-40,1,-3,1,38,1,-17,1,-22,1,13,1,-25,1,-32,1,-41,1,-49,1,24,1
789,-37,1,-41,1,-4,1,39,1,-17,1,-23,1,13,1,-25,1,-32,1,-42,1,-54,1,12,1
790,-37,1,-41,1,-4,1,39,1,-17,1,-23,1,11,1,-19,1,-32,1,-42,1,-50,1,22,1
791,-37,1,-41,1,-4,1,39,1,-17,1,-23,1,11,1,-16,1,-33,1,-41,1,-37,1,57,1
792,-38,1,-42,1,-4,1,40,1,-17,1,-23,1,12,1,-23,1,-32,1,-39,1,-40,1,62,1
793,-40,1,-43,1,-3,1,41,1,-19,1,-23,1,13,1,-28,1,-32,1,-38,1,-48,1,49,1
794,-39,1,-42,1,-3,1,40,1,-18,1,-23,1,14,1,-28,1,-32,1,-37,1,-51,1,43,1
795,-37,1,-40,1,-3,1,38,1,-17,1,-22,1,14,1,-20,1,-31,1,-36,1,-47,1,47,1
796,-34,1,-37,1,-3,1,35,1,-16,1,-20,1,13,1,-13,1,-29,1,-34,1,-36,1,70,1
797,-32,1,-35,1,-3,1,33,1,-15,1,-19,1,16,1,-11,1,-21,1,-29,1,-39,1,62,1
798,-29,1,-32,1,-3,1,30,1,-13,1,-18,1,21,1,-3,1,-7,1,-20,1,-46,1,38,1
799,-25,1,-28,1,-3,1,26,1,-11,1,-16,1,27,1,14,1,11,1,-5,1,-43,1,32,1
800,-21,1,-23,1,-2,1,22,1,-10,1,-13,1,34,1,42,1,33,1,12,1,-30,1,48,1
801,-16,1,-17,1,-1,1,16,1,-8,1,-9,1,42,1,69,1,57,1,33,1,-4,1,89,1
802,-9,1,-8,1,1,1,8,1,-5,1,-4,1,49,1,83,1,81,1,58,1,11,1,107,1
803,1,1,4,1,3,1,-2,1,-1,1,4,1,48,1,90,1,100,1,81,1,26,1,114,1
804,17,1,21,1,4,1,-19,1,7,1,13,1,46,1,101,1,119,1,106,1,53,1,136,1
805,35,1,38,1,3,1,-36,1,16,1,21,1,44,1,115,1,134,1,129,1,92,1,172,1
806,54,1,57,1,3,1,-55,1,26,1,30,1,37,1,124,1,143,1,148,1,144,1,233,1
807,74,1,74,1,0,1,-74,1,37,1,37,1,26,1,112,1,141,1,159,1,178,1,262,1
808,94,1,89,1,-5,1,-91,1,50,1,42,1,2,1,88,1,125,1,159,1,201,1,274,1
809,110,1,101,1,-9,1,-105,1,60,1,46,1,-31,1,53,1,93,1,147,1,221,1,293,1
810,123,1,108,1,-15,1,-115,1,69,1,47,1,-68,1,15,1,50,1,123,1,236,1,318,1
811,131,1,110,1,-21,1,-120,1,76,1,45,1,-102,1,-22,1,3,1,93,1,248,1,359,1
812,132,1,107,1,-25,1,-119,1,79,1,41,1,-124,1,-66,1,-42,1,58,1,229,1,356,1
813,126,1,100,1,-26,1,-113,1,76,1,37,1,-138,1,-107,1,-87,1,16,1,188,1,320,1
814,114,1,86,1,-28,1,-100,1,71,1,29,1,-145,1,-142,1,-132,1,-32,1,142,1,280,1
815,92,1,65,1,-27,1,-78,1,60,1,19,1,-144,1,-172,1,-179,1,-90,1,91,1,240,1
816,60,1,41,1,-19,1,-50,1,40,1,11,1,-136,1,-199,1,-221,1,-148,1,40,1,214,1
817,22,1,19,1,-3,1,-20,1,13,1,8,1,-119,1,-223,1,-248,1,-192,1,-18,1,158,1
818,-10,1,1,1,11,1,4,1,-10,1,6,1,-103,1,-233,1,-257,1,-215,1,-66,1,95,1
819,-34,1,-15,1,19,1,24,1,-27,1,2,1,-89,1,-226,1,-252,1,-220,1,-98,1,54,1
820,-49,1,-31,1,18,1,40,1,-34,1,-7,1,-78,1,-206,1,-241,1,-215,1,-112,1,38,1
821,-59,1,-43,1,16,1,51,1,-38,1,-14,1,-70,1,-186,1,-227,1,-205,1,-111,1,53,1
822,-65,1,-50,1,15,1,57,1,-40,1,-18,1,-60,1,-177,1,-211,1,-192,1,-118,1,47,1
823,-67,1,-51,1,16,1,59,1,-42,1,-18,1,-51,1,-166,1,-193,1,-176,1,-125,1,28,1
824,-66,1,-50,1,16,1,58,1,-41,1,-17,1,-42,1,-152,1,-173,1,-159,1,-122,1,20,1
825,-64,1,-48,1,16,1,56,1,-40,1,-16,1,-34,1,-133,1,-153,1,-142,1,-109,1,27,1
826,-58,1,-46,1,12,1,52,1,-35,1,-17,1,-29,1,-111,1,-133,1,-126,1,-83,1,58,1
827,-53,1,-44,1,9,1,48,1,-31,1,-18,1,-22,1,-102,1,-113,1,-109,1,-75,1,57,1
828,-49,1,-40,1,9,1,44,1,-29,1,-16,1,-18,1,-92,1,-95,1,-95,1,-74,1,38,1
829,-45,1,-36,1,9,1,40,1,-27,1,-14,1,-16,1,-79,1,-79,1,-80,1,-67,1,35,1
830,-39,1,-32,1,7,1,35,1,-23,1,-13,1,-13,1,-60,1,-65,1,-65,1,-54,1,49,1
831,-34,1,-28,1,6,1,31,1,-20,1,-11,1,-11,1,-44,1,-54,1,-53,1,-33,1,87,1
832,-30,1,-25,1,5,1,27,1,-18,1,-10,1,-8,1,-41,1,-46,1,-43,1,-30,1,93,1
833,-27,1,-22,1,5,1,24,1,-16,1,-9,1,-5,1,-40,1,-38,1,-35,1,-34,1,81,1
834,-22,1,-19,1,3,1,20,1,-13,1,-8,1,-3,1,-37,1,-32,1,-30,1,-32,1,77,1
835,-17,1,-17,1,0,1,17,1,-9,1,-9,1,-3,1,-28,1,-27,1,-25,1,-23,1,83,1
836,-13,1,-16,1,-3,1,14,1,-5,1,-10,1,-1,1,-19,1,-22,1,-23,1,-7,1,108,1
837,-12,1,-16,1,-4,1,14,1,-4,1,-10,1,1,1,-21,1,-16,1,-19,1,-7,1,100,1
838,-13,1,-17,1,-4,1,15,1,-5,1,-11,1,2,1,-22,1,-12,1,-16,1,-15,1,75,1
839,-15,1,-16,1,-1,1,15,1,-7,1,-9,1,2,1,-19,1,-9,1,-14,1,-19,1,63,1
840,-15,1,-14,1,1,1,14,1,-8,1,-7,1,2,1,-10,1,-8,1,-12,1,-14,1,71,1
841,-16,1,-14,1,2,1,15,1,-9,1,-6,1,2,1,-4,1,-7,1,-10,1,-1,1,105,1
842,-16,1,-14,1,2,1,15,1,-9,1,-6,1,5,1,-8,1,-5,1,-8,1,-3,1,108,1
843,-15,1,-14,1,1,1,14,1,-8,1,-7,1,7,1,-12,1,-4,1,-6,1,-10,1,94,1
844,-13,1,-14,1,-1,1,13,1,-6,1,-8,1,7,1,-12,1,-4,1,-6,1,-11,1,89,1
845,-12,1,-13,1,-1,1,12,1,-6,1,-7,1,7,1,-6,1,-3,1,-6,1,-5,1,96,1
846,-11,1,-13,1,-2,1,12,1,-5,1,-8,1,6,1,-1,1,-2,1,-5,1,10,1,120,1
847,-11,1,-13,1,-2,1,12,1,-5,1,-8,1,7,1,-4,1,0,1,-3,1,9,1,110,1
848,-12,1,-13,1,-1,1,12,1,-6,1,-7,1,7,1,-7,1,1,1,-2,1,0,1,84,1
849,-13,1,-14,1,-1,1,13,1,-6,1,-8,1,6,1,-7,1,2,1,-2,1,-4,1,71,1
850,-13,1,-14,1,-1,1,13,1,-6,1,-8,1,5,1,-2,1,1,1,-2,1,-2,1,73,1
851,-13,1,-14,1,-1,1,13,1,-6,1,-8,1,4,1,4,1,1,1,-2,1,9,1,102,1
852,-13,1,-15,1,-2,1,14,1,-6,1,-9,1,6,1,0,1,1,1,-1,1,3,1,101,1
853,-12,1,-15,1,-3,1,13,1,-5,1,-9,1,8,1,-5,1,1,1,-1,1,-7,1,82,1
854,-11,1,-15,1,-4,1,13,1,-4,1,-10,1,9,1,-6,1,0,1,-3,1,-9,1,76,1
855,-10,1,-14,1,-4,1,12,1,-3,1,-9,1,9,1,-1,1,0,1,-3,1,-2,1,83,1
856,-9,1,-13,1,-4,1,11,1,-3,1,-9,1,7,1,5,1,0,1,-3,1,16,1,116,1
857,-9,1,-13,1,-4,1,11,1,-3,1,-9,1,8,1,2,1,2,1,-1,1,18,1,116,1
858,-9,1,-13,1,-4,1,11,1,-3,1,-9,1,8,1,-2,1,4,1,-1,1,10,1,91,1
859,-9,1,-13,1,-4,1,11,1,-3,1,-9,1,8,1,-2,1,4,1,0,1,6,1,74,1
860,-8,1,-12,1,-4,1,10,1,-2,1,-8,1,6,1,3,1,4,1,0,1,7,1,75,1
861,-8,1,-11,1,-3,1,9,1,-3,1,-7,1,5,1,7,1,3,1,0,1,17,1,103,1
862,-9,1,-11,1,-2,1,10,1,-4,1,-7,1,6,1,1,1,3,1,0,1,12,1,103,1
863,-10,1,-11,1,-1,1,10,1,-5,1,-6,1,7,1,-3,1,3,1,0,1,0,1,83,1
864,-10,1,-12,1,-2,1,11,1,-4,1,-7,1,7,1,-4,1,3,1,0,1,-3,1,75,1
865,-10,1,-11,1,-1,1,10,1,-5,1,-6,1,6,1,2,1,4,1,0,1,3,1,83,1
866,-9,1,-10,1,-1,1,9,1,-4,1,-6,1,6,1,7,1,4,1,-1,1,19,1,114,1
867,-8,1,-11,1,-3,1,9,1,-3,1,-7,1,7,1,3,1,5,1,0,1,20,1,111,1
868,-9,1,-13,1,-4,1,11,1,-3,1,-9,1,8,1,-1,1,6,1,2,1,13,1,86,1
869,-9,1,-13,1,-4,1,11,1,-3,1,-9,1,7,1,-2,1,6,1,3,1,11,1,73,1
870,-8,1,-12,1,-4,1,10,1,-2,1,-8,1,6,1,2,1,7,1,4,1,15,1,75,1
871,-8,1,-11,1,-3,1,9,1,-3,1,-7,1,5,1,8,1,6,1,3,1,28,1,105,1
872,-8,1,-11,1,-3,1,9,1,-3,1,-7,1,6,1,2,1,6,1,4,1,24,1,106,1
873,-8,1,-11,1,-3,1,9,1,-3,1,-7,1,7,1,-2,1,7,1,4,1,14,1,88,1
874,-7,1,-11,1,-4,1,9,1,-2,1,-8,1,7,1,-3,1,7,1,4,1,12,1,82,1
875,-7,1,-10,1,-3,1,8,1,-2,1,-7,1,6,1,2,1,8,1,4,1,17,1,86,1
876,-6,1,-9,1,-3,1,7,1,-2,1,-6,1,5,1,9,1,8,1,4,1,33,1,115,1
877,-6,1,-9,1,-3,1,7,1,-2,1,-6,1,6,1,5,1,9,1,5,1,33,1,112,1
878,-6,1,-9,1,-3,1,7,1,-2,1,-6,1,6,1,0,1,9,1,6,1,25,1,87,1
879,-6,1,-10,1,-4,1,8,1,-1,1,-7,1,6,1,-1,1,8,1,6,1,22,1,74,1
880,-6,1,-9,1,-3,1,7,1,-2,1,-6,1,5,1,3,1,7,1,6,1,26,1,79,1
881,-6,1,-8,1,-2,1,7,1,-2,1,-5,1,4,1,9,1,7,1,6,1,40,1,112,1
882,-7,1,-9,1,-2,1,8,1,-3,1,-6,1,5,1,5,1,7,1,6,1,37,1,114,1
883,-6,1,-9,1,-3,1,7,1,-2,1,-6,1,5,1,0,1,8,1,7,1,27,1,97,1
884,-6,1,-8,1,-2,1,7,1,-2,1,-5,1,5,1,0,1,9,1,7,1,24,1,92,1
885,-4,1,-7,1,-3,1,5,1,-1,1,-5,1,4,1,6,1,9,1,7,1,29,1,101,1
886,-3,1,-5,1,-2,1,4,1,-1,1,-4,1,3,1,12,1,9,1,7,1,45,1,131,1
887,-3,1,-5,1,-2,1,4,1,-1,1,-4,1,4,1,8,1,10,1,8,1,44,1,128,1
888,-3,1,-5,1,-2,1,4,1,-1,1,-4,1,5,1,4,1,11,1,9,1,37,1,103,1
889,-3,1,-5,1,-2,1,4,1,-1,1,-4,1,5,1,4,1,11,1,9,1,34,1,91,1
890,-3,1,-5,1,-2,1,4,1,-1,1,-4,1,4,1,10,1,11,1,8,1,38,1,95,1
891,-3,1,-5,1,-2,1,4,1,-1,1,-4,1,3,1,14,1,11,1,8,1,50,1,126,1
892,-3,1,-6,1,-3,1,4,1,0,1,-5,1,3,1,8,1,12,1,9,1,47,1,129,1
893,-3,1,-6,1,-3,1,4,1,0,1,-5,1,4,1,4,1,13,1,10,1,39,1,113,1
894,-2,1,-5,1,-3,1,3,1,0,1,-4,1,3,1,4,1,13,1,10,1,37,1,109,1
895,-1,1,-4,1,-3,1,2,1,1,1,-4,1,3,1,9,1,14,1,11,1,45,1,121,1
896,0,1,-2,1,-2,1,1,1,1,1,-2,1,2,1,18,1,13,1,11,1,66,1,162,1
897,0,1,-2,1,-2,1,1,1,1,1,-2,1,3,1,14,1,14,1,12,1,69,1,167,1
898,-1,1,-2,1,-1,1,1,1,0,1,-2,1,3,1,9,1,14,1,13,1,62,1,145,1
899,0,1,-2,1,-2,1,1,1,1,1,-2,1,2,1,9,1,14,1,14,1,58,1,132,1
900,0,1,-1,1,-1,1,0,1,0,1,-1,1,1,1,13,1,16,1,15,1,60,1,131,1
901,0,1,-1,1,-1,1,0,1,0,1,-1,1,0,1,18,1,16,1,14,1,71,1,157,1
902,-1,1,-2,1,-1,1,1,1,0,1,-2,1,1,1,11,1,16,1,15,1,65,1,155,1
903,0,1,-3,1,-3,1,1,1,1,1,-3,1,1,1,6,1,16,1,15,1,52,1,132,1
904,1,1,-2,1,-3,1,0,1,2,1,-2,1,1,1,6,1,16,1,15,1,47,1,124,1
905,3,1,-1,1,-4,1,-1,1,3,1,-2,1,0,1,12,1,17,1,15,1,52,1,130,1
906,4,1,0,1,-4,1,-2,1,4,1,-2,1,-1,1,20,1,16,1,15,1,71,1,163,1
907,4,1,0,1,-4,1,-2,1,4,1,-2,1,0,1,16,1,17,1,16,1,74,1,165,1
908,3,1,0,1,-3,1,-1,1,3,1,-1,1,2,1,12,1,19,1,18,1,66,1,139,1
909,2,1,0,1,-2,1,-1,1,2,1,-1,1,1,1,11,1,20,1,19,1,61,1,120,1
910,4,1,1,1,-3,1,-2,1,4,1,-1,1,0,1,15,1,21,1,19,1,62,1,117,1
911,5,1,2,1,-3,1,-3,1,4,1,0,1,0,1,19,1,21,1,19,1,71,1,141,1
912,5,1,1,1,-4,1,-3,1,5,1,-1,1,0,1,13,1,23,1,21,1,65,1,136,1
913,5,1,1,1,-4,1,-3,1,5,1,-1,1,1,1,9,1,23,1,22,1,51,1,110,1
914,6,1,2,1,-4,1,-4,1,5,1,-1,1,1,1,8,1,24,1,22,1,45,1,99,1
915,7,1,3,1,-4,1,-5,1,6,1,0,1,0,1,14,1,25,1,23,1,49,1,103,1
916,9,1,5,1,-4,1,-7,1,7,1,1,1,-1,1,23,1,24,1,23,1,68,1,137,1
917,10,1,7,1,-3,1,-8,1,7,1,2,1,-1,1,20,1,25,1,26,1,70,1,140,1
918,9,1,8,1,-1,1,-8,1,5,1,4,1,-1,1,15,1,26,1,28,1,64,1,117,1
919,9,1,8,1,-1,1,-8,1,5,1,4,1,-1,1,15,1,27,1,29,1,62,1,103,1
920,10,1,8,1,-2,1,-9,1,6,1,3,1,-3,1,17,1,27,1,30,1,65,1,103,1
921,11,1,9,1,-2,1,-10,1,7,1,4,1,-5,1,22,1,27,1,30,1,78,1,131,1
922,11,1,9,1,-2,1,-10,1,7,1,4,1,-3,1,16,1,29,1,31,1,74,1,132,1
923,11,1,9,1,-2,1,-10,1,7,1,4,1,-3,1,13,1,30,1,33,1,62,1,110,1
924,13,1,10,1,-3,1,-11,1,8,1,4,1,-4,1,13,1,31,1,34,1,57,1,102,1
925,14,1,10,1,-4,1,-12,1,9,1,3,1,-4,1,21,1,32,1,35,1,63,1,110,1
926,16,1,12,1,-4,1,-14,1,10,1,4,1,-7,1,30,1,32,1,35,1,83,1,149,1
927,17,1,12,1,-5,1,-14,1,11,1,4,1,-7,1,28,1,33,1,36,1,87,1,155,1
928,17,1,12,1,-5,1,-14,1,11,1,4,1,-7,1,24,1,34,1,37,1,81,1,132,1
929,17,1,12,1,-5,1,-14,1,11,1,4,1,-8,1,23,1,35,1,38,1,79,1,118,1
930,19,1,14,1,-5,1,-16,1,12,1,5,1,-9,1,27,1,36,1,40,1,82,1,118,1
931,21,1,16,1,-5,1,-18,1,13,1,6,1,-10,1,31,1,37,1,42,1,95,1,146,1
932,22,1,16,1,-6,1,-19,1,14,1,5,1,-8,1,25,1,39,1,44,1,91,1,145,1
933,23,1,16,1,-7,1,-19,1,15,1,5,1,-8,1,20,1,40,1,46,1,79,1,122,1
934,24,1,17,1,-7,1,-20,1,16,1,5,1,-8,1,20,1,41,1,47,1,73,1,111,1
935,26,1,18,1,-8,1,-22,1,17,1,5,1,-9,1,26,1,43,1,48,1,78,1,118,1
936,28,1,21,1,-7,1,-24,1,18,1,7,1,-12,1,37,1,44,1,49,1,98,1,157,1
937,30,1,22,1,-8,1,-26,1,19,1,7,1,-13,1,34,1,45,1,51,1,101,1,165,1
938,30,1,23,1,-7,1,-26,1,19,1,8,1,-14,1,30,1,47,1,53,1,95,1,145,1
939,32,1,26,1,-6,1,-29,1,19,1,10,1,-15,1,30,1,48,1,55,1,95,1,134,1
940,34,1,28,1,-6,1,-31,1,20,1,11,1,-16,1,34,1,50,1,57,1,99,1,135,1
941,36,1,30,1,-6,1,-33,1,21,1,12,1,-18,1,40,1,50,1,59,1,113,1,164,1
942,37,1,30,1,-7,1,-33,1,22,1,12,1,-17,1,35,1,52,1,62,1,111,1,164,1
943,39,1,30,1,-9,1,-34,1,24,1,11,1,-17,1,31,1,54,1,64,1,102,1,144,1
944,41,1,31,1,-10,1,-36,1,26,1,11,1,-18,1,31,1,56,1,67,1,100,1,138,1
945,43,1,33,1,-10,1,-38,1,27,1,12,1,-20,1,37,1,58,1,71,1,107,1,148,1
946,46,1,36,1,-10,1,-41,1,28,1,13,1,-23,1,47,1,60,1,74,1,129,1,189,1
947,48,1,38,1,-10,1,-43,1,29,1,14,1,-24,1,45,1,64,1,78,1,136,1,199,1
948,50,1,40,1,-10,1,-45,1,30,1,15,1,-25,1,44,1,67,1,82,1,132,1,179,1
949,53,1,43,1,-10,1,-48,1,32,1,17,1,-27,1,45,1,70,1,85,1,132,1,166,1
950,55,1,46,1,-9,1,-50,1,32,1,19,1,-30,1,49,1,72,1,87,1,136,1,166,1
951,58,1,48,1,-10,1,-53,1,34,1,19,1,-32,1,54,1,73,1,89,1,151,1,197,1
952,61,1,50,1,-11,1,-55,1,36,1,20,1,-31,1,48,1,77,1,93,1,149,1,198,1
953,64,1,53,1,-11,1,-58,1,38,1,21,1,-31,1,43,1,79,1,96,1,138,1,178,1
954,67,1,57,1,-10,1,-62,1,39,1,24,1,-32,1,44,1,82,1,100,1,136,1,170,1
955,71,1,61,1,-10,1,-66,1,41,1,26,1,-35,1,52,1,84,1,103,1,144,1,180,1
956,74,1,64,1,-10,1,-69,1,42,1,27,1,-38,1,61,1,86,1,105,1,166,1,220,1
957,76,1,66,1,-10,1,-71,1,43,1,28,1,-39,1,60,1,90,1,109,1,173,1,227,1
958,78,1,68,1,-10,1,-73,1,44,1,29,1,-41,1,57,1,93,1,113,1,169,1,208,1
959,80,1,70,1,-10,1,-75,1,45,1,30,1,-43,1,58,1,96,1,117,1,171,1,195,1
960,83,1,73,1,-10,1,-78,1,47,1,32,1,-44,1,61,1,98,1,120,1,176,1,195,1
961,84,1,74,1,-10,1,-79,1,47,1,32,1,-46,1,67,1,100,1,123,1,191,1,223,1
962,85,1,75,1,-10,1,-80,1,48,1,33,1,-44,1,61,1,103,1,128,1,188,1,224,1
963,87,1,76,1,-11,1,-81,1,49,1,33,1,-43,1,56,1,105,1,131,1,177,1,204,1
964,89,1,79,1,-10,1,-84,1,50,1,35,1,-43,1,57,1,107,1,133,1,174,1,197,1
965,90,1,82,1,-8,1,-86,1,49,1,37,1,-43,1,63,1,109,1,135,1,180,1,204,1
966,89,1,85,1,-4,1,-87,1,47,1,41,1,-44,1,73,1,110,1,135,1,199,1,242,1
967,88,1,87,1,-1,1,-87,1,45,1,43,1,-42,1,72,1,112,1,137,1,203,1,248,1
968,86,1,87,1,1,1,-86,1,43,1,44,1,-42,1,67,1,113,1,136,1,194,1,222,1
969,85,1,87,1,2,1,-86,1,42,1,45,1,-41,1,66,1,113,1,135,1,188,1,204,1
970,84,1,88,1,4,1,-86,1,40,1,46,1,-40,1,68,1,112,1,133,1,188,1,199,1
971,82,1,86,1,4,1,-84,1,39,1,45,1,-39,1,73,1,111,1,132,1,198,1,223,1
972,78,1,84,1,6,1,-81,1,36,1,45,1,-34,1,66,1,111,1,131,1,190,1,220,1
973,73,1,83,1,10,1,-78,1,32,1,47,1,-30,1,59,1,110,1,129,1,172,1,192,1
974,67,1,81,1,14,1,-74,1,27,1,48,1,-27,1,59,1,108,1,125,1,161,1,177,1
975,63,1,78,1,15,1,-70,1,24,1,47,1,-24,1,63,1,105,1,119,1,159,1,178,1
976,58,1,77,1,19,1,-67,1,20,1,48,1,-22,1,72,1,102,1,115,1,171,1,209,1
977,53,1,73,1,20,1,-63,1,17,1,47,1,-17,1,68,1,100,1,111,1,167,1,207,1
978,47,1,68,1,21,1,-57,1,13,1,45,1,-14,1,63,1,97,1,105,1,152,1,175,1
979,42,1,64,1,22,1,-53,1,10,1,43,1,-11,1,60,1,93,1,99,1,141,1,152,1
980,40,1,61,1,21,1,-50,1,10,1,41,1,-8,1,61,1,88,1,94,1,137,1,142,1
981,37,1,58,1,21,1,-47,1,8,1,40,1,-6,1,63,1,82,1,87,1,143,1,161,1
982,31,1,52,1,21,1,-41,1,5,1,37,1,-1,1,54,1,78,1,81,1,131,1,152,1
983,26,1,47,1,21,1,-36,1,3,1,34,1,3,1,46,1,72,1,75,1,109,1,121,1
984,20,1,43,1,23,1,-31,1,-1,1,33,1,5,1,42,1,67,1,67,1,94,1,102,1
985,15,1,38,1,23,1,-26,1,-4,1,31,1,7,1,44,1,62,1,60,1,87,1,99,1
986,11,1,33,1,22,1,-22,1,-5,1,28,1,7,1,50,1,57,1,54,1,97,1,129,1
987,7,1,29,1,22,1,-18,1,-7,1,26,1,9,1,43,1,53,1,50,1,93,1,129,1
988,4,1,25,1,21,1,-14,1,-8,1,23,1,9,1,34,1,48,1,44,1,78,1,99,1
989,1,1,21,1,20,1,-11,1,-9,1,21,1,9,1,29,1,42,1,38,1,69,1,77,1
990,0,1,18,1,18,1,-9,1,-9,1,18,1,9,1,27,1,36,1,33,1,65,1,69,1
991,0,1,16,1,16,1,-8,1,-8,1,16,1,9,1,30,1,30,1,27,1,74,1,93,1
992,-3,1,12,1,15,1,-4,1,-9,1,13,1,12,1,20,1,26,1,23,1,66,1,88,1
993,-5,1,8,1,13,1,-1,1,-9,1,10,1,14,1,12,1,22,1,18,1,48,1,59,1
994,-8,1,5,1,13,1,1,1,-10,1,9,1,15,1,8,1,17,1,12,1,36,1,43,1
995,-10,1,1,1,11,1,4,1,-10,1,6,1,14,1,10,1,13,1,8,1,32,1,42,1
996,-12,1,0,1,12,1,6,1,-12,1,6,1,13,1,15,1,9,1,4,1,43,1,72,1
997,-15,1,-2,1,13,1,8,1,-14,1,5,1,13,1,8,1,7,1,2,1,41,1,73,1
998,-17,1,-4,1,13,1,10,1,-15,1,4,1,12,1,1,1,5,1,0,1,30,1,45,1
999,-17,1,-5,1,12,1,11,1,-15,1,3,1,12,1,-2,1,2,1,-2,1,25,1,28,1
1000,-18,1,-6,1,12,1,12,1,-15,1,3,1,11,1,0,1,0,1,-4,1,25,1,24,1
1001,-18,1,-8,1,10,1,13,1,-14,1,1,1,10,1,3,1,-3,1,-7,1,36,1,49,1
1002,-18,1,-11,1,7,1,14,1,-13,1,-2,1,12,1,-4,1,-4,1,-8,1,30,1,46,1
1003,-20,1,-14,1,6,1,17,1,-13,1,-4,1,13,1,-10,1,-5,1,-9,1,15,1,21,1
1004,-20,1,-15,1,5,1,17,1,-13,1,-5,1,13,1,-11,1,-6,1,-11,1,7,1,8,1
1005,-21,1,-16,1,5,1,18,1,-13,1,-6,1,12,1,-7,1,-7,1,-13,1,8,1,9,1
1006,-20,1,-15,1,5,1,17,1,-13,1,-5,1,10,1,1,1,-9,1,-15,1,23,1,43,1
1007,-20,1,-16,1,4,1,18,1,-12,1,-6,1,11,1,-3,1,-9,1,-16,1,23,1,46,1
1008,-21,1,-17,1,4,1,19,1,-13,1,-7,1,10,1,-10,1,-11,1,-18,1,13,1,21,1
1009,-20,1,-17,1,3,1,18,1,-12,1,-7,1,10,1,-12,1,-13,1,-19,1,9,1,6,1
1010,-20,1,-17,1,3,1,18,1,-12,1,-7,1,9,1,-11,1,-14,1,-19,1,11,1,5,1
1011,-19,1,-18,1,1,1,18,1,-10,1,-9,1,8,1,-6,1,-16,1,-21,1,24,1,34,1
1012,-20,1,-20,1,0,1,20,1,-10,1,-10,1,9,1,-13,1,-17,1,-22,1,19,1,35,1
1013,-21,1,-22,1,-1,1,21,1,-10,1,-12,1,11,1,-18,1,-17,1,-22,1,5,1,12,1
1014,-22,1,-23,1,-1,1,22,1,-11,1,-12,1,12,1,-18,1,-16,1,-22,1,-2,1,1,1
1015,-23,1,-22,1,1,1,22,1,-12,1,-11,1,11,1,-13,1,-16,1,-22,1,1,1,3,1
1016,-22,1,-21,1,1,1,21,1,-12,1,-10,1,10,1,-5,1,-17,1,-23,1,17,1,35,1
1017,-22,1,-21,1,1,1,21,1,-12,1,-10,1,11,1,-8,1,-16,1,-22,1,18,1,37,1
1018,-22,1,-22,1,0,1,22,1,-11,1,-11,1,10,1,-14,1,-17,1,-23,1,8,1,12,1
1019,-22,1,-22,1,0,1,22,1,-11,1,-11,1,10,1,-17,1,-18,1,-23,1,3,1,-3,1
1020,-22,1,-23,1,-1,1,22,1,-11,1,-12,1,9,1,-15,1,-18,1,-23,1,5,1,-4,1
1021,-22,1,-23,1,-1,1,22,1,-11,1,-12,1,8,1,-10,1,-19,1,-24,1,19,1,25,1
1022,-23,1,-24,1,-1,1,23,1,-11,1,-13,1,11,1,-15,1,-18,1,-23,1,15,1,26,1
1023,-24,1,-24,1,0,1,24,1,-12,1,-12,1,12,1,-20,1,-18,1,-23,1,1,1,2,1
1024,-24,1,-23,1,1,1,23,1,-13,1,-11,1,12,1,-19,1,-18,1,-23,1,-6,1,-10,1
1025,-24,1,-24,1,0,1,24,1,-12,1,-12,1,12,1,-14,1,-18,1,-23,1,-3,1,-8,1
1026,-23,1,-22,1,1,1,22,1,-12,1,-11,1,11,1,-5,1,-19,1,-24,1,13,1,23,1
1027,-23,1,-22,1,1,1,22,1,-12,1,-11,1,12,1,-9,1,-18,1,-25,1,14,1,26,1
1028,-24,1,-23,1,1,1,23,1,-13,1,-11,1,12,1,-15,1,-19,1,-25,1,4,1,1,1
1029,-25,1,-23,1,2,1,24,1,-14,1,-11,1,11,1,-18,1,-20,1,-26,1,0,1,-14,1
1030,-24,1,-23,1,1,1,23,1,-13,1,-11,1,10,1,-16,1,-21,1,-27,1,1,1,-15,1
1031,-24,1,-23,1,1,1,23,1,-13,1,-11,1,9,1,-11,1,-21,1,-27,1,14,1,14,1
1032,-25,1,-23,1,2,1,24,1,-14,1,-11,1,10,1,-17,1,-20,1,-25,1,10,1,16,1
1033,-25,1,-23,1,2,1,24,1,-14,1,-11,1,11,1,-22,1,-19,1,-24,1,-3,1,-7,1
1034,-26,1,-23,1,3,1,24,1,-15,1,-10,1,11,1,-21,1,-19,1,-24,1,-11,1,-19,1
1035,-25,1,-23,1,2,1,24,1,-14,1,-11,1,11,1,-16,1,-19,1,-25,1,-9,1,-17,1
1036,-24,1,-22,1,2,1,23,1,-13,1,-10,1,10,1,-6,1,-20,1,-26,1,7,1,16,1
1037,-24,1,-23,1,1,1,23,1,-13,1,-11,1,11,1,-9,1,-20,1,-26,1,9,1,21,1
1038,-24,1,-24,1,0,1,24,1,-12,1,-12,1,12,1,-15,1,-20,1,-26,1,0,1,-3,1
1039,-24,1,-24,1,0,1,24,1,-12,1,-12,1,12,1,-17,1,-20,1,-26,1,-6,1,-19,1
1040,-23,1,-24,1,-1,1,23,1,-11,1,-13,1,11,1,-17,1,-20,1,-26,1,-5,1,-23,1
1041,-24,1,-23,1,1,1,23,1,-13,1,-11,1,10,1,-13,1,-21,1,-26,1,6,1,4,1
1042,-24,1,-24,1,0,1,24,1,-12,1,-12,1,11,1,-18,1,-20,1,-25,1,1,1,4,1
1043,-25,1,-25,1,0,1,25,1,-13,1,-13,1,13,1,-22,1,-19,1,-25,1,-12,1,-21,1
1044,-26,1,-25,1,1,1,25,1,-14,1,-12,1,13,1,-20,1,-19,1,-26,1,-19,1,-35,1
1045,-26,1,-25,1,1,1,25,1,-14,1,-12,1,12,1,-14,1,-19,1,-27,1,-16,1,-34,1
1046,-26,1,-25,1,1,1,25,1,-14,1,-12,1,11,1,-4,1,-21,1,-27,1,0,1,-1,1
1047,-26,1,-25,1,1,1,25,1,-14,1,-12,1,12,1,-9,1,-21,1,-26,1,2,1,4,1
1048,-27,1,-27,1,0,1,27,1,-14,1,-14,1,12,1,-15,1,-21,1,-26,1,-8,1,-20,1
1049,-26,1,-27,1,-1,1,26,1,-13,1,-14,1,11,1,-17,1,-21,1,-26,1,-13,1,-35,1
1050,-26,1,-27,1,-1,1,26,1,-13,1,-14,1,11,1,-17,1,-21,1,-26,1,-14,1,-38,1
1051,-27,1,-26,1,1,1,26,1,-14,1,-13,1,10,1,-12,1,-22,1,-27,1,-3,1,-10,1
1052,-27,1,-27,1,0,1,27,1,-14,1,-14,1,11,1,-18,1,-20,1,-26,1,-7,1,-10,1
1053,-28,1,-27,1,1,1,27,1,-15,1,-13,1,12,1,-21,1,-20,1,-27,1,-20,1,-34,1
1054,-27,1,-26,1,1,1,26,1,-14,1,-13,1,12,1,-20,1,-19,1,-27,1,-26,1,-46,1
1055,-27,1,-25,1,2,1,26,1,-15,1,-12,1,12,1,-15,1,-19,1,-28,1,-23,1,-43,1
1056,-26,1,-25,1,1,1,25,1,-14,1,-12,1,10,1,-6,1,-21,1,-29,1,-6,1,-9,1
1057,-26,1,-26,1,0,1,26,1,-13,1,-13,1,11,1,-10,1,-22,1,-27,1,-4,1,-1,1
1058,-26,1,-26,1,0,1,26,1,-13,1,-13,1,12,1,-17,1,-23,1,-27,1,-15,1,-25,1
1059,-26,1,-26,1,0,1,26,1,-13,1,-13,1,12,1,-20,1,-24,1,-28,1,-20,1,-41,1
1060,-26,1,-26,1,0,1,26,1,-13,1,-13,1,11,1,-19,1,-24,1,-29,1,-21,1,-45,1
1061,-27,1,-26,1,1,1,26,1,-14,1,-13,1,11,1,-14,1,-25,1,-29,1,-10,1,-17,1
1062,-28,1,-27,1,1,1,27,1,-15,1,-13,1,11,1,-19,1,-23,1,-28,1,-13,1,-16,1
1063,-29,1,-28,1,1,1,28,1,-15,1,-14,1,12,1,-24,1,-23,1,-29,1,-26,1,-41,1
1064,-29,1,-27,1,2,1,28,1,-16,1,-13,1,12,1,-22,1,-23,1,-29,1,-31,1,-53,1
1065,-28,1,-27,1,1,1,27,1,-15,1,-13,1,10,1,-17,1,-23,1,-30,1,-27,1,-48,1
1066,-28,1,-26,1,2,1,27,1,-15,1,-12,1,9,1,-9,1,-25,1,-31,1,-9,1,-11,1
1067,-28,1,-27,1,1,1,27,1,-15,1,-13,1,10,1,-15,1,-25,1,-30,1,-7,1,-4,1
1068,-30,1,-29,1,1,1,29,1,-16,1,-14,1,10,1,-22,1,-26,1,-31,1,-17,1,-26,1
1069,-30,1,-29,1,1,1,29,1,-16,1,-14,1,10,1,-25,1,-27,1,-32,1,-23,1,-40,1
1070,-29,1,-28,1,1,1,28,1,-15,1,-14,1,10,1,-24,1,-27,1,-32,1,-24,1,-42,1
1071,-29,1,-27,1,2,1,28,1,-16,1,-13,1,9,1,-17,1,-28,1,-33,1,-11,1,-14,1
1072,-29,1,-28,1,1,1,28,1,-15,1,-14,1,11,1,-21,1,-26,1,-32,1,-13,1,-13,1
1073,-30,1,-28,1,2,1,29,1,-16,1,-13,1,12,1,-24,1,-25,1,-32,1,-25,1,-36,1
1074,-30,1,-28,1,2,1,29,1,-16,1,-13,1,11,1,-23,1,-25,1,-33,1,-30,1,-48,1
1075,-30,1,-27,1,3,1,28,1,-17,1,-12,1,11,1,-18,1,-24,1,-33,1,-27,1,-45,1
1076,-30,1,-27,1,3,1,28,1,-17,1,-12,1,10,1,-8,1,-25,1,-33,1,-11,1,-10,1
1077,-30,1,-28,1,2,1,29,1,-16,1,-13,1,11,1,-13,1,-25,1,-31,1,-8,1,0,1
1078,-30,1,-29,1,1,1,29,1,-16,1,-14,1,12,1,-19,1,-25,1,-31,1,-18,1,-23,1
1079,-29,1,-29,1,0,1,29,1,-15,1,-15,1,11,1,-22,1,-26,1,-31,1,-24,1,-38,1
1080,-28,1,-29,1,-1,1,28,1,-14,1,-15,1,11,1,-21,1,-26,1,-32,1,-25,1,-40,1
1081,-28,1,-28,1,0,1,28,1,-14,1,-14,1,10,1,-14,1,-26,1,-32,1,-12,1,-12,1
1082,-28,1,-29,1,-1,1,28,1,-14,1,-15,1,12,1,-18,1,-24,1,-31,1,-13,1,-11,1
1083,-29,1,-29,1,0,1,29,1,-15,1,-15,1,13,1,-22,1,-24,1,-30,1,-26,1,-37,1
1084,-29,1,-28,1,1,1,28,1,-15,1,-14,1,12,1,-21,1,-24,1,-30,1,-31,1,-50,1
1085,-29,1,-28,1,1,1,28,1,-15,1,-14,1,11,1,-17,1,-24,1,-31,1,-28,1,-44,1
1086,-26,1,-26,1,0,1,26,1,-13,1,-13,1,9,1,-9,1,-25,1,-32,1,-10,1,-7,1
1087,-25,1,-26,1,-1,1,25,1,-12,1,-14,1,10,1,-14,1,-25,1,-31,1,-8,1,2,1
1088,-26,1,-26,1,0,1,26,1,-13,1,-13,1,11,1,-21,1,-25,1,-30,1,-19,1,-20,1
1089,-25,1,-26,1,-1,1,25,1,-12,1,-14,1,11,1,-22,1,-25,1,-30,1,-25,1,-34,1
1090,-24,1,-26,1,-2,1,25,1,-11,1,-14,1,11,1,-20,1,-25,1,-30,1,-25,1,-37,1
1091,-23,1,-25,1,-2,1,24,1,-11,1,-14,1,11,1,-12,1,-24,1,-29,1,-11,1,-12,1
1092,-24,1,-24,1,0,1,24,1,-12,1,-12,1,13,1,-16,1,-21,1,-27,1,-12,1,-10,1
1093,-25,1,-23,1,2,1,24,1,-14,1,-11,1,15,1,-19,1,-20,1,-25,1,-23,1,-35,1
1094,-25,1,-22,1,3,1,23,1,-14,1,-10,1,15,1,-17,1,-19,1,-25,1,-27,1,-47,1
1095,-25,1,-22,1,3,1,23,1,-14,1,-10,1,15,1,-12,1,-18,1,-25,1,-24,1,-44,1
1096,-23,1,-19,1,4,1,21,1,-14,1,-8,1,13,1,-4,1,-19,1,-26,1,-6,1,-9,1
1097,-23,1,-19,1,4,1,21,1,-14,1,-8,1,14,1,-8,1,-19,1,-27,1,-4,1,1,1
1098,-23,1,-18,1,5,1,20,1,-14,1,-7,1,13,1,-15,1,-20,1,-28,1,-17,1,-21,1
1099,-22,1,-18,1,4,1,20,1,-13,1,-7,1,13,1,-18,1,-21,1,-28,1,-23,1,-37,1
1100,-21,1,-17,1,4,1,19,1,-13,1,-7,1,12,1,-16,1,-21,1,-28,1,-24,1,-39,1
1101,-22,1,-17,1,5,1,19,1,-14,1,-6,1,11,1,-9,1,-22,1,-28,1,-11,1,-13,1
1102,-24,1,-18,1,6,1,21,1,-15,1,-6,1,13,1,-14,1,-20,1,-26,1,-12,1,-12,1
1103,-25,1,-19,1,6,1,22,1,-16,1,-7,1,14,1,-18,1,-19,1,-25,1,-25,1,-38,1
1104,-26,1,-19,1,7,1,22,1,-17,1,-6,1,15,1,-17,1,-19,1,-25,1,-30,1,-53,1
1105,-26,1,-18,1,8,1,22,1,-17,1,-5,1,14,1,-13,1,-19,1,-24,1,-28,1,-50,1
1106,-24,1,-17,1,7,1,20,1,-16,1,-5,1,13,1,-5,1,-20,1,-25,1,-12,1,-15,1
1107,-23,1,-17,1,6,1,20,1,-15,1,-6,1,13,1,-10,1,-18,1,-24,1,-11,1,-6,1
1108,-24,1,-18,1,6,1,21,1,-15,1,-6,1,14,1,-16,1,-18,1,-24,1,-22,1,-28,1
1109,-22,1,-19,1,3,1,20,1,-13,1,-8,1,14,1,-18,1,-18,1,-25,1,-30,1,-43,1
1110,-21,1,-19,1,2,1,20,1,-12,1,-9,1,12,1,-17,1,-19,1,-26,1,-31,1,-47,1
1111,-21,1,-20,1,1,1,20,1,-11,1,-10,1,10,1,-11,1,-21,1,-27,1,-17,1,-21,1
1112,-21,1,-21,1,0,1,21,1,-11,1,-11,1,10,1,-15,1,-21,1,-26,1,-19,1,-22,1
1113,-22,1,-23,1,-1,1,22,1,-11,1,-12,1,10,1,-20,1,-21,1,-26,1,-31,1,-48,1
1114,-23,1,-24,1,-1,1,23,1,-11,1,-13,1,9,1,-20,1,-22,1,-27,1,-37,1,-61,1
1115,-24,1,-24,1,0,1,24,1,-12,1,-12,1,8,1,-17,1,-23,1,-28,1,-35,1,-61,1
1116,-24,1,-25,1,-1,1,24,1,-12,1,-13,1,7,1,-10,1,-25,1,-30,1,-20,1,-29,1
1117,-24,1,-26,1,-2,1,25,1,-11,1,-14,1,8,1,-17,1,-25,1,-31,1,-19,1,-23,1
1118,-25,1,-28,1,-3,1,26,1,-11,1,-16,1,9,1,-25,1,-26,1,-32,1,-32,1,-47,1
1119,-25,1,-29,1,-4,1,27,1,-11,1,-17,1,8,1,-28,1,-27,1,-33,1,-39,1,-62,1
1120,-26,1,-30,1,-4,1,28,1,-11,1,-17,1,8,1,-27,1,-28,1,-34,1,-40,1,-66,1
1121,-27,1,-29,1,-2,1,28,1,-13,1,-16,1,8,1,-20,1,-29,1,-34,1,-26,1,-39,1
1122,-28,1,-30,1,-2,1,29,1,-13,1,-16,1,9,1,-23,1,-28,1,-32,1,-26,1,-37,1
1123,-29,1,-30,1,-1,1,29,1,-14,1,-16,1,11,1,-26,1,-27,1,-32,1,-38,1,-63,1
1124,-29,1,-29,1,0,1,29,1,-15,1,-15,1,12,1,-25,1,-27,1,-32,1,-44,1,-76,1
1125,-30,1,-30,1,0,1,30,1,-15,1,-15,1,12,1,-20,1,-28,1,-33,1,-43,1,-73,1
1126,-31,1,-31,1,0,1,31,1,-16,1,-16,1,12,1,-13,1,-29,1,-35,1,-27,1,-39,1
1127,-33,1,-33,1,0,1,33,1,-17,1,-17,1,13,1,-19,1,-30,1,-36,1,-27,1,-31,1
1128,-34,1,-35,1,-1,1,34,1,-17,1,-18,1,14,1,-27,1,-30,1,-37,1,-41,1,-56,1
1129,-34,1,-35,1,-1,1,34,1,-17,1,-18,1,14,1,-30,1,-31,1,-38,1,-49,1,-73,1
1130,-34,1,-35,1,-1,1,34,1,-17,1,-18,1,13,1,-30,1,-31,1,-39,1,-50,1,-77,1
1131,-34,1,-34,1,0,1,34,1,-17,1,-17,1,12,1,-22,1,-32,1,-39,1,-36,1,-50,1
1132,-34,1,-34,1,0,1,34,1,-17,1,-17,1,13,1,-26,1,-31,1,-38,1,-38,1,-48,1
1133,-34,1,-36,1,-2,1,35,1,-16,1,-19,1,13,1,-29,1,-31,1,-38,1,-49,1,-72,1
1134,-33,1,-36,1,-3,1,34,1,-15,1,-20,1,13,1,-27,1,-32,1,-38,1,-54,1,-84,1
1135,-33,1,-36,1,-3,1,34,1,-15,1,-20,1,11,1,-23,1,-32,1,-39,1,-52,1,-82,1
1136,-33,1,-36,1,-3,1,34,1,-15,1,-20,1,11,1,-15,1,-31,1,-39,1,-36,1,-49,1
1137,-33,1,-37,1,-4,1,35,1,-15,1,-21,1,12,1,-21,1,-31,1,-38,1,-35,1,-42,1
1138,-35,1,-39,1,-4,1,37,1,-16,1,-22,1,13,1,-29,1,-31,1,-39,1,-48,1,-68,1
1139,-34,1,-37,1,-3,1,35,1,-16,1,-20,1,13,1,-32,1,-32,1,-39,1,-55,1,-83,1
1140,-34,1,-36,1,-2,1,35,1,-16,1,-19,1,13,1,-32,1,-32,1,-39,1,-55,1,-85,1
1141,-34,1,-35,1,-1,1,34,1,-17,1,-18,1,12,1,-25,1,-33,1,-40,1,-41,1,-57,1
1142,-34,1,-35,1,-1,1,34,1,-17,1,-18,1,13,1,-29,1,-32,1,-39,1,-42,1,-53,1
1143,-34,1,-37,1,-3,1,35,1,-16,1,-20,1,14,1,-31,1,-32,1,-39,1,-54,1,-77,1
1144,-34,1,-38,1,-4,1,36,1,-15,1,-21,1,14,1,-30,1,-32,1,-39,1,-58,1,-90,1
1145,-35,1,-39,1,-4,1,37,1,-16,1,-22,1,15,1,-25,1,-31,1,-39,1,-57,1,-88,1
1146,-35,1,-38,1,-3,1,36,1,-16,1,-21,1,14,1,-17,1,-32,1,-40,1,-41,1,-55,1
1147,-34,1,-38,1,-4,1,36,1,-15,1,-21,1,14,1,-23,1,-32,1,-39,1,-40,1,-48,1
1148,-34,1,-39,1,-5,1,36,1,-15,1,-22,1,14,1,-31,1,-33,1,-40,1,-55,1,-75,1
1149,-33,1,-38,1,-5,1,35,1,-14,1,-22,1,13,1,-35,1,-33,1,-41,1,-64,1,-94,1
1150,-33,1,-37,1,-4,1,35,1,-15,1,-21,1,12,1,-34,1,-34,1,-41,1,-67,1,-99,1
1151,-33,1,-36,1,-3,1,34,1,-15,1,-20,1,12,1,-27,1,-34,1,-42,1,-54,1,-73,1
1152,-33,1,-37,1,-4,1,35,1,-15,1,-21,1,13,1,-31,1,-33,1,-40,1,-55,1,-70,1
1153,-34,1,-38,1,-4,1,36,1,-15,1,-21,1,14,1,-34,1,-32,1,-38,1,-66,1,-94,1
1154,-34,1,-38,1,-4,1,36,1,-15,1,-21,1,15,1,-32,1,-31,1,-38,1,-71,1,-107,1
1155,-34,1,-38,1,-4,1,36,1,-15,1,-21,1,14,1,-27,1,-31,1,-38,1,-70,1,-104,1
1156,-34,1,-37,1,-3,1,35,1,-16,1,-20,1,13,1,-19,1,-31,1,-39,1,-53,1,-71,1
1157,-33,1,-37,1,-4,1,35,1,-15,1,-21,1,14,1,-25,1,-31,1,-39,1,-53,1,-65,1
1158,-33,1,-37,1,-4,1,35,1,-15,1,-21,1,14,1,-33,1,-31,1,-39,1,-65,1,-92,1
1159,-33,1,-36,1,-3,1,34,1,-15,1,-20,1,14,1,-35,1,-32,1,-40,1,-72,1,-110,1
1160,-33,1,-37,1,-4,1,35,1,-15,1,-21,1,13,1,-35,1,-32,1,-41,1,-74,1,-114,1
1161,-33,1,-36,1,-3,1,34,1,-15,1,-20,1,13,1,-29,1,-34,1,-40,1,-61,1,-88,1
1162,-34,1,-37,1,-3,1,35,1,-16,1,-20,1,14,1,-33,1,-32,1,-38,1,-62,1,-86,1
1163,-36,1,-38,1,-2,1,37,1,-17,1,-20,1,16,1,-35,1,-30,1,-36,1,-73,1,-110,1
1164,-37,1,-38,1,-1,1,37,1,-18,1,-20,1,17,1,-32,1,-28,1,-35,1,-78,1,-124,1
1165,-35,1,-38,1,-3,1,36,1,-16,1,-21,1,16,1,-26,1,-27,1,-35,1,-77,1,-121,1
1166,-33,1,-37,1,-4,1,35,1,-15,1,-21,1,15,1,-15,1,-26,1,-34,1,-61,1,-88,1
1167,-31,1,-37,1,-6,1,34,1,-13,1,-22,1,16,1,-17,1,-23,1,-31,1,-59,1,-80,1
1168,-29,1,-36,1,-7,1,32,1,-11,1,-22,1,18,1,-19,1,-17,1,-27,1,-68,1,-105,1
1169,-25,1,-32,1,-7,1,28,1,-9,1,-20,1,22,1,-9,1,-4,1,-17,1,-70,1,-121,1
1170,-21,1,-26,1,-5,1,23,1,-8,1,-16,1,28,1,8,1,13,1,-3,1,-63,1,-120,1
1171,-16,1,-20,1,-4,1,18,1,-6,1,-12,1,36,1,36,1,34,1,15,1,-40,1,-86,1
1172,-10,1,-14,1,-4,1,12,1,-3,1,-9,1,47,1,56,1,60,1,37,1,-26,1,-72,1
1173,-2,1,-5,1,-3,1,3,1,0,1,-4,1,53,1,73,1,84,1,60,1,-20,1,-81,1
1174,9,1,7,1,-2,1,-8,1,6,1,3,1,52,1,87,1,104,1,83,1,-2,1,-70,1
1175,24,1,24,1,0,1,-24,1,12,1,12,1,49,1,105,1,123,1,108,1,31,1,-37,1
1176,42,1,42,1,0,1,-42,1,21,1,21,1,45,1,123,1,138,1,130,1,83,1,29,1
1177,59,1,59,1,0,1,-59,1,30,1,30,1,39,1,121,1,145,1,150,1,123,1,70,1
1178,77,1,75,1,-2,1,-76,1,40,1,37,1,25,1,105,1,141,1,159,1,147,1,79,1
1179,96,1,92,1,-4,1,-94,1,50,1,44,1,0,1,81,1,122,1,158,1,173,1,98,1
1180,113,1,104,1,-9,1,-108,1,61,1,48,1,-33,1,45,1,89,1,145,1,197,1,123,1
1181,127,1,111,1,-16,1,-119,1,72,1,48,1,-70,1,7,1,45,1,121,1,221,1,169,1
1182,135,1,111,1,-24,1,-123,1,80,1,44,1,-101,1,-40,1,0,1,91,1,219,1,180,1
1183,138,1,106,1,-32,1,-122,1,85,1,37,1,-121,1,-82,1,-44,1,55,1,190,1,151,1
1184,133,1,98,1,-35,1,-115,1,84,1,32,1,-135,1,-117,1,-88,1,12,1,154,1,121,1
1185,120,1,84,1,-36,1,-102,1,78,1,24,1,-142,1,-146,1,-132,1,-35,1,112,1,93,1
1186,98,1,64,1,-34,1,-81,1,66,1,15,1,-143,1,-172,1,-179,1,-92,1,71,1,81,1
1187,63,1,40,1,-23,1,-51,1,43,1,9,1,-133,1,-207,1,-221,1,-148,1,10,1,33,1
1188,23,1,20,1,-3,1,-21,1,13,1,9,1,-118,1,-233,1,-248,1,-190,1,-61,1,-46,1
1189,-8,1,4,1,12,1,2,1,-10,1,8,1,-103,1,-242,1,-257,1,-212,1,-108,1,-105,1
1190,-31,1,-13,1,18,1,22,1,-25,1,2,1,-89,1,-236,1,-253,1,-218,1,-137,1,-139,1
1191,-45,1,-28,1,17,1,36,1,-31,1,-6,1,-79,1,-216,1,-241,1,-214,1,-141,1,-135,1
1192,-53,1,-41,1,12,1,47,1,-33,1,-15,1,-68,1,-205,1,-226,1,-204,1,-152,1,-146,1
1193,-58,1,-47,1,11,1,52,1,-35,1,-18,1,-58,1,-191,1,-208,1,-191,1,-166,1,-178,1
1194,-60,1,-49,1,11,1,54,1,-36,1,-19,1,-48,1,-173,1,-190,1,-176,1,-168,1,-192,1
1195,-60,1,-49,1,11,1,54,1,-36,1,-19,1,-39,1,-150,1,-169,1,-159,1,-157,1,-186,1
1196,-58,1,-45,1,13,1,51,1,-36,1,-16,1,-32,1,-124,1,-149,1,-141,1,-132,1,-150,1
1197,-55,1,-43,1,12,1,49,1,-34,1,-16,1,-24,1,-114,1,-129,1,-123,1,-124,1,-140,1
1198,-53,1,-40,1,13,1,46,1,-33,1,-14,1,-18,1,-108,1,-111,1,-107,1,-131,1,-164,1
1199,-49,1,-37,1,12,1,43,1,-31,1,-13,1,-15,1,-99,1,-95,1,-92,1,-133,1,-178,1
1200,-43,1,-33,1,10,1,38,1,-27,1,-12,1,-13,1,-88,1,-81,1,-79,1,-127,1,-176,1
1201,-37,1,-28,1,9,1,32,1,-23,1,-10,1,-11,1,-69,1,-67,1,-65,1,-105,1,-143,1
1202,-31,1,-24,1,7,1,27,1,-19,1,-9,1,-7,1,-62,1,-54,1,-53,1,-97,1,-132,1
1203,-27,1,-22,1,5,1,24,1,-16,1,-9,1,-4,1,-56,1,-45,1,-44,1,-103,1,-150,1
1204,-23,1,-19,1,4,1,21,1,-14,1,-8,1,-3,1,-48,1,-37,1,-38,1,-102,1,-158,1
1205,-19,1,-17,1,2,1,18,1,-11,1,-8,1,-2,1,-37,1,-31,1,-32,1,-95,1,-152,1
1206,-14,1,-13,1,1,1,13,1,-8,1,-6,1,-2,1,-23,1,-25,1,-27,1,-74,1,-117,1
1207,-13,1,-13,1,0,1,13,1,-7,1,-7,1,0,1,-25,1,-20,1,-22,1,-70,1,-108,1
1208,-13,1,-12,1,1,1,12,1,-7,1,-6,1,1,1,-29,1,-16,1,-18,1,-83,1,-137,1
1209,-12,1,-12,1,0,1,12,1,-6,1,-6,1,2,1,-31,1,-12,1,-15,1,-91,1,-157,1
1210,-12,1,-11,1,1,1,11,1,-7,1,-5,1,2,1,-29,1,-10,1,-13,1,-92,1,-162,1
1211,-11,1,-10,1,1,1,10,1,-6,1,-5,1,2,1,-21,1,-9,1,-12,1,-78,1,-134,1
1212,-12,1,-10,1,2,1,11,1,-7,1,-4,1,5,1,-22,1,-7,1,-10,1,-77,1,-126,1
1213,-12,1,-11,1,1,1,11,1,-7,1,-5,1,6,1,-23,1,-5,1,-9,1,-88,1,-149,1
1214,-10,1,-10,1,0,1,10,1,-5,1,-5,1,7,1,-19,1,-4,1,-8,1,-92,1,-159,1
1215,-10,1,-11,1,-1,1,10,1,-5,1,-6,1,7,1,-12,1,-3,1,-8,1,-88,1,-154,1
1216,-8,1,-10,1,-2,1,9,1,-3,1,-6,1,7,1,-2,1,-2,1,-8,1,-70,1,-120,1
1217,-8,1,-11,1,-3,1,9,1,-3,1,-7,1,8,1,-7,1,-1,1,-6,1,-69,1,-113,1
1218,-9,1,-11,1,-2,1,10,1,-4,1,-7,1,8,1,-15,1,-1,1,-6,1,-84,1,-142,1
1219,-10,1,-11,1,-1,1,10,1,-5,1,-6,1,8,1,-18,1,-1,1,-5,1,-93,1,-162,1
1220,-10,1,-10,1,0,1,10,1,-5,1,-5,1,7,1,-17,1,0,1,-5,1,-95,1,-167,1
1221,-10,1,-10,1,0,1,10,1,-5,1,-5,1,6,1,-10,1,0,1,-5,1,-81,1,-139,1
1222,-10,1,-10,1,0,1,10,1,-5,1,-5,1,8,1,-13,1,1,1,-4,1,-80,1,-133,1
1223,-10,1,-11,1,-1,1,10,1,-5,1,-6,1,10,1,-14,1,3,1,-3,1,-91,1,-157,1
1224,-9,1,-11,1,-2,1,10,1,-4,1,-7,1,10,1,-11,1,4,1,-3,1,-95,1,-169,1
1225,-9,1,-11,1,-2,1,10,1,-4,1,-7,1,10,1,-5,1,4,1,-3,1,-93,1,-167,1
1226,-7,1,-10,1,-3,1,8,1,-2,1,-7,1,9,1,4,1,3,1,-3,1,-77,1,-136,1
1227,-7,1,-10,1,-3,1,8,1,-2,1,-7,1,9,1,-1,1,3,1,-1,1,-76,1,-128,1
1228,-7,1,-11,1,-4,1,9,1,-2,1,-8,1,8,1,-9,1,2,1,-1,1,-91,1,-157,1
1229,-8,1,-10,1,-2,1,9,1,-3,1,-6,1,7,1,-13,1,2,1,-1,1,-99,1,-175,1
1230,-7,1,-9,1,-2,1,8,1,-3,1,-6,1,6,1,-13,1,2,1,-1,1,-100,1,-181,1
1231,-6,1,-9,1,-3,1,7,1,-2,1,-6,1,5,1,-6,1,2,1,-2,1,-86,1,-153,1
1232,-7,1,-9,1,-2,1,8,1,-3,1,-6,1,7,1,-7,1,3,1,0,1,-83,1,-144,1
1233,-8,1,-10,1,-2,1,9,1,-3,1,-6,1,9,1,-9,1,5,1,0,1,-92,1,-164,1
1234,-8,1,-10,1,-2,1,9,1,-3,1,-6,1,10,1,-6,1,6,1,1,1,-95,1,-171,1
1235,-7,1,-9,1,-2,1,8,1,-3,1,-6,1,10,1,0,1,6,1,2,1,-91,1,-165,1
1236,-6,1,-9,1,-3,1,7,1,-2,1,-6,1,9,1,9,1,5,1,2,1,-74,1,-130,1
1237,-7,1,-9,1,-2,1,8,1,-3,1,-6,1,9,1,3,1,5,1,2,1,-71,1,-119,1
1238,-7,1,-10,1,-3,1,8,1,-2,1,-7,1,8,1,-6,1,6,1,1,1,-82,1,-144,1
1239,-7,1,-10,1,-3,1,8,1,-2,1,-7,1,7,1,-10,1,6,1,1,1,-88,1,-160,1
1240,-6,1,-9,1,-3,1,7,1,-2,1,-6,1,6,1,-9,1,6,1,1,1,-87,1,-162,1
1241,-6,1,-9,1,-3,1,7,1,-2,1,-6,1,6,1,-1,1,6,1,1,1,-70,1,-130,1
1242,-6,1,-11,1,-5,1,8,1,-1,1,-8,1,8,1,-2,1,8,1,3,1,-66,1,-117,1
1243,-6,1,-11,1,-5,1,8,1,-1,1,-8,1,10,1,-3,1,10,1,5,1,-72,1,-132,1
1244,-6,1,-10,1,-4,1,8,1,-1,1,-7,1,10,1,-1,1,10,1,6,1,-73,1,-134,1
1245,-5,1,-9,1,-4,1,7,1,-1,1,-7,1,9,1,4,1,10,1,6,1,-67,1,-124,1
1246,-3,1,-7,1,-4,1,5,1,0,1,-6,1,7,1,11,1,9,1,6,1,-49,1,-87,1
1247,-3,1,-7,1,-4,1,5,1,0,1,-6,1,8,1,6,1,9,1,5,1,-46,1,-76,1
1248,-4,1,-7,1,-3,1,5,1,-1,1,-5,1,6,1,-1,1,9,1,5,1,-57,1,-99,1
1249,-4,1,-7,1,-3,1,5,1,-1,1,-5,1,6,1,-4,1,9,1,5,1,-62,1,-113,1
1250,-3,1,-6,1,-3,1,4,1,0,1,-5,1,4,1,-3,1,9,1,4,1,-61,1,-113,1
1251,-2,1,-6,1,-4,1,4,1,1,1,-5,1,4,1,4,1,10,1,4,1,-46,1,-81,1
1252,-2,1,-7,1,-5,1,4,1,1,1,-6,1,5,1,0,1,12,1,6,1,-43,1,-67,1
1253,-2,1,-8,1,-6,1,5,1,2,1,-7,1,7,1,-1,1,13,1,7,1,-52,1,-82,1
1254,-2,1,-8,1,-6,1,5,1,2,1,-7,1,8,1,1,1,14,1,9,1,-54,1,-87,1
1255,-2,1,-6,1,-4,1,4,1,1,1,-5,1,7,1,5,1,14,1,10,1,-50,1,-82,1
1256,-1,1,-5,1,-4,1,3,1,1,1,-5,1,6,1,12,1,13,1,9,1,-34,1,-50,1
1257,-1,1,-5,1,-4,1,3,1,1,1,-5,1,6,1,7,1,12,1,9,1,-31,1,-42,1
1258,-2,1,-4,1,-2,1,3,1,0,1,-3,1,5,1,-1,1,12,1,8,1,-43,1,-70,1
1259,-3,1,-4,1,-1,1,3,1,-1,1,-3,1,3,1,-5,1,11,1,7,1,-50,1,-88,1
1260,-2,1,-4,1,-2,1,3,1,0,1,-3,1,2,1,-5,1,11,1,7,1,-51,1,-94,1
1261,-1,1,-4,1,-3,1,2,1,1,1,-4,1,2,1,1,1,11,1,7,1,-36,1,-68,1
1262,-2,1,-5,1,-3,1,3,1,0,1,-4,1,4,1,-2,1,12,1,8,1,-34,1,-59,1
1263,-1,1,-6,1,-5,1,3,1,2,1,-6,1,6,1,-5,1,13,1,10,1,-44,1,-78,1
1264,-1,1,-5,1,-4,1,3,1,1,1,-5,1,6,1,-3,1,14,1,11,1,-49,1,-88,1
1265,-1,1,-3,1,-2,1,2,1,0,1,-3,1,6,1,1,1,15,1,13,1,-48,1,-85,1
1266,0,1,-2,1,-2,1,1,1,1,1,-2,1,4,1,8,1,13,1,12,1,-33,1,-56,1
1267,0,1,-2,1,-2,1,1,1,1,1,-2,1,4,1,4,1,14,1,12,1,-31,1,-49,1
1268,-1,1,-3,1,-2,1,2,1,0,1,-3,1,3,1,-3,1,14,1,12,1,-43,1,-77,1
1269,0,1,-2,1,-2,1,1,1,1,1,-2,1,2,1,-5,1,14,1,12,1,-51,1,-95,1
1270,1,1,-1,1,-2,1,0,1,1,1,-1,1,1,1,-4,1,14,1,12,1,-51,1,-99,1
1271,1,1,0,1,-1,1,0,1,1,1,0,1,0,1,2,1,14,1,12,1,-37,1,-71,1
1272,1,1,0,1,-1,1,0,1,1,1,0,1,2,1,0,1,16,1,14,1,-33,1,-59,1
1273,1,1,0,1,-1,1,0,1,1,1,0,1,4,1,-1,1,18,1,16,1,-41,1,-74,1
1274,0,1,0,1,0,1,0,1,0,1,0,1,5,1,1,1,19,1,17,1,-43,1,-79,1
1275,1,1,0,1,-1,1,0,1,1,1,0,1,4,1,6,1,19,1,18,1,-40,1,-72,1
1276,3,1,2,1,-1,1,-2,1,2,1,1,1,2,1,14,1,18,1,18,1,-23,1,-39,1
1277,4,1,1,1,-3,1,-2,1,4,1,-1,1,2,1,9,1,19,1,19,1,-19,1,-28,1
1278,4,1,1,1,-3,1,-2,1,4,1,-1,1,1,1,2,1,19,1,19,1,-30,1,-52,1
1279,4,1,2,1,-2,1,-3,1,3,1,0,1,0,1,0,1,19,1,18,1,-37,1,-69,1
1280,6,1,3,1,-3,1,-4,1,5,1,0,1,0,1,0,1,19,1,18,1,-36,1,-71,1
1281,6,1,5,1,-1,1,-5,1,4,1,2,1,-2,1,6,1,19,1,19,1,-21,1,-43,1
1282,6,1,5,1,-1,1,-5,1,4,1,2,1,0,1,4,1,21,1,21,1,-18,1,-31,1
1283,6,1,5,1,-1,1,-5,1,4,1,2,1,0,1,2,1,22,1,22,1,-27,1,-50,1
1284,6,1,5,1,-1,1,-5,1,4,1,2,1,-1,1,5,1,23,1,23,1,-30,1,-57,1
1285,6,1,4,1,-2,1,-5,1,4,1,1,1,-1,1,11,1,24,1,24,1,-25,1,-51,1
1286,7,1,5,1,-2,1,-6,1,5,1,2,1,-3,1,20,1,24,1,25,1,-7,1,-16,1
1287,8,1,4,1,-4,1,-6,1,6,1,0,1,-1,1,15,1,26,1,26,1,-5,1,-5,1
1288,8,1,4,1,-4,1,-6,1,6,1,0,1,-1,1,8,1,28,1,27,1,-16,1,-30,1
1289,10,1,5,1,-5,1,-7,1,8,1,0,1,-2,1,5,1,28,1,27,1,-22,1,-46,1
1290,12,1,7,1,-5,1,-9,1,9,1,1,1,-2,1,7,1,28,1,27,1,-20,1,-48,1
1291,13,1,9,1,-4,1,-11,1,9,1,3,1,-4,1,14,1,27,1,27,1,-5,1,-20,1
1292,14,1,9,1,-5,1,-11,1,10,1,2,1,-3,1,12,1,28,1,29,1,-2,1,-8,1
1293,14,1,9,1,-5,1,-11,1,10,1,2,1,-2,1,11,1,29,1,31,1,-11,1,-23,1
1294,15,1,9,1,-6,1,-12,1,11,1,2,1,-2,1,13,1,30,1,33,1,-13,1,-26,1
1295,15,1,10,1,-5,1,-12,1,10,1,3,1,-3,1,18,1,31,1,35,1,-9,1,-20,1
1296,17,1,11,1,-6,1,-14,1,12,1,3,1,-4,1,26,1,31,1,35,1,9,1,13,1
1297,17,1,12,1,-5,1,-14,1,11,1,4,1,-3,1,21,1,33,1,36,1,14,1,25,1
1298,17,1,13,1,-4,1,-15,1,11,1,5,1,-4,1,15,1,35,1,37,1,3,1,-1,1
1299,18,1,15,1,-3,1,-16,1,11,1,6,1,-4,1,11,1,36,1,38,1,-2,1,-18,1
1300,19,1,16,1,-3,1,-17,1,11,1,7,1,-5,1,12,1,38,1,40,1,-1,1,-21,1
1301,20,1,17,1,-3,1,-18,1,12,1,7,1,-7,1,19,1,38,1,40,1,14,1,7,1
1302,22,1,18,1,-4,1,-20,1,13,1,7,1,-7,1,16,1,39,1,43,1,16,1,19,1
1303,23,1,18,1,-5,1,-20,1,14,1,7,1,-7,1,14,1,41,1,45,1,7,1,1,1
1304,25,1,18,1,-7,1,-21,1,16,1,6,1,-8,1,17,1,41,1,46,1,5,1,-5,1
1305,27,1,18,1,-9,1,-22,1,18,1,5,1,-8,1,22,1,43,1,48,1,12,1,4,1
1306,29,1,20,1,-9,1,-24,1,19,1,6,1,-10,1,32,1,44,1,49,1,32,1,38,1
1307,29,1,21,1,-8,1,-25,1,19,1,7,1,-9,1,28,1,47,1,51,1,39,1,51,1
1308,28,1,22,1,-6,1,-25,1,17,1,8,1,-9,1,21,1,49,1,53,1,30,1,27,1
1309,29,1,23,1,-6,1,-26,1,18,1,9,1,-11,1,18,1,49,1,54,1,25,1,12,1
1310,31,1,25,1,-6,1,-28,1,19,1,10,1,-13,1,18,1,50,1,56,1,27,1,10,1
1311,33,1,27,1,-6,1,-30,1,20,1,11,1,-15,1,25,1,51,1,57,1,42,1,38,1
1312,35,1,27,1,-8,1,-31,1,22,1,10,1,-15,1,22,1,53,1,61,1,46,1,50,1
1313,38,1,28,1,-10,1,-33,1,24,1,9,1,-14,1,20,1,55,1,64,1,40,1,36,1
1314,40,1,30,1,-10,1,-35,1,25,1,10,1,-15,1,23,1,57,1,66,1,39,1,32,1
1315,43,1,32,1,-11,1,-37,1,27,1,11,1,-17,1,30,1,58,1,69,1,45,1,41,1
1316,45,1,36,1,-9,1,-40,1,27,1,14,1,-20,1,40,1,59,1,71,1,65,1,75,1
1317,47,1,38,1,-9,1,-42,1,28,1,15,1,-21,1,39,1,64,1,75,1,73,1,88,1
1318,48,1,40,1,-8,1,-44,1,28,1,16,1,-22,1,33,1,66,1,78,1,65,1,63,1
1319,49,1,43,1,-6,1,-46,1,28,1,19,1,-24,1,30,1,69,1,81,1,61,1,47,1
1320,52,1,45,1,-7,1,-48,1,30,1,19,1,-27,1,30,1,72,1,83,1,63,1,46,1
1321,55,1,47,1,-8,1,-51,1,32,1,20,1,-29,1,37,1,74,1,87,1,80,1,76,1
1322,57,1,49,1,-8,1,-53,1,33,1,21,1,-29,1,34,1,77,1,91,1,86,1,91,1
1323,61,1,51,1,-10,1,-56,1,36,1,21,1,-29,1,32,1,79,1,95,1,80,1,78,1
1324,64,1,54,1,-10,1,-59,1,37,1,22,1,-29,1,36,1,81,1,99,1,81,1,76,1
1325,68,1,58,1,-10,1,-63,1,39,1,24,1,-31,1,43,1,83,1,101,1,90,1,86,1
1326,70,1,62,1,-8,1,-66,1,39,1,27,1,-34,1,53,1,85,1,104,1,112,1,124,1
1327,72,1,64,1,-8,1,-68,1,40,1,28,1,-35,1,51,1,89,1,108,1,120,1,136,1
1328,73,1,67,1,-6,1,-70,1,40,1,31,1,-37,1,46,1,93,1,112,1,113,1,113,1
1329,74,1,69,1,-5,1,-71,1,40,1,32,1,-39,1,44,1,95,1,115,1,111,1,99,1
1330,76,1,71,1,-5,1,-73,1,41,1,33,1,-41,1,45,1,98,1,119,1,114,1,98,1
1331,79,1,73,1,-6,1,-76,1,43,1,34,1,-43,1,52,1,100,1,123,1,130,1,128,1
1332,83,1,75,1,-8,1,-79,1,46,1,34,1,-42,1,50,1,103,1,127,1,135,1,142,1
1333,86,1,77,1,-9,1,-81,1,48,1,34,1,-42,1,48,1,106,1,131,1,128,1,128,1
1334,88,1,79,1,-9,1,-83,1,49,1,35,1,-42,1,51,1,107,1,133,1,127,1,123,1
1335,90,1,82,1,-8,1,-86,1,49,1,37,1,-42,1,57,1,109,1,135,1,133,1,129,1
1336,90,1,85,1,-5,1,-87,1,48,1,40,1,-44,1,67,1,109,1,136,1,152,1,161,1
1337,88,1,87,1,-1,1,-87,1,45,1,43,1,-43,1,63,1,111,1,138,1,156,1,169,1
1338,84,1,87,1,3,1,-85,1,41,1,45,1,-43,1,57,1,113,1,138,1,144,1,141,1
1339,82,1,88,1,6,1,-85,1,38,1,47,1,-42,1,54,1,114,1,136,1,137,1,121,1
1340,80,1,88,1,8,1,-84,1,36,1,48,1,-41,1,54,1,114,1,134,1,134,1,116,1
1341,79,1,89,1,10,1,-84,1,35,1,50,1,-39,1,60,1,113,1,133,1,145,1,141,1
1342,78,1,88,1,10,1,-83,1,34,1,49,1,-35,1,56,1,113,1,134,1,144,1,151,1
1343,76,1,88,1,12,1,-82,1,32,1,50,1,-30,1,54,1,112,1,133,1,130,1,131,1
1344,73,1,87,1,14,1,-80,1,30,1,51,1,-27,1,55,1,110,1,131,1,123,1,120,1
1345,68,1,86,1,18,1,-77,1,25,1,52,1,-25,1,60,1,108,1,128,1,122,1,119,1
1346,64,1,85,1,21,1,-74,1,22,1,53,1,-24,1,67,1,105,1,123,1,133,1,145,1
1347,58,1,80,1,22,1,-69,1,18,1,51,1,-21,1,61,1,102,1,119,1,131,1,147,1
1348,52,1,75,1,23,1,-63,1,15,1,49,1,-18,1,53,1,100,1,113,1,111,1,112,1
1349,47,1,71,1,24,1,-59,1,12,1,48,1,-15,1,48,1,96,1,106,1,98,1,86,1
1350,42,1,67,1,25,1,-54,1,9,1,46,1,-11,1,46,1,91,1,99,1,89,1,73,1
1351,38,1,64,1,26,1,-51,1,6,1,45,1,-8,1,51,1,87,1,93,1,94,1,92,1
1352,34,1,60,1,26,1,-47,1,4,1,43,1,-3,1,45,1,83,1,88,1,88,1,95,1
1353,30,1,55,1,25,1,-42,1,3,1,40,1,0,1,40,1,77,1,82,1,69,1,70,1
1354,25,1,51,1,26,1,-38,1,0,1,39,1,3,1,39,1,72,1,75,1,56,1,57,1
1355,21,1,46,1,25,1,-33,1,-2,1,36,1,5,1,40,1,68,1,69,1,49,1,56,1
1356,17,1,41,1,24,1,-29,1,-3,1,33,1,5,1,46,1,62,1,62,1,57,1,80,1
1357,12,1,36,1,24,1,-24,1,-6,1,30,1,6,1,37,1,58,1,56,1,53,1,83,1
1358,7,1,31,1,24,1,-19,1,-8,1,28,1,8,1,27,1,52,1,49,1,36,1,50,1
1359,4,1,27,1,23,1,-15,1,-9,1,25,1,9,1,21,1,46,1,43,1,23,1,26,1
1360,1,1,23,1,22,1,-12,1,-10,1,23,1,9,1,18,1,40,1,37,1,17,1,16,1
1361,-1,1,20,1,21,1,-9,1,-11,1,20,1,8,1,22,1,34,1,30,1,26,1,41,1
1362,-3,1,16,1,19,1,-6,1,-11,1,17,1,10,1,15,1,30,1,26,1,26,1,51,1
1363,-6,1,12,1,18,1,-3,1,-12,1,15,1,12,1,10,1,26,1,21,1,13,1,31,1
1364,-8,1,9,1,17,1,0,1,-12,1,13,1,13,1,7,1,21,1,17,1,4,1,20,1
1365,-10,1,7,1,17,1,1,1,-13,1,12,1,11,1,8,1,18,1,13,1,2,1,21,1
1366,-11,1,5,1,16,1,3,1,-13,1,10,1,10,1,14,1,13,1,9,1,14,1,49,1
1367,-13,1,2,1,15,1,5,1,-14,1,8,1,10,1,7,1,10,1,7,1,15,1,56,1
1368,-15,1,-2,1,13,1,8,1,-14,1,5,1,10,1,-1,1,8,1,4,1,-1,1,24,1
1369,-17,1,-4,1,13,1,10,1,-15,1,4,1,10,1,-7,1,4,1,0,1,-11,1,0,1
1370,-19,1,-6,1,13,1,12,1,-16,1,3,1,9,1,-9,1,0,1,-5,1,-14,1,-8,1
1371,-19,1,-7,1,12,1,13,1,-16,1,2,1,9,1,-4,1,-4,1,-8,1,-2,1,16,1
1372,-19,1,-8,1,11,1,13,1,-15,1,1,1,9,1,-9,1,-6,1,-10,1,-1,1,28,1
1373,-20,1,-9,1,11,1,14,1,-16,1,1,1,10,1,-14,1,-7,1,-12,1,-14,1,10,1
1374,-20,1,-10,1,10,1,15,1,-15,1,0,1,10,1,-14,1,-8,1,-14,1,-20,1,2,1
1375,-21,1,-12,1,9,1,16,1,-15,1,-2,1,9,1,-12,1,-9,1,-15,1,-20,1,5,1
1376,-20,1,-13,1,7,1,16,1,-14,1,-3,1,8,1,-8,1,-11,1,-17,1,-7,1,35,1
1377,-21,1,-15,1,6,1,18,1,-14,1,-5,1,8,1,-12,1,-11,1,-18,1,-6,1,43,1
1378,-22,1,-16,1,6,1,19,1,-14,1,-5,1,9,1,-19,1,-12,1,-18,1,-19,1,15,1
1379,-22,1,-17,1,5,1,19,1,-14,1,-6,1,9,1,-21,1,-13,1,-19,1,-26,1,-5,1
1380,-22,1,-18,1,4,1,20,1,-13,1,-7,1,8,1,-21,1,-15,1,-21,1,-27,1,-13,1
1381,-22,1,-17,1,5,1,19,1,-14,1,-6,1,7,1,-14,1,-17,1,-23,1,-14,1,12,1
1382,-22,1,-18,1,4,1,20,1,-13,1,-7,1,8,1,-19,1,-16,1,-23,1,-11,1,22,1
1383,-23,1,-19,1,4,1,21,1,-14,1,-8,1,9,1,-23,1,-16,1,-23,1,-21,1,5,1
1384,-23,1,-19,1,4,1,21,1,-14,1,-8,1,9,1,-23,1,-16,1,-23,1,-26,1,0,1
1385,-23,1,-20,1,3,1,21,1,-13,1,-9,1,8,1,-20,1,-17,1,-23,1,-22,1,4,1
1386,-23,1,-20,1,3,1,21,1,-13,1,-9,1,7,1,-13,1,-18,1,-24,1,-7,1,34,1
1387,-23,1,-21,1,2,1,22,1,-13,1,-10,1,7,1,-18,1,-18,1,-24,1,-5,1,43,1
1388,-24,1,-22,1,2,1,23,1,-13,1,-10,1,8,1,-23,1,-18,1,-25,1,-18,1,14,1
1389,-25,1,-22,1,3,1,23,1,-14,1,-10,1,7,1,-25,1,-19,1,-26,1,-25,1,-8,1
1390,-24,1,-22,1,2,1,23,1,-13,1,-10,1,7,1,-23,1,-20,1,-27,1,-27,1,-16,1
1391,-23,1,-21,1,2,1,22,1,-13,1,-10,1,6,1,-17,1,-21,1,-28,1,-13,1,9,1
1392,-23,1,-21,1,2,1,22,1,-13,1,-10,1,7,1,-22,1,-20,1,-27,1,-11,1,22,1
1393,-24,1,-20,1,4,1,22,1,-14,1,-8,1,8,1,-27,1,-20,1,-26,1,-21,1,4,1
1394,-24,1,-20,1,4,1,22,1,-14,1,-8,1,8,1,-28,1,-21,1,-26,1,-25,1,-4,1
1395,-23,1,-19,1,4,1,21,1,-14,1,-8,1,8,1,-25,1,-21,1,-26,1,-23,1,-1,1
1396,-23,1,-19,1,4,1,21,1,-14,1,-8,1,7,1,-18,1,-22,1,-27,1,-9,1,28,1
1397,-23,1,-20,1,3,1,21,1,-13,1,-9,1,8,1,-22,1,-22,1,-26,1,-7,1,37,1
1398,-26,1,-22,1,4,1,24,1,-15,1,-9,1,9,1,-28,1,-22,1,-26,1,-19,1,7,1
1399,-26,1,-23,1,3,1,24,1,-15,1,-10,1,9,1,-29,1,-22,1,-27,1,-26,1,-13,1
1400,-25,1,-23,1,2,1,24,1,-14,1,-11,1,9,1,-27,1,-22,1,-27,1,-27,1,-19,1
1401,-24,1,-23,1,1,1,23,1,-13,1,-11,1,8,1,-21,1,-22,1,-28,1,-14,1,7,1
1402,-24,1,-23,1,1,1,23,1,-13,1,-11,1,8,1,-25,1,-21,1,-27,1,-10,1,20,1
1403,-24,1,-23,1,1,1,23,1,-13,1,-11,1,10,1,-29,1,-20,1,-27,1,-20,1,4,1
1404,-24,1,-23,1,1,1,23,1,-13,1,-11,1,10,1,-29,1,-20,1,-26,1,-23,1,-2,1
1405,-23,1,-23,1,0,1,23,1,-12,1,-12,1,10,1,-25,1,-20,1,-26,1,-21,1,3,1
1406,-22,1,-23,1,-1,1,22,1,-11,1,-12,1,8,1,-17,1,-21,1,-26,1,-5,1,32,1
1407,-24,1,-24,1,0,1,24,1,-12,1,-12,1,9,1,-22,1,-21,1,-26,1,-2,1,41,1
1408,-27,1,-26,1,1,1,26,1,-14,1,-13,1,9,1,-27,1,-22,1,-27,1,-16,1,10,1
1409,-29,1,-26,1,3,1,27,1,-16,1,-12,1,9,1,-28,1,-23,1,-28,1,-25,1,-11,1
1410,-28,1,-25,1,3,1,26,1,-16,1,-11,1,8,1,-27,1,-23,1,-28,1,-26,1,-16,1
1411,-28,1,-24,1,4,1,26,1,-16,1,-10,1,6,1,-20,1,-24,1,-29,1,-12,1,12,1
1412,-28,1,-24,1,4,1,26,1,-16,1,-10,1,6,1,-24,1,-22,1,-28,1,-9,1,25,1
1413,-27,1,-25,1,2,1,26,1,-15,1,-12,1,7,1,-27,1,-21,1,-28,1,-19,1,9,1
1414,-26,1,-25,1,1,1,25,1,-14,1,-12,1,7,1,-28,1,-21,1,-28,1,-24,1,2,1
1415,-26,1,-25,1,1,1,25,1,-14,1,-12,1,7,1,-25,1,-22,1,-29,1,-22,1,7,1
1416,-25,1,-24,1,1,1,24,1,-13,1,-12,1,6,1,-17,1,-23,1,-30,1,-6,1,40,1
1417,-24,1,-25,1,-1,1,24,1,-12,1,-13,1,7,1,-21,1,-23,1,-30,1,-3,1,50,1
1418,-26,1,-26,1,0,1,26,1,-13,1,-13,1,9,1,-25,1,-24,1,-30,1,-16,1,23,1
1419,-27,1,-26,1,1,1,26,1,-14,1,-13,1,8,1,-26,1,-25,1,-30,1,-23,1,7,1
1420,-28,1,-26,1,2,1,27,1,-15,1,-12,1,7,1,-24,1,-25,1,-30,1,-22,1,3,1
1421,-28,1,-26,1,2,1,27,1,-15,1,-12,1,6,1,-17,1,-27,1,-32,1,-10,1,31,1
1422,-28,1,-26,1,2,1,27,1,-15,1,-12,1,7,1,-20,1,-24,1,-31,1,-7,1,46,1
1423,-27,1,-27,1,0,1,27,1,-14,1,-14,1,9,1,-24,1,-23,1,-31,1,-19,1,30,1
1424,-27,1,-28,1,-1,1,27,1,-13,1,-15,1,9,1,-25,1,-23,1,-31,1,-24,1,23,1
1425,-25,1,-27,1,-2,1,26,1,-12,1,-15,1,8,1,-22,1,-22,1,-31,1,-22,1,27,1
1426,-25,1,-26,1,-1,1,25,1,-12,1,-14,1,7,1,-14,1,-24,1,-32,1,-7,1,55,1
1427,-26,1,-26,1,0,1,26,1,-13,1,-13,1,7,1,-19,1,-25,1,-32,1,-5,1,65,1
1428,-29,1,-27,1,2,1,28,1,-16,1,-13,1,8,1,-25,1,-26,1,-32,1,-19,1,35,1
1429,-30,1,-27,1,3,1,28,1,-17,1,-12,1,8,1,-26,1,-26,1,-33,1,-25,1,14,1
1430,-31,1,-27,1,4,1,29,1,-18,1,-12,1,8,1,-23,1,-26,1,-33,1,-25,1,7,1
1431,-31,1,-27,1,4,1,29,1,-18,1,-12,1,7,1,-16,1,-26,1,-34,1,-12,1,33,1
1432,-30,1,-27,1,3,1,28,1,-17,1,-12,1,7,1,-21,1,-25,1,-32,1,-8,1,47,1
1433,-29,1,-27,1,2,1,28,1,-16,1,-13,1,9,1,-24,1,-24,1,-32,1,-19,1,28,1
1434,-28,1,-27,1,1,1,27,1,-15,1,-13,1,9,1,-25,1,-24,1,-32,1,-24,1,21,1
1435,-27,1,-27,1,0,1,27,1,-14,1,-14,1,9,1,-22,1,-24,1,-31,1,-23,1,25,1
1436,-26,1,-26,1,0,1,26,1,-13,1,-13,1,8,1,-14,1,-26,1,-32,1,-10,1,53,1
1437,-26,1,-27,1,-1,1,26,1,-13,1,-14,1,9,1,-19,1,-27,1,-32,1,-9,1,60,1
1438,-28,1,-28,1,0,1,28,1,-14,1,-14,1,9,1,-25,1,-27,1,-32,1,-22,1,31,1
1439,-29,1,-29,1,0,1,29,1,-15,1,-15,1,9,1,-26,1,-27,1,-33,1,-29,1,9,1
1440,-29,1,-30,1,-1,1,29,1,-14,1,-16,1,8,1,-23,1,-28,1,-33,1,-30,1,1,1
1441,-30,1,-29,1,1,1,29,1,-16,1,-14,1,7,1,-16,1,-28,1,-34,1,-17,1,27,1
1442,-30,1,-30,1,0,1,30,1,-15,1,-15,1,8,1,-22,1,-27,1,-33,1,-15,1,38,1
1443,-30,1,-30,1,0,1,30,1,-15,1,-15,1,9,1,-26,1,-25,1,-33,1,-27,1,20,1
1444,-29,1,-30,1,-1,1,29,1,-14,1,-16,1,9,1,-27,1,-25,1,-34,1,-32,1,11,1
1445,-29,1,-30,1,-1,1,29,1,-14,1,-16,1,8,1,-24,1,-27,1,-34,1,-31,1,13,1
1446,-29,1,-29,1,0,1,29,1,-15,1,-15,1,6,1,-16,1,-28,1,-34,1,-17,1,42,1
1447,-29,1,-30,1,-1,1,29,1,-14,1,-16,1,7,1,-20,1,-28,1,-33,1,-14,1,50,1
1448,-31,1,-32,1,-1,1,31,1,-15,1,-17,1,9,1,-24,1,-28,1,-33,1,-26,1,19,1
1449,-32,1,-31,1,1,1,31,1,-17,1,-15,1,9,1,-26,1,-28,1,-33,1,-33,1,-1,1
1450,-31,1,-31,1,0,1,31,1,-16,1,-16,1,8,1,-24,1,-28,1,-34,1,-34,1,-8,1
1451,-31,1,-30,1,1,1,30,1,-16,1,-15,1,8,1,-17,1,-28,1,-35,1,-22,1,15,1
1452,-31,1,-30,1,1,1,30,1,-16,1,-15,1,8,1,-22,1,-28,1,-35,1,-19,1,28,1
1453,-31,1,-29,1,2,1,30,1,-17,1,-14,1,9,1,-25,1,-28,1,-35,1,-28,1,10,1
1454,-31,1,-29,1,2,1,30,1,-17,1,-14,1,9,1,-25,1,-28,1,-36,1,-33,1,3,1
1455,-30,1,-29,1,1,1,29,1,-16,1,-14,1,8,1,-22,1,-28,1,-36,1,-32,1,7,1
1456,-29,1,-28,1,1,1,28,1,-15,1,-14,1,6,1,-15,1,-29,1,-36,1,-17,1,36,1
1457,-29,1,-29,1,0,1,29,1,-15,1,-15,1,7,1,-19,1,-28,1,-34,1,-14,1,45,1
1458,-30,1,-28,1,2,1,29,1,-16,1,-13,1,8,1,-23,1,-27,1,-34,1,-25,1,16,1
1459,-30,1,-27,1,3,1,28,1,-17,1,-12,1,8,1,-24,1,-26,1,-33,1,-32,1,-4,1
1460,-29,1,-26,1,3,1,27,1,-16,1,-12,1,8,1,-21,1,-27,1,-33,1,-32,1,-10,1
1461,-28,1,-26,1,2,1,27,1,-15,1,-12,1,7,1,-14,1,-27,1,-33,1,-19,1,15,1
1462,-27,1,-25,1,2,1,26,1,-15,1,-12,1,8,1,-17,1,-25,1,-31,1,-15,1,28,1
1463,-27,1,-24,1,3,1,25,1,-15,1,-11,1,10,1,-20,1,-24,1,-31,1,-26,1,10,1
1464,-26,1,-24,1,2,1,25,1,-14,1,-11,1,10,1,-19,1,-23,1,-30,1,-31,1,2,1
1465,-25,1,-23,1,2,1,24,1,-14,1,-11,1,9,1,-16,1,-23,1,-29,1,-29,1,5,1
1466,-25,1,-23,1,2,1,24,1,-14,1,-11,1,8,1,-8,1,-23,1,-29,1,-15,1,35,1
1467,-25,1,-23,1,2,1,24,1,-14,1,-11,1,9,1,-12,1,-22,1,-29,1,-12,1,44,1
1468,-27,1,-23,1,4,1,25,1,-16,1,-10,1,9,1,-18,1,-22,1,-29,1,-24,1,15,1
1469,-26,1,-21,1,5,1,23,1,-16,1,-8,1,9,1,-19,1,-21,1,-29,1,-31,1,-4,1
1470,-26,1,-19,1,7,1,22,1,-17,1,-6,1,9,1,-17,1,-21,1,-29,1,-31,1,-10,1
1471,-25,1,-17,1,8,1,21,1,-17,1,-5,1,8,1,-10,1,-21,1,-29,1,-18,1,15,1
1472,-24,1,-17,1,7,1,20,1,-16,1,-5,1,9,1,-14,1,-21,1,-28,1,-14,1,29,1
1473,-24,1,-18,1,6,1,21,1,-15,1,-6,1,10,1,-18,1,-21,1,-28,1,-24,1,11,1
1474,-24,1,-18,1,6,1,21,1,-15,1,-6,1,10,1,-18,1,-22,1,-28,1,-29,1,2,1
1475,-24,1,-19,1,5,1,21,1,-15,1,-7,1,9,1,-15,1,-23,1,-29,1,-28,1,5,1
1476,-23,1,-19,1,4,1,21,1,-14,1,-8,1,8,1,-7,1,-23,1,-30,1,-14,1,34,1
1477,-23,1,-19,1,4,1,21,1,-14,1,-8,1,8,1,-10,1,-22,1,-29,1,-10,1,44,1
1478,-24,1,-20,1,4,1,22,1,-14,1,-8,1,9,1,-13,1,-21,1,-29,1,-22,1,15,1
1479,-24,1,-20,1,4,1,22,1,-14,1,-8,1,9,1,-14,1,-21,1,-29,1,-30,1,-5,1
1480,-24,1,-21,1,3,1,22,1,-14,1,-9,1,8,1,-12,1,-21,1,-29,1,-31,1,-12,1
1481,-23,1,-21,1,2,1,22,1,-13,1,-10,1,6,1,-6,1,-23,1,-30,1,-19,1,13,1
1482,-23,1,-22,1,1,1,22,1,-12,1,-11,1,6,1,-11,1,-22,1,-29,1,-16,1,26,1
1483,-23,1,-23,1,0,1,23,1,-12,1,-12,1,8,1,-15,1,-22,1,-29,1,-26,1,7,1
1484,-23,1,-23,1,0,1,23,1,-12,1,-12,1,7,1,-16,1,-22,1,-29,1,-31,1,-2,1
1485,-24,1,-25,1,-1,1,24,1,-12,1,-13,1,6,1,-13,1,-22,1,-29,1,-31,1,-1,1
1486,-25,1,-25,1,0,1,25,1,-13,1,-13,1,6,1,-9,1,-24,1,-31,1,-19,1,25,1
1487,-25,1,-26,1,-1,1,25,1,-12,1,-14,1,6,1,-12,1,-24,1,-31,1,-18,1,33,1
1488,-27,1,-27,1,0,1,27,1,-14,1,-14,1,7,1,-16,1,-25,1,-32,1,-32,1,4,1
1489,-28,1,-27,1,1,1,27,1,-15,1,-13,1,7,1,-18,1,-27,1,-34,1,-41,1,-18,1
1490,-30,1,-29,1,1,1,29,1,-16,1,-14,1,6,1,-16,1,-28,1,-36,1,-45,1,-28,1
1491,-30,1,-30,1,0,1,30,1,-15,1,-15,1,6,1,-9,1,-30,1,-36,1,-33,1,-6,1
1492,-30,1,-31,1,-1,1,30,1,-15,1,-16,1,6,1,-13,1,-29,1,-35,1,-31,1,4,1
1493,-31,1,-32,1,-1,1,31,1,-15,1,-17,1,8,1,-16,1,-30,1,-35,1,-42,1,-14,1
1494,-31,1,-33,1,-2,1,32,1,-15,1,-18,1,8,1,-15,1,-30,1,-34,1,-46,1,-23,1
1495,-31,1,-33,1,-2,1,32,1,-15,1,-18,1,8,1,-11,1,-29,1,-34,1,-45,1,-21,1
1496,-32,1,-33,1,-1,1,32,1,-16,1,-17,1,7,1,-3,1,-31,1,-36,1,-32,1,6,1
1497,-34,1,-35,1,-1,1,34,1,-17,1,-18,1,7,1,-6,1,-32,1,-38,1,-31,1,15,1
1498,-36,1,-37,1,-1,1,36,1,-18,1,-19,1,8,1,-12,1,-32,1,-38,1,-45,1,-15,1
1499,-37,1,-37,1,0,1,37,1,-19,1,-19,1,8,1,-14,1,-33,1,-40,1,-54,1,-39,1
1500,-37,1,-37,1,0,1,37,1,-19,1,-19,1,7,1,-13,1,-34,1,-41,1,-56,1,-48,1
1501,-36,1,-37,1,-1,1,36,1,-18,1,-19,1,7,1,-6,1,-35,1,-42,1,-43,1,-25,1
1502,-36,1,-38,1,-2,1,37,1,-17,1,-20,1,8,1,-10,1,-33,1,-41,1,-40,1,-13,1
1503,-36,1,-40,1,-4,1,38,1,-16,1,-22,1,10,1,-12,1,-33,1,-40,1,-51,1,-33,1
1504,-36,1,-40,1,-4,1,38,1,-16,1,-22,1,10,1,-11,1,-33,1,-41,1,-57,1,-43,1
1505,-36,1,-41,1,-5,1,38,1,-16,1,-23,1,8,1,-8,1,-34,1,-42,1,-57,1,-42,1
1506,-35,1,-40,1,-5,1,37,1,-15,1,-23,1,8,1,1,1,-35,1,-42,1,-43,1,-13,1
1507,-35,1,-41,1,-6,1,38,1,-15,1,-24,1,9,1,-3,1,-34,1,-41,1,-41,1,-4,1
1508,-37,1,-42,1,-5,1,39,1,-16,1,-24,1,11,1,-8,1,-33,1,-41,1,-56,1,-34,1
1509,-37,1,-42,1,-5,1,39,1,-16,1,-24,1,11,1,-9,1,-33,1,-41,1,-64,1,-56,1
1510,-37,1,-41,1,-4,1,39,1,-17,1,-23,1,10,1,-9,1,-33,1,-41,1,-67,1,-65,1
1511,-36,1,-40,1,-4,1,38,1,-16,1,-22,1,8,1,-3,1,-34,1,-42,1,-55,1,-43,1
1512,-36,1,-40,1,-4,1,38,1,-16,1,-22,1,9,1,-8,1,-35,1,-41,1,-52,1,-31,1
1513,-35,1,-39,1,-4,1,37,1,-16,1,-22,1,9,1,-11,1,-35,1,-40,1,-62,1,-49,1
1514,-35,1,-38,1,-3,1,36,1,-16,1,-21,1,9,1,-11,1,-35,1,-40,1,-67,1,-59,1
1515,-35,1,-38,1,-3,1,36,1,-16,1,-21,1,8,1,-6,1,-36,1,-40,1,-66,1,-58,1
1516,-35,1,-37,1,-2,1,36,1,-17,1,-20,1,7,1,2,1,-37,1,-41,1,-53,1,-32,1
1517,-35,1,-37,1,-2,1,36,1,-17,1,-20,1,7,1,-1,1,-36,1,-41,1,-51,1,-23,1
1518,-37,1,-38,1,-1,1,37,1,-18,1,-20,1,9,1,-8,1,-36,1,-41,1,-66,1,-55,1
1519,-36,1,-39,1,-3,1,37,1,-17,1,-21,1,9,1,-10,1,-35,1,-42,1,-74,1,-78,1
1520,-36,1,-39,1,-3,1,37,1,-17,1,-21,1,9,1,-8,1,-35,1,-42,1,-76,1,-86,1
1521,-36,1,-39,1,-3,1,37,1,-17,1,-21,1,8,1,-1,1,-36,1,-44,1,-64,1,-62,1
1522,-36,1,-39,1,-3,1,37,1,-17,1,-21,1,8,1,-4,1,-35,1,-43,1,-61,1,-48,1
1523,-37,1,-40,1,-3,1,38,1,-17,1,-22,1,9,1,-7,1,-33,1,-41,1,-71,1,-67,1
1524,-37,1,-41,1,-4,1,39,1,-17,1,-23,1,10,1,-6,1,-33,1,-40,1,-75,1,-77,1
1525,-36,1,-40,1,-4,1,38,1,-16,1,-22,1,10,1,-2,1,-33,1,-40,1,-72,1,-74,1
1526,-36,1,-40,1,-4,1,38,1,-16,1,-22,1,9,1,6,1,-34,1,-40,1,-57,1,-45,1
1527,-36,1,-41,1,-5,1,38,1,-16,1,-23,1,10,1,0,1,-35,1,-41,1,-54,1,-35,1
1528,-38,1,-43,1,-5,1,40,1,-17,1,-24,1,10,1,-5,1,-35,1,-41,1,-68,1,-66,1
1529,-38,1,-42,1,-4,1,40,1,-17,1,-23,1,9,1,-7,1,-35,1,-42,1,-77,1,-88,1
1530,-38,1,-41,1,-3,1,39,1,-18,1,-22,1,7,1,-5,1,-35,1,-42,1,-80,1,-97,1
1531,-37,1,-40,1,-3,1,38,1,-17,1,-22,1,6,1,2,1,-35,1,-42,1,-69,1,-76,1
1532,-37,1,-41,1,-4,1,39,1,-17,1,-23,1,7,1,-1,1,-34,1,-41,1,-66,1,-63,1
1533,-36,1,-41,1,-5,1,38,1,-16,1,-23,1,9,1,-3,1,-33,1,-40,1,-75,1,-81,1
1534,-37,1,-41,1,-4,1,39,1,-17,1,-23,1,10,1,-3,1,-32,1,-39,1,-79,1,-89,1
1535,-36,1,-40,1,-4,1,38,1,-16,1,-22,1,11,1,1,1,-31,1,-39,1,-77,1,-87,1
1536,-34,1,-39,1,-5,1,36,1,-15,1,-22,1,11,1,9,1,-30,1,-39,1,-63,1,-59,1
1537,-33,1,-39,1,-6,1,36,1,-14,1,-23,1,11,1,8,1,-28,1,-36,1,-58,1,-47,1
1538,-32,1,-38,1,-6,1,35,1,-13,1,-22,1,14,1,8,1,-22,1,-31,1,-69,1,-75,1
1539,-29,1,-36,1,-7,1,32,1,-11,1,-22,1,18,1,17,1,-10,1,-23,1,-73,1,-94,1
1540,-25,1,-31,1,-6,1,28,1,-10,1,-19,1,24,1,35,1,6,1,-9,1,-68,1,-98,1
1541,-20,1,-25,1,-5,1,22,1,-8,1,-15,1,31,1,62,1,25,1,6,1,-46,1,-67,1
1542,-15,1,-21,1,-6,1,18,1,-5,1,-14,1,41,1,81,1,48,1,27,1,-29,1,-43,1
1543,-9,1,-13,1,-4,1,11,1,-3,1,-9,1,48,1,95,1,72,1,49,1,-23,1,-48,1
1544,0,1,-1,1,-1,1,0,1,0,1,-1,1,50,1,108,1,92,1,71,1,-3,1,-38,1
1545,12,1,14,1,2,1,-13,1,5,1,8,1,48,1,124,1,111,1,96,1,30,1,-7,1
1546,27,1,33,1,6,1,-30,1,11,1,20,1,46,1,141,1,128,1,119,1,80,1,53,1
1547,42,1,50,1,8,1,-46,1,17,1,29,1,41,1,142,1,138,1,139,1,122,1,98,1
1548,58,1,69,1,11,1,-63,1,24,1,40,1,29,1,132,1,138,1,152,1,145,1,107,1
1549,77,1,87,1,10,1,-82,1,34,1,49,1,5,1,113,1,124,1,154,1,175,1,126,1
1550,94,1,104,1,10,1,-99,1,42,1,57,1,-29,1,83,1,94,1,145,1,205,1,155,1
1551,108,1,111,1,3,1,-109,1,53,1,57,1,-67,1,49,1,53,1,124,1,236,1,205,1
1552,118,1,111,1,-7,1,-114,1,63,1,52,1,-98,1,5,1,10,1,98,1,246,1,232,1
1553,123,1,108,1,-15,1,-115,1,69,1,47,1,-121,1,-34,1,-30,1,68,1,228,1,216,1
1554,121,1,102,1,-19,1,-111,1,70,1,42,1,-137,1,-68,1,-71,1,30,1,200,1,194,1
1555,113,1,91,1,-22,1,-102,1,68,1,35,1,-147,1,-97,1,-114,1,-14,1,164,1,171,1
1556,95,1,73,1,-22,1,-84,1,59,1,26,1,-151,1,-123,1,-160,1,-69,1,125,1,158,1
1557,66,1,51,1,-15,1,-58,1,41,1,18,1,-145,1,-159,1,-204,1,-127,1,60,1,110,1
1558,29,1,30,1,1,1,-29,1,14,1,16,1,-131,1,-185,1,-237,1,-178,1,-23,1,17,1
1559,-1,1,14,1,15,1,-6,1,-8,1,14,1,-117,1,-194,1,-252,1,-207,1,-83,1,-53,1
1560,-25,1,-1,1,24,1,13,1,-25,1,11,1,-104,1,-188,1,-252,1,-218,1,-120,1,-98,1
1561,-40,1,-18,1,22,1,29,1,-31,1,2,1,-93,1,-170,1,-243,1,-217,1,-131,1,-103,1
1562,-49,1,-35,1,14,1,42,1,-32,1,-11,1,-81,1,-159,1,-228,1,-208,1,-140,1,-107,1
1563,-55,1,-46,1,9,1,50,1,-32,1,-19,1,-69,1,-149,1,-211,1,-194,1,-156,1,-135,1
1564,-60,1,-51,1,9,1,55,1,-35,1,-21,1,-57,1,-134,1,-192,1,-180,1,-159,1,-147,1
1565,-60,1,-52,1,8,1,56,1,-34,1,-22,1,-47,1,-115,1,-173,1,-163,1,-153,1,-146,1
1566,-58,1,-49,1,9,1,53,1,-34,1,-20,1,-39,1,-91,1,-154,1,-147,1,-131,1,-116,1
1567,-56,1,-48,1,8,1,52,1,-32,1,-20,1,-32,1,-79,1,-134,1,-131,1,-118,1,-103,1
1568,-54,1,-46,1,8,1,50,1,-31,1,-19,1,-26,1,-72,1,-116,1,-116,1,-125,1,-130,1
1569,-50,1,-42,1,8,1,46,1,-29,1,-17,1,-23,1,-60,1,-100,1,-102,1,-125,1,-146,1
1570,-46,1,-36,1,10,1,41,1,-28,1,-13,1,-22,1,-46,1,-85,1,-87,1,-117,1,-148,1
1571,-40,1,-31,1,9,1,35,1,-25,1,-11,1,-20,1,-27,1,-71,1,-73,1,-96,1,-116,1
1572,-34,1,-28,1,6,1,31,1,-20,1,-11,1,-16,1,-19,1,-58,1,-58,1,-84,1,-94,1
1573,-30,1,-25,1,5,1,27,1,-18,1,-10,1,-12,1,-13,1,-48,1,-45,1,-87,1,-106,1
1574,-26,1,-22,1,4,1,24,1,-15,1,-9,1,-9,1,-6,1,-40,1,-37,1,-85,1,-111,1
1575,-22,1,-20,1,2,1,21,1,-12,1,-9,1,-7,1,2,1,-33,1,-31,1,-79,1,-106,1
1576,-18,1,-17,1,1,1,17,1,-10,1,-8,1,-7,1,13,1,-28,1,-28,1,-61,1,-79,1
1577,-16,1,-17,1,-1,1,16,1,-8,1,-9,1,-5,1,12,1,-21,1,-23,1,-56,1,-69,1
1578,-16,1,-17,1,-1,1,16,1,-8,1,-9,1,-4,1,10,1,-16,1,-20,1,-67,1,-100,1
1579,-15,1,-16,1,-1,1,15,1,-7,1,-9,1,-4,1,13,1,-12,1,-18,1,-74,1,-123,1
1580,-15,1,-15,1,0,1,15,1,-8,1,-8,1,-4,1,18,1,-10,1,-17,1,-77,1,-131,1
1581,-15,1,-13,1,2,1,14,1,-9,1,-6,1,-4,1,29,1,-8,1,-15,1,-65,1,-104,1
1582,-15,1,-13,1,2,1,14,1,-9,1,-6,1,-2,1,29,1,-7,1,-12,1,-60,1,-84,1
1583,-16,1,-13,1,3,1,14,1,-10,1,-5,1,0,1,25,1,-6,1,-10,1,-69,1,-99,1
1584,-16,1,-13,1,3,1,14,1,-10,1,-5,1,2,1,26,1,-5,1,-9,1,-72,1,-104,1
1585,-17,1,-13,1,4,1,15,1,-11,1,-5,1,2,1,30,1,-5,1,-9,1,-68,1,-99,1
1586,-16,1,-12,1,4,1,14,1,-10,1,-4,1,2,1,39,1,-4,1,-9,1,-53,1,-70,1
1587,-15,1,-12,1,3,1,13,1,-9,1,-5,1,2,1,36,1,-2,1,-8,1,-47,1,-58,1
1588,-15,1,-14,1,1,1,14,1,-8,1,-7,1,3,1,30,1,-1,1,-8,1,-59,1,-86,1
1589,-15,1,-14,1,1,1,14,1,-8,1,-7,1,2,1,30,1,0,1,-7,1,-66,1,-106,1
1590,-15,1,-15,1,0,1,15,1,-8,1,-8,1,1,1,35,1,1,1,-7,1,-66,1,-110,1
1591,-14,1,-15,1,-1,1,14,1,-7,1,-8,1,1,1,44,1,1,1,-6,1,-53,1,-82,1
1592,-14,1,-16,1,-2,1,15,1,-6,1,-9,1,3,1,43,1,1,1,-4,1,-47,1,-62,1
1593,-15,1,-17,1,-2,1,16,1,-7,1,-10,1,5,1,40,1,2,1,-2,1,-55,1,-74,1
1594,-15,1,-17,1,-2,1,16,1,-7,1,-10,1,6,1,40,1,1,1,-2,1,-57,1,-76,1
1595,-14,1,-16,1,-2,1,15,1,-6,1,-9,1,5,1,43,1,2,1,-2,1,-52,1,-68,1
1596,-14,1,-15,1,-1,1,14,1,-7,1,-8,1,5,1,49,1,0,1,-3,1,-36,1,-36,1
1597,-14,1,-15,1,-1,1,14,1,-7,1,-8,1,5,1,45,1,1,1,-3,1,-29,1,-21,1
1598,-14,1,-15,1,-1,1,14,1,-7,1,-8,1,5,1,40,1,2,1,-3,1,-40,1,-46,1
1599,-12,1,-14,1,-2,1,13,1,-5,1,-8,1,4,1,39,1,3,1,-4,1,-46,1,-64,1
1600,-11,1,-13,1,-2,1,12,1,-5,1,-8,1,3,1,42,1,4,1,-4,1,-46,1,-67,1
1601,-12,1,-12,1,0,1,12,1,-6,1,-6,1,3,1,51,1,4,1,-3,1,-32,1,-37,1
1602,-12,1,-12,1,0,1,12,1,-6,1,-6,1,4,1,48,1,4,1,-2,1,-26,1,-14,1
1603,-12,1,-13,1,-1,1,12,1,-6,1,-7,1,6,1,45,1,5,1,0,1,-33,1,-24,1
1604,-12,1,-14,1,-2,1,13,1,-5,1,-8,1,6,1,45,1,5,1,1,1,-34,1,-27,1
1605,-12,1,-14,1,-2,1,13,1,-5,1,-8,1,5,1,47,1,4,1,2,1,-31,1,-22,1
1606,-11,1,-13,1,-2,1,12,1,-5,1,-8,1,4,1,54,1,4,1,1,1,-16,1,6,1
1607,-10,1,-14,1,-4,1,12,1,-3,1,-9,1,4,1,51,1,5,1,2,1,-10,1,17,1
1608,-11,1,-15,1,-4,1,13,1,-4,1,-10,1,5,1,43,1,7,1,2,1,-24,1,-14,1
1609,-11,1,-13,1,-2,1,12,1,-5,1,-8,1,5,1,42,1,8,1,2,1,-33,1,-38,1
1610,-11,1,-13,1,-2,1,12,1,-5,1,-8,1,4,1,43,1,8,1,2,1,-36,1,-48,1
1611,-11,1,-12,1,-1,1,11,1,-5,1,-7,1,3,1,49,1,7,1,2,1,-24,1,-24,1
1612,-10,1,-12,1,-2,1,11,1,-4,1,-7,1,3,1,46,1,7,1,2,1,-20,1,-8,1
1613,-10,1,-14,1,-4,1,12,1,-3,1,-9,1,5,1,39,1,7,1,2,1,-31,1,-25,1
1614,-10,1,-15,1,-5,1,12,1,-3,1,-10,1,4,1,37,1,7,1,3,1,-35,1,-33,1
1615,-10,1,-14,1,-4,1,12,1,-3,1,-9,1,3,1,38,1,6,1,3,1,-33,1,-31,1
1616,-9,1,-13,1,-4,1,11,1,-3,1,-9,1,1,1,44,1,6,1,2,1,-19,1,-4,1
1617,-9,1,-13,1,-4,1,11,1,-3,1,-9,1,1,1,38,1,6,1,2,1,-16,1,4,1
1618,-11,1,-12,1,-1,1,11,1,-5,1,-7,1,0,1,32,1,7,1,2,1,-29,1,-28,1
1619,-11,1,-10,1,1,1,10,1,-6,1,-5,1,0,1,30,1,6,1,2,1,-36,1,-49,1
1620,-11,1,-10,1,1,1,10,1,-6,1,-5,1,0,1,32,1,6,1,1,1,-36,1,-57,1
1621,-9,1,-8,1,1,1,8,1,-5,1,-4,1,-2,1,40,1,6,1,1,1,-21,1,-32,1
1622,-8,1,-9,1,-1,1,8,1,-4,1,-5,1,0,1,37,1,7,1,3,1,-14,1,-13,1
1623,-7,1,-10,1,-3,1,8,1,-2,1,-7,1,1,1,33,1,9,1,5,1,-22,1,-26,1
1624,-6,1,-10,1,-4,1,8,1,-1,1,-7,1,1,1,32,1,9,1,6,1,-26,1,-31,1
1625,-5,1,-9,1,-4,1,7,1,-1,1,-7,1,1,1,34,1,10,1,6,1,-23,1,-26,1
1626,-4,1,-9,1,-5,1,6,1,0,1,-7,1,0,1,41,1,10,1,6,1,-10,1,2,1
1627,-4,1,-9,1,-5,1,6,1,0,1,-7,1,1,1,38,1,10,1,7,1,-4,1,16,1
1628,-5,1,-10,1,-5,1,7,1,0,1,-8,1,2,1,30,1,11,1,7,1,-19,1,-14,1
1629,-6,1,-10,1,-4,1,8,1,-1,1,-7,1,1,1,29,1,11,1,8,1,-25,1,-34,1
1630,-7,1,-9,1,-2,1,8,1,-3,1,-6,1,0,1,32,1,10,1,8,1,-26,1,-41,1
1631,-6,1,-8,1,-2,1,7,1,-2,1,-5,1,-1,1,40,1,10,1,8,1,-12,1,-16,1
1632,-6,1,-8,1,-2,1,7,1,-2,1,-5,1,0,1,39,1,11,1,10,1,-4,1,5,1
1633,-5,1,-7,1,-2,1,6,1,-2,1,-5,1,1,1,32,1,13,1,11,1,-12,1,-7,1
1634,-4,1,-7,1,-3,1,5,1,-1,1,-5,1,0,1,30,1,13,1,12,1,-14,1,-11,1
1635,-3,1,-7,1,-4,1,5,1,0,1,-6,1,0,1,32,1,13,1,11,1,-10,1,-5,1
1636,-2,1,-5,1,-3,1,3,1,0,1,-4,1,-2,1,38,1,13,1,11,1,4,1,23,1
1637,-2,1,-5,1,-3,1,3,1,0,1,-4,1,-1,1,34,1,14,1,11,1,8,1,34,1
1638,-3,1,-5,1,-2,1,4,1,-1,1,-4,1,0,1,27,1,14,1,12,1,-5,1,3,1
1639,-3,1,-4,1,-1,1,3,1,-1,1,-3,1,0,1,27,1,14,1,12,1,-12,1,-16,1
1640,-3,1,-4,1,-1,1,3,1,-1,1,-3,1,0,1,30,1,14,1,11,1,-12,1,-22,1
1641,-2,1,-4,1,-2,1,3,1,0,1,-3,1,-1,1,38,1,14,1,11,1,1,1,4,1
1642,-2,1,-5,1,-3,1,3,1,0,1,-4,1,0,1,36,1,15,1,12,1,7,1,26,1
1643,-2,1,-6,1,-4,1,4,1,1,1,-5,1,1,1,32,1,16,1,14,1,0,1,12,1
1644,-1,1,-6,1,-5,1,3,1,2,1,-6,1,0,1,31,1,17,1,15,1,-3,1,8,1
1645,0,1,-5,1,-5,1,2,1,2,1,-5,1,-1,1,33,1,17,1,15,1,0,1,13,1
1646,1,1,-4,1,-5,1,1,1,3,1,-4,1,-3,1,41,1,17,1,15,1,15,1,42,1
1647,1,1,-4,1,-5,1,1,1,3,1,-4,1,-1,1,41,1,18,1,16,1,23,1,58,1
1648,0,1,-3,1,-3,1,1,1,1,1,-3,1,-1,1,36,1,18,1,17,1,10,1,29,1
1649,0,1,-2,1,-2,1,1,1,1,1,-2,1,-1,1,35,1,19,1,17,1,3,1,9,1
1650,0,1,-1,1,-1,1,0,1,0,1,-1,1,-1,1,38,1,19,1,17,1,3,1,3,1
1651,1,1,-1,1,-2,1,0,1,1,1,-1,1,-3,1,47,1,19,1,17,1,17,1,29,1
1652,2,1,-2,1,-4,1,0,1,3,1,-3,1,-4,1,46,1,20,1,19,1,24,1,50,1
1653,2,1,-3,1,-5,1,0,1,3,1,-4,1,-3,1,39,1,22,1,21,1,15,1,35,1
1654,3,1,-1,1,-4,1,-1,1,3,1,-2,1,-4,1,39,1,22,1,22,1,12,1,31,1
1655,4,1,0,1,-4,1,-2,1,4,1,-2,1,-4,1,43,1,23,1,23,1,16,1,37,1
1656,4,1,1,1,-3,1,-2,1,4,1,-1,1,-6,1,50,1,23,1,22,1,30,1,64,1
1657,4,1,0,1,-4,1,-2,1,4,1,-2,1,-4,1,48,1,24,1,23,1,35,1,76,1
1658,3,1,0,1,-3,1,-1,1,3,1,-1,1,-3,1,42,1,24,1,23,1,21,1,45,1
1659,5,1,0,1,-5,1,-2,1,5,1,-2,1,-3,1,44,1,25,1,24,1,14,1,24,1
1660,7,1,0,1,-7,1,-3,1,7,1,-3,1,-4,1,49,1,26,1,25,1,13,1,18,1
1661,8,1,1,1,-7,1,-4,1,8,1,-3,1,-6,1,59,1,26,1,25,1,28,1,45,1
1662,10,1,2,1,-8,1,-6,1,9,1,-3,1,-6,1,59,1,28,1,27,1,34,1,63,1
1663,10,1,2,1,-8,1,-6,1,9,1,-3,1,-5,1,53,1,30,1,29,1,26,1,47,1
1664,10,1,2,1,-8,1,-6,1,9,1,-3,1,-6,1,52,1,30,1,30,1,23,1,42,1
1665,10,1,3,1,-7,1,-6,1,9,1,-2,1,-6,1,54,1,31,1,31,1,26,1,47,1
1666,11,1,4,1,-7,1,-7,1,9,1,-1,1,-8,1,63,1,31,1,32,1,41,1,75,1
1667,13,1,5,1,-8,1,-9,1,11,1,-1,1,-8,1,60,1,32,1,34,1,47,1,87,1
1668,12,1,5,1,-7,1,-8,1,10,1,-1,1,-8,1,54,1,33,1,35,1,34,1,57,1
1669,13,1,7,1,-6,1,-10,1,10,1,1,1,-8,1,53,1,34,1,36,1,27,1,36,1
1670,14,1,8,1,-6,1,-11,1,10,1,1,1,-9,1,56,1,35,1,37,1,27,1,30,1
1671,15,1,9,1,-6,1,-12,1,11,1,2,1,-11,1,64,1,35,1,38,1,41,1,57,1
1672,17,1,10,1,-7,1,-13,1,12,1,2,1,-10,1,62,1,38,1,41,1,50,1,79,1
1673,17,1,10,1,-7,1,-13,1,12,1,2,1,-10,1,54,1,40,1,43,1,42,1,65,1
1674,19,1,11,1,-8,1,-15,1,14,1,2,1,-10,1,52,1,41,1,46,1,41,1,61,1
1675,20,1,13,1,-7,1,-16,1,14,1,3,1,-12,1,52,1,42,1,47,1,45,1,66,1
1676,23,1,16,1,-7,1,-19,1,15,1,5,1,-14,1,59,1,42,1,48,1,61,1,94,1
1677,24,1,16,1,-8,1,-20,1,16,1,4,1,-13,1,58,1,45,1,51,1,68,1,107,1
1678,23,1,16,1,-7,1,-19,1,15,1,5,1,-13,1,50,1,47,1,53,1,56,1,76,1
1679,23,1,17,1,-6,1,-20,1,15,1,6,1,-13,1,50,1,49,1,55,1,49,1,55,1
1680,25,1,19,1,-6,1,-22,1,16,1,7,1,-15,1,53,1,51,1,57,1,50,1,49,1
1681,28,1,22,1,-6,1,-25,1,17,1,8,1,-17,1,61,1,52,1,58,1,66,1,76,1
1682,31,1,24,1,-7,1,-27,1,19,1,9,1,-18,1,59,1,54,1,60,1,75,1,99,1
1683,34,1,25,1,-9,1,-29,1,22,1,8,1,-17,1,51,1,56,1,63,1,68,1,88,1
1684,36,1,27,1,-9,1,-31,1,23,1,9,1,-18,1,50,1,58,1,66,1,67,1,85,1
1685,38,1,29,1,-9,1,-33,1,24,1,10,1,-19,1,52,1,60,1,69,1,73,1,90,1
1686,40,1,31,1,-9,1,-35,1,25,1,11,1,-22,1,58,1,60,1,71,1,89,1,117,1
1687,41,1,32,1,-9,1,-36,1,25,1,12,1,-22,1,54,1,62,1,74,1,96,1,130,1
1688,41,1,32,1,-9,1,-36,1,25,1,12,1,-22,1,47,1,64,1,76,1,86,1,101,1
1689,43,1,34,1,-9,1,-38,1,26,1,13,1,-23,1,49,1,67,1,79,1,80,1,82,1
1690,46,1,37,1,-9,1,-41,1,28,1,14,1,-25,1,53,1,70,1,82,1,82,1,78,1
1691,49,1,39,1,-10,1,-44,1,30,1,15,1,-28,1,62,1,73,1,85,1,97,1,106,1
1692,53,1,42,1,-11,1,-47,1,32,1,16,1,-28,1,63,1,77,1,89,1,108,1,130,1
1693,56,1,43,1,-13,1,-49,1,35,1,15,1,-28,1,57,1,80,1,94,1,102,1,121,1
1694,59,1,46,1,-13,1,-52,1,36,1,17,1,-29,1,57,1,82,1,98,1,104,1,118,1
1695,62,1,49,1,-13,1,-55,1,38,1,18,1,-32,1,59,1,84,1,101,1,111,1,124,1
1696,65,1,53,1,-12,1,-59,1,39,1,21,1,-35,1,66,1,85,1,104,1,128,1,152,1
1697,66,1,55,1,-11,1,-60,1,39,1,22,1,-36,1,65,1,88,1,109,1,138,1,167,1
1698,67,1,56,1,-11,1,-61,1,39,1,23,1,-36,1,59,1,91,1,113,1,127,1,139,1
1699,70,1,59,1,-11,1,-64,1,41,1,24,1,-37,1,60,1,95,1,116,1,122,1,119,1
1700,73,1,61,1,-12,1,-67,1,43,1,25,1,-38,1,65,1,97,1,119,1,124,1,113,1
1701,77,1,64,1,-13,1,-70,1,45,1,26,1,-40,1,74,1,100,1,123,1,140,1,141,1
1702,79,1,66,1,-13,1,-72,1,46,1,27,1,-40,1,75,1,104,1,127,1,150,1,164,1
1703,80,1,68,1,-12,1,-74,1,46,1,28,1,-39,1,68,1,108,1,130,1,142,1,151,1
1704,82,1,71,1,-11,1,-76,1,47,1,30,1,-40,1,68,1,109,1,133,1,140,1,147,1
1705,83,1,75,1,-8,1,-79,1,46,1,34,1,-42,1,71,1,111,1,135,1,144,1,153,1
1706,84,1,77,1,-7,1,-80,1,46,1,35,1,-44,1,79,1,111,1,136,1,160,1,181,1
1707,84,1,79,1,-5,1,-81,1,45,1,37,1,-43,1,77,1,112,1,137,1,168,1,192,1
1708,81,1,79,1,-2,1,-80,1,42,1,39,1,-41,1,70,1,114,1,138,1,154,1,161,1
1709,81,1,80,1,-1,1,-80,1,41,1,40,1,-39,1,71,1,114,1,138,1,148,1,139,1
1710,79,1,81,1,2,1,-80,1,39,1,42,1,-39,1,76,1,114,1,138,1,146,1,131,1
1711,77,1,81,1,4,1,-79,1,37,1,43,1,-37,1,85,1,114,1,136,1,157,1,155,1
1712,75,1,81,1,6,1,-78,1,35,1,44,1,-34,1,84,1,114,1,136,1,161,1,174,1
1713,71,1,80,1,9,1,-75,1,31,1,45,1,-31,1,78,1,114,1,135,1,148,1,158,1
1714,67,1,78,1,11,1,-72,1,28,1,45,1,-28,1,76,1,112,1,132,1,140,1,150,1
1715,63,1,77,1,14,1,-70,1,25,1,46,1,-26,1,77,1,110,1,128,1,138,1,148,1
1716,59,1,76,1,17,1,-67,1,21,1,47,1,-25,1,83,1,106,1,123,1,145,1,167,1
1717,55,1,74,1,19,1,-64,1,18,1,47,1,-21,1,80,1,104,1,119,1,145,1,173,1
1718,50,1,70,1,20,1,-60,1,15,1,45,1,-17,1,72,1,101,1,114,1,124,1,135,1
1719,46,1,67,1,21,1,-56,1,13,1,44,1,-13,1,70,1,98,1,109,1,109,1,105,1
1720,41,1,63,1,22,1,-52,1,10,1,43,1,-11,1,71,1,93,1,102,1,99,1,89,1
1721,36,1,59,1,23,1,-47,1,7,1,41,1,-10,1,77,1,88,1,95,1,104,1,106,1
1722,31,1,54,1,23,1,-42,1,4,1,39,1,-7,1,74,1,84,1,89,1,104,1,118,1
1723,25,1,48,1,23,1,-36,1,1,1,36,1,-3,1,63,1,78,1,82,1,86,1,94,1
1724,21,1,43,1,22,1,-32,1,0,1,33,1,-1,1,60,1,72,1,75,1,72,1,79,1
1725,17,1,39,1,22,1,-28,1,-2,1,31,1,0,1,59,1,66,1,68,1,64,1,74,1
1726,14,1,36,1,22,1,-25,1,-4,1,29,1,0,1,61,1,58,1,60,1,68,1,93,1
1727,10,1,31,1,21,1,-20,1,-5,1,26,1,3,1,56,1,53,1,53,1,64,1,98,1
1728,6,1,26,1,20,1,-16,1,-7,1,23,1,6,1,44,1,49,1,48,1,43,1,60,1
1729,2,1,21,1,19,1,-11,1,-8,1,20,1,7,1,41,1,44,1,41,1,29,1,33,1
1730,0,1,17,1,17,1,-8,1,-8,1,17,1,8,1,41,1,38,1,34,1,22,1,19,1
1731,-2,1,14,1,16,1,-6,1,-9,1,15,1,8,1,45,1,34,1,28,1,29,1,38,1
1732,-4,1,10,1,14,1,-3,1,-9,1,12,1,8,1,41,1,30,1,23,1,31,1,54,1
1733,-6,1,6,1,12,1,0,1,-9,1,9,1,9,1,31,1,26,1,19,1,17,1,35,1
1734,-9,1,2,1,11,1,3,1,-10,1,6,1,8,1,26,1,22,1,15,1,8,1,25,1
1735,-10,1,0,1,10,1,5,1,-10,1,5,1,8,1,25,1,16,1,11,1,5,1,24,1
1736,-11,1,-2,1,9,1,6,1,-10,1,3,1,6,1,30,1,11,1,6,1,13,1,46,1
1737,-12,1,-5,1,7,1,8,1,-10,1,1,1,7,1,26,1,8,1,3,1,15,1,55,1
1738,-14,1,-8,1,6,1,11,1,-10,1,-1,1,9,1,15,1,5,1,0,1,-3,1,19,1
1739,-16,1,-10,1,6,1,13,1,-11,1,-2,1,9,1,12,1,1,1,-5,1,-15,1,-7,1
1740,-17,1,-11,1,6,1,14,1,-12,1,-3,1,8,1,12,1,0,1,-9,1,-19,1,-18,1
1741,-18,1,-12,1,6,1,15,1,-12,1,-3,1,7,1,17,1,-3,1,-11,1,-8,1,3,1
1742,-19,1,-13,1,6,1,16,1,-13,1,-4,1,8,1,14,1,-5,1,-12,1,-3,1,23,1
1743,-20,1,-15,1,5,1,17,1,-13,1,-5,1,9,1,4,1,-5,1,-12,1,-13,1,6,1
1744,-20,1,-17,1,3,1,18,1,-12,1,-7,1,8,1,2,1,-8,1,-12,1,-19,1,-1,1
1745,-20,1,-18,1,2,1,19,1,-11,1,-8,1,7,1,4,1,-10,1,-13,1,-19,1,0,1
1746,-19,1,-17,1,2,1,18,1,-11,1,-8,1,6,1,11,1,-12,1,-15,1,-8,1,24,1
1747,-20,1,-17,1,3,1,18,1,-12,1,-7,1,6,1,9,1,-13,1,-16,1,-5,1,34,1
1748,-23,1,-19,1,4,1,21,1,-14,1,-8,1,8,1,-1,1,-14,1,-18,1,-21,1,1,1
1749,-23,1,-21,1,2,1,22,1,-13,1,-10,1,8,1,-3,1,-15,1,-20,1,-29,1,-21,1
1750,-23,1,-22,1,1,1,22,1,-12,1,-11,1,7,1,-2,1,-16,1,-22,1,-29,1,-30,1
1751,-23,1,-23,1,0,1,23,1,-12,1,-12,1,5,1,2,1,-17,1,-24,1,-17,1,-7,1
1752,-23,1,-23,1,0,1,23,1,-12,1,-12,1,5,1,0,1,-17,1,-24,1,-9,1,13,1
1753,-23,1,-25,1,-2,1,24,1,-11,1,-14,1,7,1,-8,1,-17,1,-24,1,-20,1,-2,1
