TS,I,If,II,IIf,III,IIIf,aVR,aVRf,aVL,aVLf,aVF,aVFf,V1,V1f,V2,V2f,V3,V3f,V4,V4f,V5,V5f,V6,V6f
1,9,1,2,1,-7,1,-5,1,8,1,-2,1,-5,1,-4,1,-10,1,-7,1,-9,1,-101,1
2,9,1,2,1,-7,1,-5,1,8,1,-2,1,-5,1,-7,1,-9,1,-6,1,-9,1,-99,1
3,11,1,0,1,-11,1,-5,1,11,1,-5,1,-8,1,-10,1,-10,1,-8,1,-10,1,-102,1
4,11,1,0,1,-11,1,-5,1,11,1,-5,1,-6,1,-4,1,-9,1,-5,1,-9,1,-100,1
5,12,1,0,1,-12,1,-6,1,12,1,-6,1,-4,1,1,1,-10,1,-5,1,-9,1,-98,1
6,12,1,0,1,-12,1,-6,1,12,1,-6,1,-3,1,6,1,-10,1,-6,1,-12,1,-99,1
7,14,1,0,1,-14,1,-7,1,14,1,-7,1,-4,1,8,1,-11,1,-6,1,-11,1,-97,1
8,14,1,0,1,-14,1,-7,1,14,1,-7,1,-5,1,9,1,-11,1,-6,1,-11,1,-98,1
9,13,1,1,1,-12,1,-7,1,13,1,-5,1,-5,1,6,1,-9,1,-6,1,-11,1,-97,1
10,12,1,2,1,-10,1,-7,1,11,1,-4,1,-6,1,1,1,-9,1,-5,1,-10,1,-96,1
11,12,1,0,1,-12,1,-6,1,12,1,-6,1,-5,1,-2,1,-8,1,-4,1,-10,1,-97,1
12,15,1,0,1,-15,1,-7,1,15,1,-7,1,-5,1,-5,1,-8,1,-4,1,-10,1,-96,1
13,18,1,0,1,-18,1,-9,1,18,1,-9,1,-5,1,-4,1,-7,1,-3,1,-9,1,-96,1
14,20,1,0,1,-20,1,-10,1,20,1,-10,1,-4,1,1,1,-7,1,-1,1,-8,1,-94,1
15,21,1,2,1,-19,1,-11,1,20,1,-8,1,-2,1,9,1,-5,1,0,1,-7,1,-92,1
16,22,1,3,1,-19,1,-12,1,21,1,-8,1,-1,1,15,1,-3,1,1,1,-7,1,-91,1
17,20,1,7,1,-13,1,-13,1,17,1,-3,1,4,1,22,1,0,1,4,1,-4,1,-88,1
18,20,1,7,1,-13,1,-13,1,17,1,-3,1,4,1,23,1,0,1,5,1,-4,1,-87,1
19,21,1,7,1,-14,1,-14,1,18,1,-3,1,3,1,19,1,1,1,4,1,-4,1,-86,1
20,19,1,10,1,-9,1,-14,1,14,1,1,1,4,1,16,1,4,1,6,1,-1,1,-84,1
21,21,1,11,1,-10,1,-16,1,16,1,1,1,3,1,10,1,3,1,6,1,-1,1,-84,1
22,22,1,11,1,-11,1,-16,1,17,1,0,1,2,1,5,1,3,1,6,1,-1,1,-84,1
23,25,1,12,1,-13,1,-18,1,19,1,0,1,2,1,3,1,3,1,7,1,-1,1,-84,1
24,24,1,12,1,-12,1,-18,1,18,1,0,1,2,1,7,1,4,1,8,1,-1,1,-83,1
25,21,1,13,1,-8,1,-17,1,15,1,3,1,4,1,14,1,6,1,11,1,0,1,-81,1
26,22,1,18,1,-4,1,-20,1,13,1,7,1,6,1,20,1,7,1,13,1,3,1,-79,1
27,21,1,18,1,-3,1,-19,1,12,1,8,1,8,1,25,1,9,1,13,1,3,1,-78,1
28,22,1,19,1,-3,1,-20,1,13,1,8,1,7,1,25,1,8,1,13,1,3,1,-78,1
29,20,1,19,1,-1,1,-19,1,11,1,9,1,5,1,21,1,8,1,12,1,2,1,-79,1
30,23,1,18,1,-5,1,-20,1,14,1,7,1,2,1,15,1,9,1,11,1,1,1,-78,1
31,28,1,15,1,-13,1,-21,1,21,1,1,1,-1,1,8,1,9,1,11,1,4,1,-76,1
32,30,1,17,1,-13,1,-23,1,22,1,2,1,-6,1,1,1,6,1,9,1,2,1,-76,1
33,30,1,20,1,-10,1,-25,1,20,1,5,1,-6,1,1,1,7,1,9,1,2,1,-75,1
34,31,1,19,1,-12,1,-25,1,22,1,4,1,-4,1,5,1,6,1,10,1,4,1,-75,1
35,31,1,17,1,-14,1,-24,1,23,1,2,1,-6,1,11,1,6,1,11,1,3,1,-75,1
36,30,1,16,1,-14,1,-23,1,22,1,1,1,-7,1,16,1,6,1,12,1,2,1,-74,1
37,27,1,16,1,-11,1,-21,1,19,1,3,1,-7,1,18,1,4,1,12,1,3,1,-74,1
38,27,1,14,1,-13,1,-20,1,20,1,1,1,-9,1,15,1,0,1,8,1,1,1,-75,1
39,28,1,11,1,-17,1,-19,1,23,1,-3,1,-12,1,11,1,0,1,6,1,0,1,-77,1
40,28,1,10,1,-18,1,-19,1,23,1,-4,1,-14,1,3,1,-3,1,3,1,-1,1,-77,1
41,29,1,8,1,-21,1,-18,1,25,1,-6,1,-16,1,-5,1,-5,1,1,1,-1,1,-78,1
42,25,1,6,1,-19,1,-15,1,22,1,-6,1,-17,1,-9,1,-7,1,0,1,-2,1,-77,1
43,26,1,5,1,-21,1,-15,1,24,1,-8,1,-17,1,-11,1,-8,1,-1,1,-3,1,-78,1
44,26,1,4,1,-22,1,-15,1,24,1,-9,1,-16,1,-8,1,-9,1,-1,1,-4,1,-78,1
45,23,1,2,1,-21,1,-12,1,22,1,-9,1,-13,1,-3,1,-9,1,-1,1,-5,1,-79,1
46,23,1,0,1,-23,1,-11,1,23,1,-11,1,-11,1,2,1,-9,1,0,1,-4,1,-78,1
47,21,1,0,1,-21,1,-10,1,21,1,-10,1,-10,1,4,1,-11,1,-2,1,-7,1,-78,1
48,17,1,0,1,-17,1,-8,1,17,1,-8,1,-10,1,4,1,-11,1,-2,1,-8,1,-79,1
49,16,1,1,1,-15,1,-8,1,16,1,-7,1,-10,1,1,1,-11,1,-3,1,-8,1,-80,1
50,13,1,0,1,-13,1,-6,1,13,1,-6,1,-9,1,-2,1,-9,1,-4,1,-9,1,-79,1
51,9,1,-1,1,-10,1,-4,1,9,1,-5,1,-8,1,-6,1,-9,1,-4,1,-9,1,-82,1
52,12,1,-3,1,-15,1,-4,1,13,1,-9,1,-9,1,-10,1,-9,1,-5,1,-10,1,-84,1
53,14,1,-7,1,-21,1,-3,1,17,1,-14,1,-8,1,-10,1,-10,1,-5,1,-10,1,-84,1
54,11,1,-7,1,-18,1,-2,1,14,1,-12,1,-6,1,-7,1,-12,1,-5,1,-11,1,-84,1
55,11,1,-6,1,-17,1,-2,1,14,1,-11,1,-5,1,-3,1,-13,1,-6,1,-12,1,-85,1
56,14,1,-7,1,-21,1,-3,1,17,1,-14,1,-5,1,2,1,-14,1,-6,1,-14,1,-85,1
57,9,1,-7,1,-16,1,-1,1,12,1,-11,1,-2,1,7,1,-13,1,-5,1,-12,1,-83,1
58,2,1,-7,1,-9,1,2,1,5,1,-8,1,-1,1,9,1,-12,1,-5,1,-10,1,-80,1
59,4,1,-5,1,-9,1,0,1,6,1,-7,1,-5,1,4,1,-12,1,-5,1,-12,1,-82,1
60,6,1,-4,1,-10,1,-1,1,8,1,-7,1,-7,1,-2,1,-14,1,-8,1,-14,1,-85,1
61,7,1,-13,1,-20,1,3,1,13,1,-16,1,-6,1,-7,1,-11,1,-7,1,-13,1,-83,1
62,7,1,-12,1,-19,1,2,1,13,1,-15,1,-6,1,-11,1,-12,1,-8,1,-13,1,-84,1
63,7,1,-9,1,-16,1,1,1,11,1,-12,1,-7,1,-12,1,-13,1,-10,1,-14,1,-84,1
64,7,1,-9,1,-16,1,1,1,11,1,-12,1,-6,1,-9,1,-14,1,-9,1,-13,1,-82,1
65,10,1,-9,1,-19,1,0,1,14,1,-14,1,-5,1,-3,1,-14,1,-8,1,-12,1,-80,1
66,10,1,-9,1,-19,1,0,1,14,1,-14,1,-3,1,2,1,-15,1,-9,1,-14,1,-80,1
67,8,1,-4,1,-12,1,-2,1,10,1,-8,1,-1,1,7,1,-15,1,-8,1,-14,1,-80,1
68,8,1,-5,1,-13,1,-1,1,10,1,-9,1,-2,1,7,1,-14,1,-8,1,-13,1,-78,1
69,8,1,-8,1,-16,1,0,1,12,1,-12,1,-4,1,4,1,-13,1,-9,1,-13,1,-78,1
70,4,1,-8,1,-12,1,2,1,8,1,-10,1,-4,1,-1,1,-13,1,-10,1,-13,1,-79,1
71,3,1,-10,1,-13,1,3,1,8,1,-11,1,-6,1,-7,1,-13,1,-10,1,-14,1,-81,1
72,7,1,-11,1,-18,1,2,1,12,1,-14,1,-7,1,-11,1,-13,1,-10,1,-13,1,-80,1
73,7,1,-11,1,-18,1,2,1,12,1,-14,1,-7,1,-12,1,-13,1,-10,1,-14,1,-81,1
74,6,1,-11,1,-17,1,2,1,11,1,-14,1,-5,1,-8,1,-13,1,-9,1,-13,1,-80,1
75,6,1,-10,1,-16,1,2,1,11,1,-13,1,-4,1,-2,1,-14,1,-7,1,-12,1,-78,1
76,6,1,-10,1,-16,1,2,1,11,1,-13,1,-3,1,3,1,-13,1,-6,1,-12,1,-78,1
77,8,1,-9,1,-17,1,0,1,12,1,-13,1,-3,1,6,1,-13,1,-6,1,-13,1,-78,1
78,7,1,-7,1,-14,1,0,1,10,1,-10,1,-3,1,7,1,-13,1,-7,1,-14,1,-77,1
79,9,1,-7,1,-16,1,-1,1,12,1,-11,1,-4,1,3,1,-14,1,-8,1,-12,1,-77,1
80,9,1,-9,1,-18,1,0,1,13,1,-13,1,-5,1,-1,1,-13,1,-7,1,-11,1,-77,1
81,8,1,-6,1,-14,1,-1,1,11,1,-10,1,-6,1,-7,1,-13,1,-8,1,-11,1,-78,1
82,5,1,-6,1,-11,1,0,1,8,1,-8,1,-7,1,-11,1,-13,1,-9,1,-12,1,-77,1
83,3,1,-11,1,-14,1,4,1,8,1,-12,1,-6,1,-10,1,-11,1,-6,1,-10,1,-75,1
84,6,1,-11,1,-17,1,2,1,11,1,-14,1,-6,1,-8,1,-11,1,-5,1,-10,1,-75,1
85,8,1,-8,1,-16,1,0,1,12,1,-12,1,-5,1,-3,1,-13,1,-5,1,-10,1,-73,1
86,8,1,-8,1,-16,1,0,1,12,1,-12,1,-3,1,3,1,-13,1,-4,1,-11,1,-73,1
87,7,1,-9,1,-16,1,1,1,11,1,-12,1,-1,1,7,1,-12,1,-5,1,-12,1,-74,1
88,7,1,-9,1,-16,1,1,1,11,1,-12,1,-1,1,7,1,-12,1,-5,1,-11,1,-73,1
89,7,1,-9,1,-16,1,1,1,11,1,-12,1,-3,1,3,1,-13,1,-8,1,-12,1,-74,1
90,6,1,-9,1,-15,1,1,1,10,1,-12,1,-3,1,-1,1,-12,1,-7,1,-12,1,-73,1
91,5,1,-9,1,-14,1,2,1,9,1,-11,1,-5,1,-6,1,-11,1,-7,1,-10,1,-73,1
92,8,1,-5,1,-13,1,-1,1,10,1,-9,1,-7,1,-8,1,-8,1,-5,1,-9,1,-72,1
93,11,1,-1,1,-12,1,-5,1,11,1,-6,1,-7,1,2,1,0,1,1,1,-5,1,-68,1
94,16,1,2,1,-14,1,-9,1,15,1,-6,1,-7,1,17,1,9,1,10,1,1,1,-63,1
95,21,1,6,1,-15,1,-13,1,18,1,-4,1,-3,1,45,1,26,1,24,1,10,1,-57,1
96,26,1,9,1,-17,1,-17,1,22,1,-4,1,7,1,96,1,55,1,44,1,23,1,-50,1
97,36,1,14,1,-22,1,-25,1,29,1,-4,1,25,1,153,1,96,1,69,1,34,1,-46,1
98,43,1,18,1,-25,1,-30,1,34,1,-3,1,43,1,193,1,139,1,98,1,51,1,-37,1
99,48,1,28,1,-20,1,-38,1,34,1,4,1,54,1,209,1,171,1,127,1,78,1,-17,1
100,69,1,42,1,-27,1,-55,1,48,1,8,1,59,1,218,1,200,1,160,1,113,1,7,1
101,95,1,53,1,-42,1,-74,1,69,1,6,1,56,1,220,1,227,1,196,1,156,1,37,1
102,129,1,65,1,-64,1,-97,1,97,1,1,1,39,1,209,1,244,1,234,1,211,1,78,1
103,168,1,79,1,-89,1,-123,1,129,1,-5,1,11,1,168,1,233,1,266,1,270,1,125,1
104,197,1,100,1,-97,1,-148,1,147,1,2,1,-21,1,79,1,181,1,282,1,328,1,175,1
105,224,1,116,1,-108,1,-170,1,166,1,4,1,-45,1,8,1,122,1,290,1,383,1,225,1
106,250,1,137,1,-113,1,-193,1,182,1,12,1,-68,1,-57,1,65,1,290,1,425,1,267,1
107,258,1,157,1,-101,1,-207,1,180,1,28,1,-98,1,-126,1,0,1,267,1,436,1,289,1
108,261,1,171,1,-90,1,-216,1,176,1,41,1,-143,1,-198,1,-65,1,239,1,435,1,301,1
109,264,1,177,1,-87,1,-220,1,176,1,45,1,-196,1,-272,1,-125,1,210,1,424,1,304,1
110,255,1,162,1,-93,1,-208,1,174,1,35,1,-232,1,-325,1,-180,1,158,1,372,1,278,1
111,230,1,134,1,-96,1,-182,1,163,1,19,1,-254,1,-367,1,-241,1,78,1,285,1,229,1
112,190,1,100,1,-90,1,-145,1,140,1,5,1,-252,1,-397,1,-289,1,-5,1,191,1,171,1
113,123,1,50,1,-73,1,-86,1,98,1,-11,1,-221,1,-399,1,-328,1,-101,1,61,1,79,1
114,48,1,10,1,-38,1,-29,1,43,1,-14,1,-192,1,-393,1,-355,1,-185,1,-56,1,-7,1
115,-2,1,-11,1,-9,1,6,1,3,1,-10,1,-174,1,-384,1,-370,1,-234,1,-111,1,-48,1
116,-35,1,-34,1,1,1,34,1,-18,1,-17,1,-144,1,-350,1,-361,1,-254,1,-142,1,-76,1
117,-51,1,-51,1,0,1,51,1,-26,1,-26,1,-118,1,-302,1,-328,1,-245,1,-154,1,-98,1
118,-47,1,-53,1,-6,1,50,1,-21,1,-30,1,-103,1,-255,1,-288,1,-222,1,-148,1,-108,1
119,-37,1,-43,1,-6,1,40,1,-16,1,-25,1,-92,1,-212,1,-242,1,-190,1,-129,1,-101,1
120,-30,1,-28,1,2,1,29,1,-16,1,-13,1,-82,1,-179,1,-198,1,-157,1,-105,1,-91,1
121,-23,1,-18,1,5,1,20,1,-14,1,-7,1,-74,1,-156,1,-165,1,-130,1,-87,1,-83,1
122,-21,1,-14,1,7,1,17,1,-14,1,-4,1,-64,1,-135,1,-139,1,-109,1,-75,1,-82,1
123,-16,1,-13,1,3,1,14,1,-10,1,-5,1,-54,1,-113,1,-114,1,-89,1,-62,1,-75,1
124,-8,1,-21,1,-13,1,14,1,2,1,-17,1,-37,1,-79,1,-83,1,-61,1,-42,1,-64,1
125,-2,1,-16,1,-14,1,9,1,6,1,-15,1,-25,1,-51,1,-60,1,-40,1,-29,1,-57,1
126,2,1,-11,1,-13,1,4,1,7,1,-12,1,-18,1,-31,1,-45,1,-28,1,-24,1,-54,1
127,4,1,-11,1,-15,1,3,1,9,1,-13,1,-13,1,-17,1,-35,1,-21,1,-19,1,-51,1
128,6,1,-9,1,-15,1,1,1,10,1,-12,1,-10,1,-11,1,-29,1,-17,1,-17,1,-51,1
129,6,1,-6,1,-12,1,0,1,9,1,-9,1,-12,1,-11,1,-27,1,-17,1,-17,1,-52,1
130,7,1,-4,1,-11,1,-1,1,9,1,-7,1,-14,1,-15,1,-27,1,-18,1,-18,1,-52,1
131,8,1,-5,1,-13,1,-1,1,10,1,-9,1,-14,1,-18,1,-25,1,-17,1,-19,1,-54,1
132,6,1,-11,1,-17,1,2,1,11,1,-14,1,-9,1,-17,1,-20,1,-14,1,-16,1,-52,1
133,7,1,-9,1,-16,1,1,1,11,1,-12,1,-9,1,-15,1,-18,1,-13,1,-17,1,-54,1
134,7,1,-9,1,-16,1,1,1,11,1,-12,1,-6,1,-10,1,-16,1,-11,1,-17,1,-53,1
135,7,1,-7,1,-14,1,0,1,10,1,-10,1,-3,1,-2,1,-15,1,-10,1,-17,1,-54,1
136,5,1,-5,1,-10,1,0,1,7,1,-7,1,-1,1,6,1,-12,1,-8,1,-17,1,-53,1
137,3,1,-9,1,-12,1,3,1,7,1,-10,1,3,1,14,1,-9,1,-5,1,-13,1,-50,1
138,1,1,-8,1,-9,1,3,1,5,1,-8,1,4,1,15,1,-8,1,-5,1,-15,1,-50,1
139,4,1,-6,1,-10,1,1,1,7,1,-8,1,2,1,11,1,-9,1,-7,1,-17,1,-52,1
140,4,1,-7,1,-11,1,1,1,7,1,-9,1,1,1,6,1,-7,1,-6,1,-15,1,-52,1
141,4,1,-8,1,-12,1,2,1,8,1,-10,1,0,1,2,1,-5,1,-7,1,-14,1,-51,1
142,5,1,-8,1,-13,1,1,1,9,1,-10,1,-1,1,0,1,-5,1,-4,1,-14,1,-49,1
143,5,1,-8,1,-13,1,1,1,9,1,-10,1,-1,1,0,1,-5,1,-4,1,-13,1,-50,1
144,3,1,-9,1,-12,1,3,1,7,1,-10,1,0,1,2,1,-6,1,-5,1,-14,1,-50,1
145,6,1,-9,1,-15,1,1,1,10,1,-12,1,1,1,9,1,-5,1,-3,1,-14,1,-50,1
146,5,1,-8,1,-13,1,1,1,9,1,-10,1,2,1,16,1,-5,1,-3,1,-13,1,-48,1
147,4,1,-8,1,-12,1,2,1,8,1,-10,1,4,1,20,1,-4,1,-3,1,-13,1,-48,1
148,5,1,-6,1,-11,1,0,1,8,1,-8,1,3,1,20,1,-4,1,-3,1,-13,1,-49,1
149,4,1,-5,1,-9,1,0,1,6,1,-7,1,2,1,16,1,-4,1,-4,1,-13,1,-50,1
150,6,1,-7,1,-13,1,0,1,9,1,-10,1,0,1,11,1,-4,1,-4,1,-12,1,-50,1
151,6,1,-8,1,-14,1,1,1,10,1,-11,1,-1,1,7,1,-3,1,-4,1,-12,1,-50,1
152,6,1,-7,1,-13,1,0,1,9,1,-10,1,-1,1,3,1,-2,1,-3,1,-11,1,-49,1
153,4,1,-7,1,-11,1,1,1,7,1,-9,1,0,1,4,1,-1,1,-2,1,-10,1,-49,1
154,2,1,-10,1,-12,1,4,1,7,1,-11,1,1,1,9,1,-2,1,-1,1,-10,1,-49,1
155,3,1,-7,1,-10,1,2,1,6,1,-8,1,2,1,14,1,-3,1,-1,1,-10,1,-48,1
156,7,1,-6,1,-13,1,0,1,10,1,-9,1,4,1,19,1,-2,1,0,1,-9,1,-47,1
157,6,1,-7,1,-13,1,0,1,9,1,-10,1,6,1,24,1,-2,1,1,1,-9,1,-47,1
158,5,1,-5,1,-10,1,0,1,7,1,-7,1,4,1,23,1,-1,1,0,1,-10,1,-48,1
159,5,1,-4,1,-9,1,0,1,7,1,-6,1,3,1,19,1,-1,1,-2,1,-11,1,-49,1
160,6,1,-6,1,-12,1,0,1,9,1,-9,1,0,1,13,1,-3,1,-4,1,-11,1,-49,1
161,6,1,-7,1,-13,1,0,1,9,1,-10,1,-1,1,7,1,-2,1,-5,1,-11,1,-48,1
162,7,1,-6,1,-13,1,0,1,10,1,-9,1,-2,1,3,1,-1,1,-4,1,-10,1,-47,1
163,2,1,-6,1,-8,1,2,1,5,1,-7,1,0,1,5,1,0,1,-2,1,-8,1,-44,1
164,1,1,-8,1,-9,1,3,1,5,1,-8,1,1,1,9,1,1,1,0,1,-7,1,-44,1
165,7,1,-7,1,-14,1,0,1,10,1,-10,1,1,1,14,1,-1,1,-1,1,-8,1,-44,1
166,9,1,-6,1,-15,1,-1,1,12,1,-10,1,1,1,19,1,-3,1,-1,1,-9,1,-44,1
167,9,1,-4,1,-13,1,-2,1,11,1,-8,1,2,1,23,1,-2,1,0,1,-8,1,-43,1
168,7,1,-4,1,-11,1,-1,1,9,1,-7,1,3,1,23,1,-2,1,0,1,-9,1,-42,1
169,10,1,-3,1,-13,1,-3,1,11,1,-8,1,1,1,20,1,-2,1,-1,1,-8,1,-43,1
170,11,1,-3,1,-14,1,-4,1,12,1,-8,1,0,1,14,1,-1,1,-3,1,-9,1,-44,1
171,9,1,-5,1,-14,1,-2,1,11,1,-9,1,-2,1,8,1,-2,1,-4,1,-9,1,-44,1
172,10,1,-4,1,-14,1,-3,1,12,1,-9,1,-3,1,4,1,-1,1,-3,1,-7,1,-43,1
173,7,1,-4,1,-11,1,-1,1,9,1,-7,1,-3,1,5,1,-1,1,-2,1,-8,1,-41,1
174,5,1,-5,1,-10,1,0,1,7,1,-7,1,-1,1,9,1,0,1,0,1,-7,1,-40,1
175,5,1,-6,1,-11,1,0,1,8,1,-8,1,0,1,14,1,0,1,0,1,-6,1,-40,1
176,6,1,-6,1,-12,1,0,1,9,1,-9,1,1,1,20,1,1,1,1,1,-6,1,-39,1
177,2,1,-4,1,-6,1,1,1,4,1,-5,1,4,1,26,1,2,1,4,1,-4,1,-35,1
178,5,1,-3,1,-8,1,-1,1,6,1,-5,1,2,1,25,1,0,1,2,1,-6,1,-36,1
179,10,1,-3,1,-13,1,-3,1,11,1,-8,1,-1,1,19,1,-2,1,0,1,-8,1,-37,1
180,9,1,-4,1,-13,1,-2,1,11,1,-8,1,-3,1,14,1,-1,1,-1,1,-7,1,-38,1
181,8,1,-4,1,-12,1,-2,1,10,1,-8,1,-4,1,9,1,0,1,0,1,-6,1,-37,1
182,10,1,-4,1,-14,1,-3,1,12,1,-9,1,-4,1,4,1,0,1,0,1,-5,1,-36,1
183,12,1,-3,1,-15,1,-4,1,13,1,-9,1,-5,1,2,1,-2,1,-1,1,-8,1,-38,1
184,10,1,-5,1,-15,1,-2,1,12,1,-10,1,-5,1,6,1,-2,1,-1,1,-7,1,-37,1
185,6,1,-5,1,-11,1,0,1,8,1,-8,1,-3,1,13,1,0,1,2,1,-4,1,-34,1
186,7,1,-3,1,-10,1,-2,1,8,1,-6,1,-3,1,18,1,-1,1,2,1,-6,1,-34,1
187,7,1,-1,1,-8,1,-3,1,7,1,-4,1,-2,1,22,1,-1,1,3,1,-6,1,-34,1
188,6,1,1,1,-5,1,-3,1,6,1,-2,1,-3,1,22,1,-1,1,2,1,-5,1,-35,1
189,7,1,0,1,-7,1,-3,1,7,1,-3,1,-4,1,19,1,-1,1,1,1,-6,1,-35,1
190,9,1,0,1,-9,1,-4,1,9,1,-4,1,-6,1,13,1,-2,1,0,1,-7,1,-36,1
191,12,1,-5,1,-17,1,-3,1,14,1,-11,1,-7,1,8,1,-1,1,1,1,-4,1,-34,1
192,11,1,-2,1,-13,1,-4,1,12,1,-7,1,-7,1,3,1,0,1,1,1,-3,1,-36,1
193,8,1,-1,1,-9,1,-3,1,8,1,-5,1,-8,1,3,1,-1,1,1,1,-3,1,-35,1
194,6,1,0,1,-6,1,-3,1,6,1,-3,1,-7,1,6,1,-1,1,2,1,-4,1,-34,1
195,10,1,0,1,-10,1,-5,1,10,1,-5,1,-7,1,12,1,-1,1,2,1,-5,1,-35,1
196,14,1,1,1,-13,1,-7,1,14,1,-6,1,-7,1,17,1,-2,1,1,1,-5,1,-34,1
197,12,1,0,1,-12,1,-6,1,12,1,-6,1,-6,1,23,1,-1,1,3,1,-5,1,-32,1
198,15,1,-2,1,-17,1,-6,1,16,1,-9,1,-7,1,21,1,-1,1,1,1,-5,1,-32,1
199,18,1,-1,1,-19,1,-8,1,18,1,-10,1,-8,1,16,1,-3,1,-1,1,-8,1,-33,1
200,11,1,1,1,-10,1,-6,1,11,1,-4,1,-8,1,13,1,-2,1,0,1,-6,1,-32,1
201,9,1,1,1,-8,1,-5,1,9,1,-3,1,-8,1,8,1,-1,1,1,1,-4,1,-32,1
202,11,1,0,1,-11,1,-5,1,11,1,-5,1,-11,1,4,1,-2,1,0,1,-5,1,-31,1
203,12,1,1,1,-11,1,-6,1,12,1,-5,1,-12,1,2,1,-3,1,0,1,-6,1,-32,1
204,7,1,2,1,-5,1,-4,1,6,1,-1,1,-10,1,6,1,-3,1,1,1,-5,1,-30,1
205,5,1,1,1,-4,1,-3,1,5,1,-1,1,-7,1,12,1,-2,1,2,1,-4,1,-27,1
206,5,1,1,1,-4,1,-3,1,5,1,-1,1,-6,1,18,1,-1,1,5,1,-4,1,-26,1
207,9,1,2,1,-7,1,-5,1,8,1,-2,1,-7,1,21,1,-2,1,4,1,-5,1,-27,1
208,9,1,3,1,-6,1,-6,1,8,1,-1,1,-8,1,21,1,-2,1,3,1,-6,1,-29,1
209,10,1,3,1,-7,1,-6,1,9,1,-2,1,-9,1,18,1,-2,1,2,1,-6,1,-28,1
210,12,1,2,1,-10,1,-7,1,11,1,-4,1,-13,1,10,1,-2,1,0,1,-6,1,-29,1
211,12,1,1,1,-11,1,-6,1,12,1,-5,1,-14,1,4,1,-3,1,0,1,-6,1,-28,1
212,10,1,0,1,-10,1,-5,1,10,1,-5,1,-14,1,0,1,-1,1,1,1,-5,1,-27,1
213,10,1,2,1,-8,1,-6,1,9,1,-3,1,-15,1,0,1,-3,1,1,1,-6,1,-28,1
214,11,1,3,1,-8,1,-7,1,10,1,-2,1,-15,1,1,1,-5,1,0,1,-7,1,-29,1
215,8,1,3,1,-5,1,-5,1,7,1,-1,1,-14,1,9,1,-4,1,3,1,-4,1,-25,1
216,5,1,5,1,0,1,-5,1,3,1,3,1,-13,1,13,1,-5,1,3,1,-5,1,-24,1
217,6,1,5,1,-1,1,-5,1,4,1,2,1,-13,1,17,1,-5,1,3,1,-5,1,-23,1
218,9,1,6,1,-3,1,-7,1,6,1,2,1,-15,1,15,1,-6,1,2,1,-6,1,-24,1
219,7,1,6,1,-1,1,-6,1,4,1,3,1,-17,1,12,1,-7,1,1,1,-7,1,-25,1
220,7,1,6,1,-1,1,-6,1,4,1,3,1,-19,1,5,1,-6,1,0,1,-7,1,-25,1
221,10,1,6,1,-4,1,-8,1,7,1,1,1,-21,1,-1,1,-7,1,-1,1,-6,1,-23,1
222,10,1,9,1,-1,1,-9,1,6,1,4,1,-23,1,-6,1,-7,1,-1,1,-6,1,-24,1
223,8,1,8,1,0,1,-8,1,4,1,4,1,-24,1,-8,1,-9,1,-1,1,-7,1,-24,1
224,7,1,5,1,-2,1,-6,1,5,1,2,1,-25,1,-6,1,-9,1,-1,1,-7,1,-23,1
225,6,1,5,1,-1,1,-5,1,4,1,2,1,-25,1,-2,1,-11,1,-1,1,-7,1,-23,1
226,7,1,7,1,0,1,-7,1,4,1,4,1,-25,1,2,1,-13,1,-1,1,-8,1,-24,1
227,10,1,8,1,-2,1,-9,1,6,1,3,1,-25,1,4,1,-14,1,-1,1,-7,1,-25,1
228,10,1,10,1,0,1,-10,1,5,1,5,1,-26,1,4,1,-14,1,-1,1,-8,1,-23,1
229,11,1,13,1,2,1,-12,1,5,1,8,1,-27,1,0,1,-14,1,-2,1,-7,1,-21,1
230,10,1,11,1,1,1,-10,1,5,1,6,1,-30,1,-7,1,-14,1,-3,1,-6,1,-22,1
231,10,1,9,1,-1,1,-9,1,6,1,4,1,-34,1,-15,1,-17,1,-7,1,-8,1,-24,1
232,10,1,11,1,1,1,-10,1,5,1,6,1,-36,1,-21,1,-18,1,-8,1,-9,1,-25,1
233,7,1,11,1,4,1,-9,1,2,1,8,1,-38,1,-23,1,-19,1,-8,1,-8,1,-24,1
234,8,1,10,1,2,1,-9,1,3,1,6,1,-39,1,-23,1,-22,1,-9,1,-9,1,-25,1
235,6,1,9,1,3,1,-7,1,2,1,6,1,-39,1,-19,1,-23,1,-8,1,-9,1,-24,1
236,7,1,10,1,3,1,-8,1,2,1,7,1,-39,1,-15,1,-24,1,-7,1,-10,1,-23,1
237,8,1,13,1,5,1,-10,1,2,1,9,1,-40,1,-13,1,-27,1,-9,1,-10,1,-22,1
238,5,1,13,1,8,1,-9,1,-1,1,11,1,-40,1,-13,1,-28,1,-9,1,-10,1,-20,1
239,5,1,14,1,9,1,-9,1,-2,1,12,1,-43,1,-20,1,-30,1,-11,1,-11,1,-21,1
240,8,1,16,1,8,1,-12,1,0,1,12,1,-47,1,-29,1,-33,1,-13,1,-12,1,-23,1
241,7,1,17,1,10,1,-12,1,-1,1,14,1,-49,1,-36,1,-35,1,-15,1,-12,1,-22,1
242,7,1,12,1,5,1,-9,1,1,1,9,1,-51,1,-42,1,-36,1,-16,1,-12,1,-20,1
243,6,1,12,1,6,1,-9,1,0,1,9,1,-52,1,-46,1,-39,1,-18,1,-12,1,-21,1
244,5,1,13,1,8,1,-9,1,-1,1,11,1,-53,1,-46,1,-41,1,-18,1,-13,1,-20,1
245,6,1,15,1,9,1,-10,1,-1,1,12,1,-52,1,-42,1,-43,1,-19,1,-14,1,-20,1
246,3,1,15,1,12,1,-9,1,-4,1,14,1,-52,1,-39,1,-45,1,-20,1,-16,1,-20,1
247,3,1,14,1,11,1,-8,1,-4,1,13,1,-52,1,-38,1,-47,1,-21,1,-16,1,-18,1
248,3,1,14,1,11,1,-8,1,-4,1,13,1,-54,1,-40,1,-48,1,-22,1,-17,1,-19,1
249,3,1,14,1,11,1,-8,1,-4,1,13,1,-56,1,-44,1,-50,1,-24,1,-19,1,-19,1
250,2,1,13,1,11,1,-7,1,-4,1,12,1,-58,1,-51,1,-52,1,-25,1,-18,1,-20,1
251,1,1,14,1,13,1,-7,1,-6,1,14,1,-59,1,-58,1,-53,1,-26,1,-18,1,-20,1
252,0,1,12,1,12,1,-6,1,-6,1,12,1,-60,1,-62,1,-52,1,-26,1,-18,1,-19,1
253,2,1,15,1,13,1,-8,1,-5,1,14,1,-60,1,-64,1,-52,1,-27,1,-19,1,-21,1
254,1,1,18,1,17,1,-9,1,-8,1,18,1,-57,1,-59,1,-52,1,-26,1,-18,1,-20,1
255,0,1,14,1,14,1,-7,1,-7,1,14,1,-53,1,-50,1,-48,1,-21,1,-15,1,-16,1
256,-3,1,12,1,15,1,-4,1,-9,1,13,1,-49,1,-41,1,-45,1,-18,1,-14,1,-13,1
257,0,1,15,1,15,1,-7,1,-7,1,15,1,-47,1,-35,1,-44,1,-16,1,-13,1,-15,1
258,2,1,13,1,11,1,-7,1,-4,1,12,1,-43,1,-30,1,-41,1,-14,1,-11,1,-14,1
259,4,1,14,1,10,1,-9,1,-3,1,12,1,-42,1,-30,1,-38,1,-13,1,-10,1,-14,1
260,4,1,13,1,9,1,-8,1,-2,1,11,1,-41,1,-32,1,-34,1,-11,1,-9,1,-16,1
261,1,1,16,1,15,1,-8,1,-7,1,16,1,-40,1,-33,1,-30,1,-9,1,-7,1,-16,1
262,-1,1,14,1,15,1,-6,1,-8,1,14,1,-37,1,-33,1,-27,1,-6,1,-6,1,-15,1
263,2,1,11,1,9,1,-6,1,-3,1,10,1,-33,1,-29,1,-21,1,-2,1,-3,1,-13,1
264,8,1,8,1,0,1,-8,1,4,1,4,1,-31,1,-22,1,-19,1,0,1,-2,1,-13,1
265,9,1,10,1,1,1,-9,1,4,1,6,1,-27,1,-14,1,-18,1,1,1,-2,1,-15,1
266,8,1,9,1,1,1,-8,1,4,1,5,1,-25,1,-6,1,-15,1,3,1,-2,1,-16,1
267,6,1,9,1,3,1,-7,1,2,1,6,1,-21,1,1,1,-13,1,4,1,-2,1,-16,1
268,5,1,8,1,3,1,-6,1,1,1,6,1,-17,1,4,1,-11,1,5,1,0,1,-15,1
269,4,1,8,1,4,1,-6,1,0,1,6,1,-17,1,3,1,-10,1,5,1,0,1,-16,1
270,7,1,8,1,1,1,-7,1,3,1,5,1,-16,1,0,1,-9,1,5,1,0,1,-15,1
271,8,1,8,1,0,1,-8,1,4,1,4,1,-15,1,-4,1,-9,1,5,1,0,1,-17,1
272,7,1,7,1,0,1,-7,1,4,1,4,1,-15,1,-8,1,-9,1,3,1,0,1,-19,1
273,7,1,5,1,-2,1,-6,1,5,1,2,1,-14,1,-8,1,-9,1,3,1,-3,1,-19,1
274,7,1,4,1,-3,1,-5,1,5,1,1,1,-11,1,-3,1,-9,1,4,1,-1,1,-19,1
275,8,1,2,1,-6,1,-5,1,7,1,-2,1,-9,1,1,1,-9,1,4,1,-2,1,-18,1
276,9,1,4,1,-5,1,-6,1,7,1,0,1,-7,1,7,1,-9,1,5,1,-3,1,-18,1
277,7,1,4,1,-3,1,-5,1,5,1,1,1,-3,1,13,1,-7,1,5,1,-3,1,-19,1
278,4,1,0,1,-4,1,-2,1,4,1,-2,1,-2,1,15,1,-7,1,6,1,-1,1,-19,1
279,7,1,1,1,-6,1,-4,1,7,1,-2,1,-4,1,11,1,-9,1,3,1,-4,1,-20,1
280,8,1,1,1,-7,1,-4,1,8,1,-3,1,-6,1,3,1,-10,1,0,1,-5,1,-21,1
281,8,1,0,1,-8,1,-4,1,8,1,-4,1,-6,1,-1,1,-9,1,0,1,-5,1,-21,1
282,8,1,-1,1,-9,1,-3,1,8,1,-5,1,-7,1,-6,1,-8,1,-1,1,-5,1,-20,1
283,6,1,-3,1,-9,1,-1,1,7,1,-6,1,-6,1,-6,1,-9,1,-2,1,-6,1,-20,1
284,3,1,-5,1,-8,1,1,1,5,1,-6,1,-4,1,-1,1,-8,1,0,1,-5,1,-18,1
285,5,1,-3,1,-8,1,-1,1,6,1,-5,1,-3,1,4,1,-9,1,0,1,-5,1,-19,1
286,6,1,-3,1,-9,1,-1,1,7,1,-6,1,-1,1,8,1,-10,1,0,1,-6,1,-20,1
287,4,1,-1,1,-5,1,-1,1,4,1,-3,1,0,1,12,1,-10,1,0,1,-5,1,-18,1
288,6,1,0,1,-6,1,-3,1,6,1,-3,1,-1,1,11,1,-12,1,-1,1,-7,1,-20,1
289,4,1,-1,1,-5,1,-1,1,4,1,-3,1,-1,1,9,1,-11,1,-1,1,-7,1,-21,1
290,4,1,-3,1,-7,1,0,1,5,1,-5,1,-3,1,3,1,-11,1,-2,1,-7,1,-20,1
291,3,1,-4,1,-7,1,0,1,5,1,-5,1,-3,1,-2,1,-10,1,-2,1,-7,1,-21,1
292,2,1,-4,1,-6,1,1,1,4,1,-5,1,-5,1,-7,1,-10,1,-4,1,-7,1,-21,1
293,3,1,-6,1,-9,1,1,1,6,1,-7,1,-4,1,-8,1,-11,1,-4,1,-8,1,-21,1
294,4,1,-6,1,-10,1,1,1,7,1,-8,1,-2,1,-3,1,-11,1,-3,1,-6,1,-20,1
295,4,1,-6,1,-10,1,1,1,7,1,-8,1,-1,1,2,1,-11,1,-3,1,-7,1,-21,1
296,7,1,-4,1,-11,1,-1,1,9,1,-7,1,0,1,7,1,-12,1,-4,1,-8,1,-20,1
297,6,1,-2,1,-8,1,-2,1,7,1,-5,1,1,1,12,1,-11,1,-3,1,-7,1,-18,1
298,5,1,-2,1,-7,1,-1,1,6,1,-4,1,1,1,12,1,-12,1,-3,1,-7,1,-18,1
299,7,1,-3,1,-10,1,-2,1,8,1,-6,1,0,1,9,1,-11,1,-4,1,-6,1,-18,1
300,8,1,-2,1,-10,1,-3,1,9,1,-6,1,-1,1,3,1,-10,1,-5,1,-7,1,-21,1
301,4,1,-1,1,-5,1,-1,1,4,1,-3,1,-2,1,-1,1,-9,1,-4,1,-6,1,-20,1
302,2,1,-2,1,-4,1,0,1,3,1,-3,1,-3,1,-4,1,-9,1,-4,1,-7,1,-22,1
303,4,1,-3,1,-7,1,0,1,5,1,-5,1,-3,1,-4,1,-9,1,-4,1,-7,1,-20,1
304,4,1,-3,1,-7,1,0,1,5,1,-5,1,-2,1,-1,1,-9,1,-4,1,-7,1,-19,1
305,5,1,-2,1,-7,1,-1,1,6,1,-4,1,-2,1,3,1,-10,1,-4,1,-7,1,-18,1
306,1,1,1,1,0,1,-1,1,1,1,1,1,0,1,10,1,-9,1,-1,1,-5,1,-16,1
307,0,1,-3,1,-3,1,1,1,1,1,-3,1,4,1,17,1,-6,1,0,1,-4,1,-14,1
308,2,1,-3,1,-5,1,0,1,3,1,-4,1,2,1,16,1,-7,1,-1,1,-6,1,-16,1
309,5,1,0,1,-5,1,-2,1,5,1,-2,1,1,1,11,1,-9,1,-4,1,-7,1,-18,1
310,3,1,-1,1,-4,1,-1,1,3,1,-2,1,0,1,6,1,-8,1,-5,1,-7,1,-18,1
311,3,1,-2,1,-5,1,0,1,4,1,-3,1,-2,1,0,1,-9,1,-5,1,-7,1,-19,1
312,3,1,-3,1,-6,1,0,1,4,1,-4,1,-5,1,-4,1,-10,1,-6,1,-9,1,-21,1
313,5,1,-2,1,-7,1,-1,1,6,1,-4,1,-3,1,-3,1,-9,1,-4,1,-6,1,-18,1
314,4,1,-1,1,-5,1,-1,1,4,1,-3,1,-2,1,1,1,-8,1,-2,1,-6,1,-17,1
315,4,1,-1,1,-5,1,-1,1,4,1,-3,1,0,1,5,1,-8,1,-2,1,-6,1,-16,1
316,4,1,-1,1,-5,1,-1,1,4,1,-3,1,1,1,11,1,-9,1,0,1,-6,1,-15,1
317,4,1,-1,1,-5,1,-1,1,4,1,-3,1,1,1,15,1,-8,1,-1,1,-6,1,-15,1
318,5,1,-2,1,-7,1,-1,1,6,1,-4,1,1,1,17,1,-8,1,0,1,-6,1,-13,1
319,4,1,0,1,-4,1,-2,1,4,1,-2,1,0,1,14,1,-5,1,0,1,-5,1,-14,1
320,6,1,3,1,-3,1,-4,1,5,1,0,1,-2,1,8,1,-7,1,-3,1,-6,1,-17,1
321,8,1,2,1,-6,1,-5,1,7,1,-2,1,-4,1,2,1,-8,1,-5,1,-9,1,-18,1
322,5,1,4,1,-1,1,-4,1,3,1,2,1,-5,1,-2,1,-8,1,-5,1,-8,1,-18,1
323,2,1,2,1,0,1,-2,1,1,1,1,1,-6,1,-2,1,-7,1,-5,1,-7,1,-18,1
324,4,1,-6,1,-10,1,1,1,7,1,-8,1,-3,1,1,1,-5,1,-2,1,-6,1,-16,1
325,6,1,-4,1,-10,1,-1,1,8,1,-7,1,-3,1,6,1,-7,1,-2,1,-7,1,-16,1
326,5,1,-1,1,-6,1,-2,1,5,1,-3,1,-1,1,13,1,-8,1,-1,1,-8,1,-15,1
327,1,1,1,1,0,1,-1,1,1,1,1,1,0,1,17,1,-8,1,0,1,-6,1,-14,1
328,4,1,1,1,-3,1,-2,1,4,1,-1,1,-1,1,17,1,-7,1,-1,1,-7,1,-14,1
329,2,1,0,1,-2,1,-1,1,2,1,-1,1,-1,1,15,1,-6,1,0,1,-5,1,-13,1
330,2,1,0,1,-2,1,-1,1,2,1,-1,1,-2,1,9,1,-6,1,-2,1,-6,1,-14,1
331,4,1,-1,1,-5,1,-1,1,4,1,-3,1,-4,1,4,1,-6,1,-3,1,-6,1,-13,1
332,2,1,-1,1,-3,1,0,1,2,1,-2,1,-5,1,0,1,-7,1,-3,1,-6,1,-14,1
333,4,1,-1,1,-5,1,-1,1,4,1,-3,1,-5,1,-1,1,-6,1,-2,1,-6,1,-13,1
334,4,1,-1,1,-5,1,-1,1,4,1,-3,1,-5,1,2,1,-7,1,-2,1,-6,1,-13,1
335,4,1,-1,1,-5,1,-1,1,4,1,-3,1,-3,1,8,1,-6,1,0,1,-6,1,-12,1
336,6,1,0,1,-6,1,-3,1,6,1,-3,1,-2,1,14,1,-7,1,0,1,-7,1,-13,1
337,3,1,3,1,0,1,-3,1,2,1,2,1,-1,1,19,1,-6,1,1,1,-5,1,-11,1
338,3,1,5,1,2,1,-4,1,1,1,4,1,-2,1,18,1,-8,1,0,1,-6,1,-11,1
339,6,1,0,1,-6,1,-3,1,6,1,-3,1,-1,1,16,1,-6,1,0,1,-4,1,-10,1
340,6,1,-1,1,-7,1,-2,1,6,1,-4,1,-3,1,10,1,-5,1,0,1,-5,1,-11,1
341,3,1,0,1,-3,1,-1,1,3,1,-1,1,-5,1,3,1,-6,1,-3,1,-6,1,-13,1
342,3,1,0,1,-3,1,-1,1,3,1,-1,1,-6,1,-1,1,-7,1,-3,1,-7,1,-13,1
343,5,1,-2,1,-7,1,-1,1,6,1,-4,1,-7,1,-4,1,-7,1,-3,1,-7,1,-12,1
344,5,1,-1,1,-6,1,-2,1,5,1,-3,1,-7,1,-2,1,-8,1,-3,1,-7,1,-13,1
345,5,1,1,1,-4,1,-3,1,5,1,-1,1,-5,1,4,1,-9,1,-1,1,-6,1,-11,1
346,7,1,0,1,-7,1,-3,1,7,1,-3,1,-3,1,12,1,-6,1,0,1,-4,1,-9,1
347,6,1,2,1,-4,1,-4,1,5,1,-1,1,-1,1,17,1,-6,1,1,1,-4,1,-9,1
348,8,1,3,1,-5,1,-5,1,7,1,-1,1,-1,1,17,1,-6,1,1,1,-4,1,-8,1
349,10,1,3,1,-7,1,-6,1,9,1,-2,1,-2,1,14,1,-5,1,0,1,-5,1,-10,1
350,13,1,1,1,-12,1,-7,1,13,1,-5,1,-6,1,5,1,-8,1,-3,1,-7,1,-12,1
351,7,1,0,1,-7,1,-3,1,7,1,-3,1,-5,1,2,1,-7,1,-2,1,-5,1,-11,1
352,7,1,0,1,-7,1,-3,1,7,1,-3,1,-7,1,-3,1,-8,1,-3,1,-6,1,-11,1
353,3,1,-1,1,-4,1,-1,1,3,1,-2,1,-7,1,-4,1,-8,1,-3,1,-5,1,-11,1
354,2,1,0,1,-2,1,-1,1,2,1,-1,1,-5,1,0,1,-7,1,-1,1,-4,1,-9,1
355,6,1,-1,1,-7,1,-2,1,6,1,-4,1,-4,1,4,1,-8,1,0,1,-4,1,-7,1
356,2,1,-1,1,-3,1,0,1,2,1,-2,1,-2,1,10,1,-8,1,0,1,-3,1,-7,1
357,3,1,1,1,-2,1,-2,1,3,1,0,1,-1,1,16,1,-7,1,2,1,-4,1,-7,1
358,0,1,2,1,2,1,-1,1,-1,1,2,1,-1,1,17,1,-7,1,1,1,-3,1,-7,1
359,0,1,1,1,1,1,0,1,0,1,1,1,-2,1,12,1,-7,1,0,1,-4,1,-6,1
360,4,1,3,1,-1,1,-3,1,3,1,1,1,-3,1,7,1,-5,1,0,1,-3,1,-6,1
361,8,1,3,1,-5,1,-5,1,7,1,-1,1,-6,1,0,1,-6,1,-3,1,-6,1,-10,1
362,8,1,1,1,-7,1,-4,1,8,1,-3,1,-7,1,-4,1,-7,1,-4,1,-6,1,-10,1
363,5,1,0,1,-5,1,-2,1,5,1,-2,1,-7,1,-5,1,-7,1,-4,1,-5,1,-9,1
364,6,1,0,1,-6,1,-3,1,6,1,-3,1,-6,1,-3,1,-9,1,-3,1,-6,1,-11,1
365,5,1,-2,1,-7,1,-1,1,6,1,-4,1,-5,1,2,1,-9,1,-3,1,-6,1,-11,1
366,5,1,-2,1,-7,1,-1,1,6,1,-4,1,-3,1,9,1,-9,1,-1,1,-5,1,-9,1
367,5,1,-2,1,-7,1,-1,1,6,1,-4,1,0,1,14,1,-8,1,0,1,-4,1,-7,1
368,2,1,0,1,-2,1,-1,1,2,1,-1,1,0,1,16,1,-7,1,0,1,-4,1,-7,1
369,2,1,2,1,0,1,-2,1,1,1,1,1,-2,1,12,1,-6,1,-1,1,-5,1,-7,1
370,6,1,0,1,-6,1,-3,1,6,1,-3,1,-6,1,4,1,-9,1,-4,1,-6,1,-9,1
371,8,1,0,1,-8,1,-4,1,8,1,-4,1,-8,1,-3,1,-10,1,-5,1,-7,1,-9,1
372,6,1,1,1,-5,1,-3,1,6,1,-2,1,-8,1,-7,1,-10,1,-6,1,-6,1,-8,1
373,6,1,-2,1,-8,1,-2,1,7,1,-5,1,-8,1,-7,1,-10,1,-6,1,-6,1,-7,1
374,4,1,-4,1,-8,1,0,1,6,1,-6,1,-7,1,-3,1,-9,1,-4,1,-4,1,-6,1
375,4,1,-2,1,-6,1,-1,1,5,1,-4,1,-5,1,2,1,-9,1,-3,1,-4,1,-5,1
376,8,1,0,1,-8,1,-4,1,8,1,-4,1,-4,1,7,1,-11,1,-3,1,-5,1,-4,1
377,7,1,1,1,-6,1,-4,1,7,1,-2,1,-2,1,11,1,-10,1,-3,1,-5,1,-5,1
378,4,1,1,1,-3,1,-2,1,4,1,-1,1,-2,1,11,1,-10,1,-4,1,-6,1,-5,1
379,7,1,1,1,-6,1,-4,1,7,1,-2,1,-5,1,6,1,-12,1,-6,1,-7,1,-8,1
380,8,1,1,1,-7,1,-4,1,8,1,-3,1,-7,1,1,1,-13,1,-8,1,-7,1,-8,1
381,6,1,0,1,-6,1,-3,1,6,1,-3,1,-8,1,-4,1,-12,1,-6,1,-7,1,-6,1
382,-2,1,-2,1,0,1,2,1,-1,1,-1,1,-6,1,-7,1,-9,1,-4,1,-5,1,-4,1
383,0,1,-1,1,-1,1,0,1,0,1,-1,1,-6,1,-8,1,-9,1,-5,1,-5,1,-6,1
384,2,1,1,1,-1,1,-1,1,2,1,0,1,-8,1,-7,1,-11,1,-6,1,-7,1,-9,1
385,0,1,0,1,0,1,0,1,0,1,0,1,-6,1,-1,1,-11,1,-5,1,-7,1,-7,1
386,0,1,-3,1,-3,1,1,1,1,1,-3,1,-2,1,6,1,-8,1,-1,1,-5,1,-5,1
387,1,1,-3,1,-4,1,1,1,2,1,-3,1,-2,1,10,1,-10,1,-2,1,-5,1,-5,1
388,5,1,0,1,-5,1,-2,1,5,1,-2,1,-3,1,9,1,-12,1,-4,1,-7,1,-7,1
389,8,1,0,1,-8,1,-4,1,8,1,-4,1,-6,1,4,1,-12,1,-6,1,-9,1,-9,1
390,9,1,2,1,-7,1,-5,1,8,1,-2,1,-9,1,-3,1,-14,1,-8,1,-10,1,-11,1
391,5,1,2,1,-3,1,-3,1,4,1,0,1,-8,1,-7,1,-11,1,-7,1,-8,1,-9,1
392,0,1,-2,1,-2,1,1,1,1,1,-2,1,-7,1,-10,1,-10,1,-6,1,-6,1,-8,1
393,-1,1,-5,1,-4,1,3,1,1,1,-5,1,-6,1,-10,1,-10,1,-6,1,-6,1,-8,1
394,0,1,-8,1,-8,1,4,1,4,1,-8,1,-4,1,-5,1,-8,1,-3,1,-2,1,-5,1
395,0,1,-4,1,-4,1,2,1,2,1,-4,1,-5,1,0,1,-10,1,-2,1,-3,1,-5,1
396,0,1,-2,1,-2,1,1,1,1,1,-2,1,-3,1,4,1,-10,1,-1,1,-4,1,-5,1
397,0,1,-2,1,-2,1,1,1,1,1,-2,1,-1,1,9,1,-9,1,-1,1,-4,1,-4,1
398,2,1,0,1,-2,1,-1,1,2,1,-1,1,-3,1,8,1,-11,1,-2,1,-7,1,-5,1
399,0,1,-1,1,-1,1,0,1,0,1,-1,1,-4,1,5,1,-11,1,-2,1,-5,1,-6,1
400,3,1,0,1,-3,1,-1,1,3,1,-1,1,-5,1,1,1,-9,1,-3,1,-5,1,-5,1
401,6,1,-2,1,-8,1,-2,1,7,1,-5,1,-6,1,-4,1,-8,1,-3,1,-5,1,-5,1
402,6,1,-2,1,-8,1,-2,1,7,1,-5,1,-7,1,-9,1,-7,1,-4,1,-5,1,-7,1
403,7,1,2,1,-5,1,-4,1,6,1,-1,1,-7,1,-10,1,-8,1,-5,1,-6,1,-8,1
404,7,1,2,1,-5,1,-4,1,6,1,-1,1,-4,1,-3,1,-5,1,-3,1,-3,1,-3,1
405,10,1,3,1,-7,1,-6,1,9,1,-2,1,-2,1,5,1,-3,1,0,1,-1,1,-3,1
406,9,1,6,1,-3,1,-7,1,6,1,2,1,0,1,12,1,-3,1,2,1,0,1,-2,1
407,9,1,5,1,-4,1,-7,1,7,1,1,1,2,1,18,1,-1,1,4,1,0,1,-2,1
408,12,1,5,1,-7,1,-8,1,10,1,-1,1,3,1,21,1,0,1,5,1,0,1,-1,1
409,14,1,8,1,-6,1,-11,1,10,1,1,1,2,1,17,1,0,1,5,1,0,1,-3,1
410,14,1,9,1,-5,1,-11,1,10,1,2,1,1,1,11,1,0,1,5,1,0,1,-4,1
411,15,1,10,1,-5,1,-12,1,10,1,3,1,-1,1,4,1,-1,1,4,1,0,1,-5,1
412,19,1,11,1,-8,1,-15,1,14,1,2,1,1,1,2,1,3,1,6,1,1,1,-4,1
413,17,1,9,1,-8,1,-13,1,13,1,1,1,2,1,2,1,4,1,9,1,4,1,-1,1
414,16,1,11,1,-5,1,-13,1,11,1,3,1,2,1,3,1,2,1,8,1,3,1,-1,1
415,15,1,14,1,-1,1,-14,1,8,1,7,1,3,1,10,1,5,1,11,1,4,1,0,1
416,12,1,14,1,2,1,-13,1,5,1,8,1,4,1,18,1,6,1,14,1,5,1,2,1
417,13,1,15,1,2,1,-14,1,6,1,9,1,6,1,23,1,8,1,14,1,7,1,1,1
418,19,1,16,1,-3,1,-17,1,11,1,7,1,7,1,22,1,7,1,12,1,6,1,1,1
419,20,1,16,1,-4,1,-18,1,12,1,6,1,5,1,20,1,7,1,12,1,5,1,0,1
420,23,1,16,1,-7,1,-19,1,15,1,5,1,2,1,13,1,7,1,11,1,6,1,1,1
421,23,1,16,1,-7,1,-19,1,15,1,5,1,-2,1,6,1,6,1,10,1,6,1,0,1
422,21,1,16,1,-5,1,-18,1,13,1,6,1,-5,1,1,1,7,1,12,1,7,1,3,1
423,15,1,16,1,1,1,-15,1,7,1,9,1,-5,1,0,1,8,1,13,1,9,1,6,1
424,17,1,17,1,0,1,-17,1,9,1,9,1,-5,1,1,1,6,1,12,1,9,1,5,1
425,22,1,16,1,-6,1,-19,1,14,1,5,1,-5,1,6,1,6,1,12,1,7,1,2,1
426,20,1,13,1,-7,1,-16,1,14,1,3,1,-6,1,12,1,6,1,13,1,8,1,3,1
427,20,1,14,1,-6,1,-17,1,13,1,4,1,-6,1,18,1,6,1,14,1,8,1,4,1
428,20,1,15,1,-5,1,-17,1,13,1,5,1,-8,1,17,1,4,1,12,1,8,1,4,1
429,20,1,13,1,-7,1,-16,1,14,1,3,1,-10,1,13,1,3,1,11,1,7,1,2,1
430,19,1,9,1,-10,1,-14,1,15,1,0,1,-13,1,5,1,0,1,7,1,5,1,1,1
431,17,1,6,1,-11,1,-11,1,14,1,-2,1,-16,1,-2,1,-3,1,3,1,4,1,0,1
432,18,1,7,1,-11,1,-12,1,15,1,-2,1,-18,1,-8,1,-4,1,2,1,4,1,-2,1
433,18,1,4,1,-14,1,-11,1,16,1,-5,1,-20,1,-12,1,-7,1,0,1,2,1,-1,1
434,15,1,2,1,-13,1,-8,1,14,1,-5,1,-18,1,-10,1,-9,1,0,1,0,1,-2,1
435,15,1,0,1,-15,1,-7,1,15,1,-7,1,-16,1,-6,1,-9,1,0,1,0,1,-2,1
436,15,1,0,1,-15,1,-7,1,15,1,-7,1,-13,1,0,1,-10,1,1,1,0,1,-3,1
437,15,1,0,1,-15,1,-7,1,15,1,-7,1,-12,1,4,1,-11,1,0,1,-3,1,-4,1
438,13,1,0,1,-13,1,-6,1,13,1,-6,1,-11,1,4,1,-13,1,-2,1,-4,1,-6,1
439,8,1,0,1,-8,1,-4,1,8,1,-4,1,-11,1,1,1,-12,1,-2,1,-3,1,-5,1
440,6,1,-3,1,-9,1,-1,1,7,1,-6,1,-9,1,-1,1,-10,1,-1,1,-2,1,-5,1
441,5,1,-5,1,-10,1,0,1,7,1,-7,1,-10,1,-7,1,-10,1,-3,1,-5,1,-8,1
442,3,1,-5,1,-8,1,1,1,5,1,-6,1,-9,1,-9,1,-8,1,-2,1,-5,1,-9,1
443,3,1,-6,1,-9,1,1,1,6,1,-7,1,-7,1,-10,1,-9,1,-3,1,-4,1,-8,1
444,1,1,-6,1,-7,1,2,1,4,1,-6,1,-6,1,-7,1,-9,1,-2,1,-4,1,-8,1
445,-1,1,-7,1,-6,1,4,1,2,1,-7,1,-5,1,-2,1,-12,1,-3,1,-6,1,-9,1
446,-1,1,-9,1,-8,1,5,1,3,1,-9,1,-2,1,4,1,-11,1,-2,1,-5,1,-8,1
447,0,1,-7,1,-7,1,3,1,3,1,-7,1,-3,1,6,1,-14,1,-4,1,-8,1,-11,1
448,0,1,-8,1,-8,1,4,1,4,1,-8,1,-3,1,6,1,-15,1,-5,1,-9,1,-11,1
449,-1,1,-10,1,-9,1,5,1,4,1,-10,1,-4,1,4,1,-15,1,-5,1,-10,1,-11,1
450,0,1,-10,1,-10,1,5,1,5,1,-10,1,-6,1,-2,1,-15,1,-6,1,-9,1,-12,1
451,1,1,-8,1,-9,1,3,1,5,1,-8,1,-8,1,-9,1,-15,1,-8,1,-10,1,-15,1
452,0,1,-8,1,-8,1,4,1,4,1,-8,1,-10,1,-14,1,-15,1,-9,1,-11,1,-15,1
453,-3,1,-6,1,-3,1,4,1,0,1,-5,1,-9,1,-14,1,-14,1,-8,1,-11,1,-14,1
454,-1,1,-6,1,-5,1,3,1,2,1,-6,1,-8,1,-11,1,-15,1,-7,1,-10,1,-15,1
455,1,1,-12,1,-13,1,5,1,7,1,-12,1,-5,1,-4,1,-14,1,-5,1,-8,1,-12,1
456,0,1,-12,1,-12,1,6,1,6,1,-12,1,-3,1,2,1,-13,1,-4,1,-9,1,-12,1
457,-1,1,-13,1,-12,1,7,1,5,1,-13,1,-1,1,7,1,-11,1,-3,1,-8,1,-11,1
458,-2,1,-12,1,-10,1,7,1,4,1,-11,1,-1,1,7,1,-12,1,-3,1,-8,1,-11,1
459,-1,1,-8,1,-7,1,4,1,3,1,-8,1,-3,1,2,1,-14,1,-5,1,-10,1,-12,1
460,1,1,-7,1,-8,1,3,1,4,1,-7,1,-4,1,-3,1,-15,1,-7,1,-11,1,-12,1
461,1,1,-9,1,-10,1,4,1,5,1,-9,1,-7,1,-9,1,-15,1,-9,1,-12,1,-15,1
462,0,1,-9,1,-9,1,4,1,4,1,-9,1,-7,1,-12,1,-14,1,-8,1,-10,1,-14,1
463,0,1,-9,1,-9,1,4,1,4,1,-9,1,-7,1,-12,1,-15,1,-7,1,-10,1,-15,1
464,0,1,-8,1,-8,1,4,1,4,1,-8,1,-7,1,-10,1,-15,1,-7,1,-11,1,-15,1
465,0,1,-9,1,-9,1,4,1,4,1,-9,1,-4,1,-4,1,-14,1,-5,1,-10,1,-12,1
466,2,1,-10,1,-12,1,4,1,7,1,-11,1,-3,1,1,1,-15,1,-4,1,-11,1,-11,1
467,3,1,-9,1,-12,1,3,1,7,1,-10,1,-3,1,5,1,-15,1,-6,1,-12,1,-12,1
468,1,1,-10,1,-11,1,4,1,6,1,-10,1,-2,1,6,1,-15,1,-6,1,-12,1,-14,1
469,0,1,-10,1,-10,1,5,1,5,1,-10,1,-2,1,3,1,-12,1,-6,1,-10,1,-13,1
470,0,1,-12,1,-12,1,6,1,6,1,-12,1,-4,1,-2,1,-13,1,-8,1,-10,1,-13,1
471,1,1,-12,1,-13,1,5,1,7,1,-12,1,-5,1,-7,1,-12,1,-7,1,-11,1,-13,1
472,0,1,-12,1,-12,1,6,1,6,1,-12,1,-5,1,-12,1,-13,1,-8,1,-10,1,-14,1
473,-2,1,-10,1,-8,1,6,1,3,1,-9,1,-5,1,-13,1,-13,1,-8,1,-10,1,-13,1
474,-4,1,-10,1,-6,1,7,1,1,1,-8,1,-3,1,-7,1,-12,1,-6,1,-9,1,-13,1
475,-2,1,-11,1,-9,1,6,1,3,1,-10,1,-4,1,-3,1,-13,1,-6,1,-11,1,-14,1
476,1,1,-11,1,-12,1,5,1,6,1,-11,1,-3,1,2,1,-15,1,-6,1,-11,1,-13,1
477,2,1,-11,1,-13,1,4,1,7,1,-12,1,-2,1,5,1,-15,1,-6,1,-11,1,-13,1
478,5,1,-11,1,-16,1,3,1,10,1,-13,1,-4,1,4,1,-16,1,-7,1,-14,1,-14,1
479,4,1,-11,1,-15,1,3,1,9,1,-13,1,-3,1,2,1,-16,1,-8,1,-14,1,-14,1
480,1,1,-12,1,-13,1,5,1,7,1,-12,1,-4,1,-3,1,-16,1,-9,1,-13,1,-13,1
481,-3,1,-13,1,-10,1,8,1,3,1,-12,1,-5,1,-9,1,-15,1,-10,1,-14,1,-13,1
482,-7,1,-13,1,-6,1,10,1,-1,1,-10,1,-5,1,-12,1,-13,1,-8,1,-11,1,-11,1
483,-6,1,-9,1,-3,1,7,1,-2,1,-6,1,-5,1,-9,1,-9,1,-3,1,-8,1,-9,1
484,-2,1,-3,1,-1,1,2,1,-1,1,-2,1,-2,1,5,1,0,1,3,1,-3,1,-6,1
485,3,1,-1,1,-4,1,-1,1,3,1,-2,1,-2,1,21,1,9,1,10,1,1,1,-1,1
486,8,1,3,1,-5,1,-5,1,7,1,-1,1,0,1,48,1,23,1,25,1,10,1,4,1
487,20,1,9,1,-11,1,-14,1,16,1,-1,1,9,1,94,1,50,1,42,1,20,1,9,1
488,30,1,14,1,-16,1,-22,1,23,1,-1,1,25,1,149,1,91,1,67,1,34,1,14,1
489,34,1,20,1,-14,1,-27,1,24,1,3,1,42,1,187,1,132,1,93,1,47,1,20,1
490,43,1,27,1,-16,1,-35,1,30,1,6,1,52,1,199,1,163,1,118,1,67,1,31,1
491,62,1,36,1,-26,1,-49,1,44,1,5,1,57,1,208,1,188,1,146,1,97,1,52,1
492,84,1,48,1,-36,1,-66,1,60,1,6,1,58,1,210,1,214,1,178,1,135,1,78,1
493,118,1,62,1,-56,1,-90,1,87,1,3,1,42,1,202,1,232,1,216,1,185,1,115,1
494,155,1,74,1,-81,1,-114,1,118,1,-3,1,16,1,168,1,223,1,247,1,240,1,158,1
495,191,1,96,1,-95,1,-143,1,143,1,1,1,-17,1,81,1,172,1,262,1,296,1,207,1
496,222,1,114,1,-108,1,-168,1,165,1,3,1,-43,1,6,1,112,1,268,1,346,1,251,1
497,246,1,131,1,-115,1,-188,1,181,1,8,1,-69,1,-62,1,57,1,269,1,389,1,293,1
498,254,1,150,1,-104,1,-202,1,179,1,23,1,-102,1,-136,1,-5,1,250,1,406,1,318,1
499,260,1,165,1,-95,1,-212,1,178,1,35,1,-149,1,-214,1,-73,1,221,1,408,1,331,1
500,269,1,174,1,-95,1,-221,1,182,1,40,1,-207,1,-296,1,-136,1,195,1,402,1,337,1
501,267,1,160,1,-107,1,-213,1,187,1,27,1,-249,1,-352,1,-193,1,147,1,361,1,318,1
502,241,1,130,1,-111,1,-185,1,176,1,10,1,-272,1,-393,1,-256,1,71,1,282,1,272,1
503,207,1,94,1,-113,1,-150,1,160,1,-9,1,-268,1,-417,1,-301,1,-5,1,196,1,220,1
504,148,1,41,1,-107,1,-94,1,128,1,-33,1,-240,1,-418,1,-339,1,-93,1,83,1,142,1
505,70,1,-4,1,-74,1,-33,1,72,1,-39,1,-210,1,-410,1,-366,1,-179,1,-36,1,53,1
506,12,1,-28,1,-40,1,8,1,26,1,-34,1,-182,1,-400,1,-381,1,-232,1,-103,1,5,1
507,-19,1,-47,1,-28,1,33,1,4,1,-38,1,-151,1,-364,1,-374,1,-257,1,-139,1,-26,1
508,-40,1,-64,1,-24,1,52,1,-8,1,-44,1,-121,1,-312,1,-338,1,-248,1,-152,1,-50,1
509,-43,1,-65,1,-22,1,54,1,-11,1,-44,1,-104,1,-262,1,-292,1,-223,1,-146,1,-60,1
510,-36,1,-55,1,-19,1,45,1,-9,1,-37,1,-92,1,-221,1,-246,1,-193,1,-128,1,-53,1
511,-34,1,-43,1,-9,1,38,1,-13,1,-26,1,-84,1,-191,1,-205,1,-160,1,-107,1,-44,1
512,-31,1,-35,1,-4,1,33,1,-14,1,-20,1,-75,1,-166,1,-172,1,-134,1,-90,1,-38,1
513,-30,1,-33,1,-3,1,31,1,-14,1,-18,1,-64,1,-142,1,-144,1,-110,1,-77,1,-34,1
514,-24,1,-28,1,-4,1,26,1,-10,1,-16,1,-53,1,-117,1,-121,1,-90,1,-65,1,-30,1
515,-15,1,-24,1,-9,1,19,1,-3,1,-17,1,-39,1,-83,1,-92,1,-65,1,-49,1,-24,1
516,-8,1,-19,1,-11,1,13,1,1,1,-15,1,-24,1,-48,1,-64,1,-40,1,-31,1,-15,1
517,-4,1,-16,1,-12,1,10,1,4,1,-14,1,-15,1,-26,1,-45,1,-25,1,-22,1,-12,1
518,-3,1,-14,1,-11,1,8,1,4,1,-13,1,-13,1,-17,1,-36,1,-20,1,-20,1,-11,1
519,-2,1,-14,1,-12,1,8,1,5,1,-13,1,-12,1,-15,1,-33,1,-18,1,-19,1,-11,1
520,0,1,-11,1,-11,1,5,1,5,1,-11,1,-14,1,-18,1,-33,1,-19,1,-20,1,-13,1
521,1,1,-9,1,-10,1,4,1,5,1,-9,1,-16,1,-23,1,-30,1,-19,1,-21,1,-15,1
522,-4,1,-8,1,-4,1,6,1,0,1,-6,1,-13,1,-22,1,-25,1,-17,1,-20,1,-14,1
523,-1,1,-10,1,-9,1,5,1,4,1,-10,1,-10,1,-19,1,-23,1,-14,1,-19,1,-14,1
524,0,1,-13,1,-13,1,6,1,6,1,-13,1,-7,1,-13,1,-21,1,-12,1,-19,1,-15,1
525,-2,1,-11,1,-9,1,6,1,3,1,-10,1,-4,1,-5,1,-20,1,-9,1,-19,1,-16,1
526,-2,1,-11,1,-9,1,6,1,3,1,-10,1,-1,1,3,1,-18,1,-7,1,-18,1,-15,1
527,-1,1,-9,1,-8,1,5,1,3,1,-9,1,0,1,10,1,-15,1,-6,1,-17,1,-15,1
528,-1,1,-11,1,-10,1,6,1,4,1,-11,1,1,1,14,1,-13,1,-5,1,-17,1,-14,1
529,-1,1,-11,1,-10,1,6,1,4,1,-11,1,0,1,11,1,-11,1,-6,1,-18,1,-15,1
530,-1,1,-10,1,-9,1,5,1,4,1,-10,1,-1,1,6,1,-11,1,-8,1,-17,1,-15,1
531,0,1,-11,1,-11,1,5,1,5,1,-11,1,-1,1,1,1,-10,1,-7,1,-18,1,-16,1
532,1,1,-11,1,-12,1,5,1,6,1,-11,1,-3,1,-2,1,-11,1,-8,1,-19,1,-17,1
533,0,1,-9,1,-9,1,4,1,4,1,-9,1,-2,1,-2,1,-9,1,-7,1,-17,1,-15,1
534,-2,1,-13,1,-11,1,7,1,4,1,-12,1,0,1,2,1,-7,1,-5,1,-15,1,-13,1
535,-3,1,-11,1,-8,1,7,1,2,1,-10,1,3,1,9,1,-5,1,-2,1,-13,1,-12,1
536,-5,1,-12,1,-7,1,8,1,1,1,-10,1,5,1,17,1,-6,1,-1,1,-13,1,-11,1
537,-2,1,-10,1,-8,1,6,1,3,1,-9,1,4,1,20,1,-6,1,-1,1,-13,1,-11,1
538,1,1,-9,1,-10,1,4,1,5,1,-9,1,3,1,22,1,-6,1,-2,1,-14,1,-12,1
539,2,1,-10,1,-12,1,4,1,7,1,-11,1,3,1,19,1,-6,1,-3,1,-14,1,-13,1
540,2,1,-9,1,-11,1,3,1,6,1,-10,1,1,1,13,1,-7,1,-5,1,-15,1,-14,1
541,-2,1,-9,1,-7,1,5,1,2,1,-8,1,1,1,9,1,-5,1,-4,1,-14,1,-14,1
542,0,1,-9,1,-9,1,4,1,4,1,-9,1,0,1,4,1,-5,1,-5,1,-14,1,-15,1
543,0,1,-9,1,-9,1,4,1,4,1,-9,1,-1,1,4,1,-6,1,-4,1,-14,1,-15,1
544,1,1,-10,1,-11,1,4,1,6,1,-10,1,0,1,5,1,-6,1,-5,1,-14,1,-16,1
545,3,1,-10,1,-13,1,3,1,8,1,-11,1,0,1,10,1,-7,1,-4,1,-16,1,-15,1
546,-5,1,-12,1,-7,1,8,1,1,1,-10,1,6,1,19,1,-3,1,0,1,-11,1,-11,1
547,-1,1,-10,1,-9,1,5,1,4,1,-10,1,6,1,25,1,-2,1,1,1,-11,1,-12,1
548,-2,1,-9,1,-7,1,5,1,2,1,-8,1,6,1,25,1,-2,1,1,1,-12,1,-12,1
549,-4,1,-9,1,-5,1,6,1,0,1,-7,1,4,1,23,1,-1,1,1,1,-11,1,-12,1
550,-2,1,-10,1,-8,1,6,1,3,1,-9,1,2,1,17,1,-2,1,0,1,-11,1,-13,1
551,-5,1,-10,1,-5,1,7,1,0,1,-8,1,2,1,11,1,-2,1,0,1,-10,1,-13,1
552,-3,1,-10,1,-7,1,6,1,2,1,-9,1,1,1,8,1,-2,1,0,1,-10,1,-12,1
553,-3,1,-9,1,-6,1,6,1,1,1,-8,1,1,1,5,1,-2,1,-1,1,-11,1,-14,1
554,-3,1,-10,1,-7,1,6,1,2,1,-9,1,1,1,8,1,-3,1,0,1,-11,1,-14,1
555,-2,1,-10,1,-8,1,6,1,3,1,-9,1,3,1,15,1,-2,1,1,1,-10,1,-11,1
556,0,1,-10,1,-10,1,5,1,5,1,-10,1,4,1,20,1,-2,1,3,1,-10,1,-11,1
557,2,1,-10,1,-12,1,4,1,7,1,-11,1,4,1,24,1,-2,1,1,1,-11,1,-11,1
558,1,1,-9,1,-10,1,4,1,5,1,-9,1,4,1,25,1,-2,1,1,1,-10,1,-11,1
559,0,1,-9,1,-9,1,4,1,4,1,-9,1,3,1,22,1,-2,1,1,1,-10,1,-12,1
560,1,1,-10,1,-11,1,4,1,6,1,-10,1,1,1,16,1,-3,1,0,1,-11,1,-13,1
561,1,1,-12,1,-13,1,5,1,7,1,-12,1,-1,1,10,1,-3,1,-1,1,-11,1,-14,1
562,1,1,-11,1,-12,1,5,1,6,1,-11,1,-2,1,5,1,-3,1,-1,1,-11,1,-15,1
563,-3,1,-12,1,-9,1,7,1,3,1,-11,1,-2,1,4,1,-2,1,0,1,-11,1,-15,1
564,-4,1,-9,1,-5,1,6,1,0,1,-7,1,-2,1,7,1,-2,1,1,1,-10,1,-13,1
565,-3,1,-9,1,-6,1,6,1,1,1,-8,1,-1,1,13,1,-2,1,2,1,-10,1,-13,1
566,-2,1,-11,1,-9,1,6,1,3,1,-10,1,1,1,19,1,-1,1,4,1,-9,1,-11,1
567,0,1,-4,1,-4,1,2,1,2,1,-4,1,3,1,25,1,-1,1,6,1,-8,1,-10,1
568,3,1,-2,1,-5,1,0,1,4,1,-3,1,2,1,25,1,-2,1,4,1,-9,1,-11,1
569,5,1,-4,1,-9,1,0,1,7,1,-6,1,1,1,21,1,-3,1,2,1,-10,1,-11,1
570,2,1,-5,1,-7,1,1,1,4,1,-6,1,0,1,16,1,-1,1,3,1,-9,1,-12,1
571,-1,1,-7,1,-6,1,4,1,2,1,-7,1,-1,1,11,1,-1,1,4,1,-8,1,-11,1
572,-1,1,-9,1,-8,1,5,1,3,1,-9,1,-2,1,7,1,-1,1,4,1,-8,1,-11,1
573,-2,1,-7,1,-5,1,4,1,1,1,-6,1,-2,1,5,1,-1,1,3,1,-8,1,-11,1
574,1,1,-6,1,-7,1,2,1,4,1,-6,1,-3,1,8,1,-2,1,3,1,-9,1,-11,1
575,2,1,-6,1,-8,1,2,1,5,1,-7,1,-2,1,12,1,-2,1,4,1,-9,1,-11,1
576,2,1,-6,1,-8,1,2,1,5,1,-7,1,0,1,18,1,-2,1,4,1,-8,1,-12,1
577,2,1,-5,1,-7,1,1,1,4,1,-6,1,0,1,24,1,-2,1,5,1,-7,1,-10,1
578,3,1,-3,1,-6,1,0,1,4,1,-4,1,0,1,24,1,-2,1,5,1,-7,1,-10,1
579,3,1,-4,1,-7,1,0,1,5,1,-5,1,-1,1,20,1,-2,1,5,1,-7,1,-9,1
580,4,1,-6,1,-10,1,1,1,7,1,-8,1,-3,1,14,1,-3,1,3,1,-8,1,-10,1
581,3,1,-7,1,-10,1,2,1,6,1,-8,1,-5,1,8,1,-3,1,1,1,-9,1,-12,1
582,6,1,-1,1,-7,1,-2,1,6,1,-4,1,-7,1,3,1,-5,1,0,1,-10,1,-14,1
583,3,1,0,1,-3,1,-1,1,3,1,-1,1,-7,1,2,1,-5,1,0,1,-9,1,-13,1
584,2,1,-5,1,-7,1,1,1,4,1,-6,1,-6,1,6,1,-4,1,3,1,-8,1,-10,1
585,1,1,-9,1,-10,1,4,1,5,1,-9,1,-2,1,14,1,1,1,7,1,-4,1,-5,1
586,1,1,-7,1,-8,1,3,1,4,1,-7,1,-2,1,19,1,0,1,7,1,-4,1,-4,1
587,1,1,-5,1,-6,1,2,1,3,1,-5,1,-2,1,24,1,-1,1,7,1,-5,1,-5,1
588,3,1,-4,1,-7,1,0,1,5,1,-5,1,-2,1,24,1,-1,1,6,1,-6,1,-6,1
589,4,1,-4,1,-8,1,0,1,6,1,-6,1,-4,1,20,1,-2,1,5,1,-7,1,-8,1
590,3,1,-4,1,-7,1,0,1,5,1,-5,1,-6,1,14,1,-2,1,4,1,-7,1,-9,1
591,7,1,-4,1,-11,1,-1,1,9,1,-7,1,-8,1,8,1,-3,1,2,1,-8,1,-11,1
592,5,1,-4,1,-9,1,0,1,7,1,-6,1,-9,1,4,1,-2,1,2,1,-7,1,-12,1
593,3,1,-4,1,-7,1,0,1,5,1,-5,1,-8,1,3,1,-2,1,2,1,-7,1,-11,1
594,0,1,-4,1,-4,1,2,1,2,1,-4,1,-7,1,6,1,-2,1,5,1,-5,1,-8,1
595,1,1,-5,1,-6,1,2,1,3,1,-5,1,-7,1,12,1,-2,1,6,1,-6,1,-8,1
596,2,1,-4,1,-6,1,1,1,4,1,-5,1,-7,1,17,1,-3,1,5,1,-8,1,-9,1
597,4,1,-2,1,-6,1,-1,1,5,1,-4,1,-6,1,21,1,-3,1,6,1,-8,1,-9,1
598,3,1,-3,1,-6,1,0,1,4,1,-4,1,-6,1,21,1,-3,1,5,1,-7,1,-8,1
599,4,1,-3,1,-7,1,0,1,5,1,-5,1,-8,1,17,1,-4,1,4,1,-9,1,-7,1
600,2,1,-2,1,-4,1,0,1,3,1,-3,1,-9,1,12,1,-3,1,4,1,-8,1,-7,1
601,2,1,0,1,-2,1,-1,1,2,1,-1,1,-11,1,6,1,-3,1,2,1,-8,1,-7,1
602,3,1,2,1,-1,1,-2,1,2,1,1,1,-13,1,0,1,-4,1,1,1,-8,1,-9,1
603,0,1,1,1,1,1,0,1,0,1,1,1,-13,1,-1,1,-4,1,2,1,-8,1,-8,1
604,-1,1,-1,1,0,1,1,1,-1,1,-1,1,-12,1,2,1,-3,1,5,1,-7,1,-6,1
605,3,1,0,1,-3,1,-1,1,3,1,-1,1,-12,1,7,1,-3,1,5,1,-6,1,-6,1
606,5,1,0,1,-5,1,-2,1,5,1,-2,1,-13,1,11,1,-5,1,5,1,-7,1,-6,1
607,3,1,3,1,0,1,-3,1,2,1,2,1,-12,1,18,1,-4,1,7,1,-7,1,-5,1
608,5,1,3,1,-2,1,-4,1,4,1,1,1,-13,1,17,1,-6,1,5,1,-7,1,-5,1
609,7,1,3,1,-4,1,-5,1,6,1,0,1,-14,1,13,1,-6,1,4,1,-8,1,-7,1
610,9,1,2,1,-7,1,-5,1,8,1,-2,1,-17,1,5,1,-7,1,3,1,-9,1,-8,1
611,9,1,2,1,-7,1,-5,1,8,1,-2,1,-18,1,-1,1,-7,1,2,1,-8,1,-7,1
612,9,1,2,1,-7,1,-5,1,8,1,-2,1,-21,1,-6,1,-8,1,1,1,-8,1,-8,1
613,10,1,2,1,-8,1,-6,1,9,1,-3,1,-23,1,-10,1,-10,1,0,1,-9,1,-8,1
614,3,1,1,1,-2,1,-2,1,3,1,0,1,-21,1,-5,1,-8,1,2,1,-8,1,-5,1
615,0,1,-1,1,-1,1,0,1,0,1,-1,1,-20,1,-1,1,-8,1,3,1,-7,1,-4,1
616,-2,1,0,1,2,1,1,1,-2,1,1,1,-18,1,6,1,-6,1,5,1,-5,1,-2,1
617,-2,1,4,1,6,1,-1,1,-4,1,5,1,-18,1,9,1,-8,1,5,1,-6,1,-2,1
618,2,1,10,1,8,1,-6,1,-3,1,9,1,-21,1,7,1,-12,1,2,1,-10,1,-4,1
619,1,1,8,1,7,1,-4,1,-3,1,8,1,-23,1,2,1,-12,1,0,1,-9,1,-4,1
620,-1,1,1,1,2,1,0,1,-1,1,1,1,-25,1,-3,1,-11,1,0,1,-8,1,-2,1
621,0,1,5,1,5,1,-2,1,-2,1,5,1,-27,1,-11,1,-12,1,-1,1,-9,1,-3,1
622,0,1,8,1,8,1,-4,1,-4,1,8,1,-30,1,-18,1,-15,1,-3,1,-11,1,-3,1
623,2,1,6,1,4,1,-4,1,-1,1,5,1,-32,1,-21,1,-18,1,-5,1,-11,1,-4,1
624,2,1,5,1,3,1,-3,1,0,1,4,1,-33,1,-19,1,-19,1,-5,1,-11,1,-3,1
625,4,1,3,1,-1,1,-3,1,3,1,1,1,-32,1,-16,1,-20,1,-5,1,-12,1,-3,1
626,3,1,3,1,0,1,-3,1,2,1,2,1,-32,1,-12,1,-22,1,-7,1,-13,1,-3,1
627,1,1,5,1,4,1,-3,1,-1,1,5,1,-32,1,-9,1,-23,1,-7,1,-13,1,-3,1
628,2,1,8,1,6,1,-5,1,-2,1,7,1,-34,1,-11,1,-26,1,-9,1,-14,1,-3,1
629,1,1,8,1,7,1,-4,1,-3,1,8,1,-36,1,-16,1,-28,1,-10,1,-14,1,-4,1
630,0,1,6,1,6,1,-3,1,-3,1,6,1,-38,1,-24,1,-28,1,-11,1,-15,1,-4,1
631,-4,1,5,1,9,1,0,1,-6,1,7,1,-41,1,-32,1,-29,1,-13,1,-15,1,-4,1
632,-2,1,5,1,7,1,-1,1,-4,1,6,1,-44,1,-39,1,-32,1,-14,1,-16,1,-4,1
633,0,1,9,1,9,1,-4,1,-4,1,9,1,-45,1,-42,1,-35,1,-16,1,-17,1,-4,1
634,0,1,8,1,8,1,-4,1,-4,1,8,1,-46,1,-42,1,-36,1,-16,1,-17,1,-3,1
635,-3,1,9,1,12,1,-3,1,-7,1,10,1,-45,1,-37,1,-37,1,-14,1,-15,1,-1,1
636,-4,1,9,1,13,1,-2,1,-8,1,11,1,-46,1,-34,1,-39,1,-15,1,-16,1,-1,1
637,-4,1,10,1,14,1,-3,1,-9,1,12,1,-47,1,-33,1,-41,1,-16,1,-17,1,0,1
638,-4,1,10,1,14,1,-3,1,-9,1,12,1,-47,1,-34,1,-43,1,-19,1,-18,1,0,1
639,-4,1,9,1,13,1,-2,1,-8,1,11,1,-48,1,-38,1,-43,1,-20,1,-18,1,0,1
640,-5,1,8,1,13,1,-1,1,-9,1,10,1,-50,1,-45,1,-44,1,-21,1,-18,1,0,1
641,-7,1,8,1,15,1,0,1,-11,1,11,1,-52,1,-53,1,-46,1,-24,1,-19,1,-1,1
642,-6,1,10,1,16,1,-2,1,-11,1,13,1,-54,1,-60,1,-48,1,-25,1,-20,1,-3,1
643,-5,1,8,1,13,1,-1,1,-9,1,10,1,-53,1,-59,1,-49,1,-25,1,-19,1,-1,1
644,-5,1,7,1,12,1,-1,1,-8,1,9,1,-52,1,-56,1,-48,1,-23,1,-18,1,0,1
645,-3,1,8,1,11,1,-2,1,-7,1,9,1,-50,1,-51,1,-48,1,-22,1,-18,1,2,1
646,-4,1,9,1,13,1,-2,1,-8,1,11,1,-47,1,-42,1,-45,1,-21,1,-18,1,2,1
647,-2,1,10,1,12,1,-4,1,-7,1,11,1,-44,1,-35,1,-42,1,-18,1,-17,1,3,1
648,-2,1,9,1,11,1,-3,1,-6,1,10,1,-43,1,-31,1,-39,1,-16,1,-16,1,3,1
649,0,1,9,1,9,1,-4,1,-4,1,9,1,-40,1,-30,1,-36,1,-16,1,-14,1,2,1
650,0,1,14,1,14,1,-7,1,-7,1,14,1,-40,1,-33,1,-33,1,-15,1,-13,1,1,1
651,0,1,12,1,12,1,-6,1,-6,1,12,1,-41,1,-37,1,-32,1,-15,1,-13,1,-1,1
652,0,1,6,1,6,1,-3,1,-3,1,6,1,-38,1,-36,1,-26,1,-11,1,-11,1,0,1
653,2,1,6,1,4,1,-4,1,-1,1,5,1,-34,1,-32,1,-23,1,-8,1,-8,1,0,1
654,0,1,6,1,6,1,-3,1,-3,1,6,1,-29,1,-24,1,-18,1,-3,1,-5,1,2,1
655,0,1,5,1,5,1,-2,1,-2,1,5,1,-26,1,-16,1,-15,1,0,1,-4,1,3,1
656,2,1,4,1,2,1,-3,1,0,1,3,1,-21,1,-7,1,-13,1,1,1,-4,1,3,1
657,6,1,5,1,-1,1,-5,1,4,1,2,1,-19,1,0,1,-13,1,2,1,-5,1,2,1
658,8,1,4,1,-4,1,-6,1,6,1,0,1,-17,1,2,1,-11,1,1,1,-4,1,1,1
659,7,1,6,1,-1,1,-6,1,4,1,3,1,-15,1,2,1,-9,1,2,1,-4,1,0,1
660,9,1,5,1,-4,1,-7,1,7,1,1,1,-15,1,-1,1,-9,1,2,1,-4,1,0,1
661,8,1,3,1,-5,1,-5,1,7,1,-1,1,-13,1,-4,1,-7,1,2,1,-2,1,-1,1
662,7,1,2,1,-5,1,-4,1,6,1,-1,1,-13,1,-8,1,-6,1,2,1,-2,1,-1,1
663,6,1,0,1,-6,1,-3,1,6,1,-3,1,-12,1,-8,1,-7,1,1,1,-2,1,-2,1
664,2,1,-1,1,-3,1,0,1,2,1,-2,1,-9,1,-5,1,-7,1,1,1,-3,1,-2,1
665,3,1,-2,1,-5,1,0,1,4,1,-3,1,-9,1,0,1,-8,1,1,1,-5,1,-3,1
666,5,1,-1,1,-6,1,-2,1,5,1,-3,1,-6,1,7,1,-8,1,1,1,-5,1,-4,1
667,5,1,-1,1,-6,1,-2,1,5,1,-3,1,-4,1,11,1,-8,1,3,1,-6,1,-5,1
668,5,1,-1,1,-6,1,-2,1,5,1,-3,1,-4,1,11,1,-9,1,0,1,-7,1,-5,1
669,6,1,-2,1,-8,1,-2,1,7,1,-5,1,-5,1,8,1,-10,1,-1,1,-9,1,-5,1
670,5,1,-2,1,-7,1,-1,1,6,1,-4,1,-6,1,3,1,-9,1,-2,1,-8,1,-5,1
671,4,1,-2,1,-6,1,-1,1,5,1,-4,1,-6,1,-2,1,-9,1,-2,1,-7,1,-6,1
672,3,1,-3,1,-6,1,0,1,4,1,-4,1,-6,1,-6,1,-9,1,-4,1,-8,1,-6,1
673,4,1,-4,1,-8,1,0,1,6,1,-6,1,-7,1,-8,1,-9,1,-3,1,-8,1,-7,1
674,4,1,-5,1,-9,1,0,1,6,1,-7,1,-6,1,-6,1,-10,1,-3,1,-7,1,-6,1
675,2,1,-8,1,-10,1,3,1,6,1,-9,1,-4,1,0,1,-10,1,-2,1,-7,1,-4,1
676,4,1,-8,1,-12,1,2,1,8,1,-10,1,-1,1,7,1,-10,1,-1,1,-7,1,-3,1
677,5,1,-6,1,-11,1,0,1,8,1,-8,1,-1,1,12,1,-10,1,0,1,-6,1,-3,1
678,5,1,-5,1,-10,1,0,1,7,1,-7,1,-1,1,11,1,-11,1,-1,1,-7,1,-5,1
679,3,1,-4,1,-7,1,0,1,5,1,-5,1,-1,1,8,1,-11,1,-2,1,-8,1,-5,1
680,2,1,-6,1,-8,1,2,1,5,1,-7,1,-3,1,2,1,-12,1,-3,1,-9,1,-6,1
681,2,1,-8,1,-10,1,3,1,6,1,-9,1,-6,1,-3,1,-12,1,-4,1,-9,1,-7,1
682,3,1,-7,1,-10,1,2,1,6,1,-8,1,-6,1,-8,1,-11,1,-5,1,-8,1,-7,1
683,4,1,-6,1,-10,1,1,1,7,1,-8,1,-5,1,-9,1,-11,1,-4,1,-8,1,-6,1
684,5,1,-4,1,-9,1,0,1,7,1,-6,1,-5,1,-8,1,-13,1,-4,1,-9,1,-8,1
685,6,1,-4,1,-10,1,-1,1,8,1,-7,1,-3,1,-1,1,-13,1,-4,1,-9,1,-7,1
686,4,1,-6,1,-10,1,1,1,7,1,-8,1,-2,1,5,1,-12,1,-3,1,-8,1,-7,1
687,2,1,-6,1,-8,1,2,1,5,1,-7,1,-1,1,10,1,-12,1,-3,1,-9,1,-8,1
688,3,1,-7,1,-10,1,2,1,6,1,-8,1,-1,1,13,1,-12,1,-3,1,-10,1,-8,1
689,2,1,-4,1,-6,1,1,1,4,1,-5,1,-1,1,12,1,-10,1,-3,1,-9,1,-7,1
690,0,1,-4,1,-4,1,2,1,2,1,-4,1,-2,1,6,1,-11,1,-4,1,-10,1,-8,1
691,3,1,-5,1,-8,1,1,1,5,1,-6,1,-5,1,-2,1,-13,1,-7,1,-12,1,-12,1
692,6,1,-9,1,-15,1,1,1,10,1,-12,1,-5,1,-7,1,-13,1,-6,1,-12,1,-11,1
693,6,1,-6,1,-12,1,0,1,9,1,-9,1,-5,1,-7,1,-13,1,-6,1,-11,1,-10,1
694,4,1,-6,1,-10,1,1,1,7,1,-8,1,-4,1,-4,1,-12,1,-4,1,-10,1,-9,1
695,0,1,-9,1,-9,1,4,1,4,1,-9,1,-1,1,2,1,-11,1,-2,1,-10,1,-9,1
696,1,1,-7,1,-8,1,3,1,4,1,-7,1,0,1,7,1,-12,1,-2,1,-11,1,-10,1
697,1,1,-6,1,-7,1,2,1,4,1,-6,1,0,1,12,1,-12,1,-2,1,-10,1,-9,1
698,3,1,-4,1,-7,1,0,1,5,1,-5,1,1,1,14,1,-10,1,-2,1,-9,1,-8,1
699,1,1,-5,1,-6,1,2,1,3,1,-5,1,1,1,13,1,-9,1,-1,1,-8,1,-7,1
700,-1,1,-5,1,-4,1,3,1,1,1,-5,1,0,1,7,1,-8,1,-1,1,-8,1,-6,1
701,4,1,-6,1,-10,1,1,1,7,1,-8,1,-4,1,-1,1,-10,1,-4,1,-10,1,-8,1
702,0,1,-5,1,-5,1,2,1,2,1,-5,1,-5,1,-5,1,-11,1,-4,1,-10,1,-9,1
703,1,1,-5,1,-6,1,2,1,3,1,-5,1,-4,1,-6,1,-11,1,-4,1,-10,1,-10,1
704,0,1,-6,1,-6,1,3,1,3,1,-6,1,-3,1,-4,1,-11,1,-3,1,-11,1,-10,1
705,2,1,-5,1,-7,1,1,1,4,1,-6,1,-1,1,3,1,-9,1,0,1,-9,1,-9,1
706,2,1,-5,1,-7,1,1,1,4,1,-6,1,0,1,10,1,-9,1,0,1,-9,1,-7,1
707,3,1,-6,1,-9,1,1,1,6,1,-7,1,1,1,14,1,-10,1,0,1,-10,1,-7,1
708,6,1,-2,1,-8,1,-2,1,7,1,-5,1,1,1,15,1,-10,1,0,1,-10,1,-8,1
709,6,1,-3,1,-9,1,-1,1,7,1,-6,1,0,1,13,1,-9,1,-1,1,-9,1,-9,1
710,4,1,-4,1,-8,1,0,1,6,1,-6,1,0,1,7,1,-8,1,-2,1,-9,1,-9,1
711,2,1,-3,1,-5,1,0,1,3,1,-4,1,-2,1,2,1,-8,1,-3,1,-10,1,-10,1
712,3,1,-3,1,-6,1,0,1,4,1,-4,1,-4,1,-3,1,-10,1,-4,1,-12,1,-11,1
713,0,1,-3,1,-3,1,1,1,1,1,-3,1,-3,1,-2,1,-8,1,-3,1,-10,1,-10,1
714,-2,1,-3,1,-1,1,2,1,-1,1,-2,1,-1,1,1,1,-7,1,-2,1,-9,1,-9,1
715,2,1,-3,1,-5,1,0,1,3,1,-4,1,0,1,5,1,-9,1,-1,1,-10,1,-10,1
716,3,1,-3,1,-6,1,0,1,4,1,-4,1,0,1,11,1,-8,1,-1,1,-11,1,-10,1
717,-2,1,-4,1,-2,1,3,1,0,1,-3,1,1,1,16,1,-8,1,-1,1,-11,1,-9,1
718,1,1,-1,1,-2,1,0,1,1,1,-1,1,1,1,16,1,-9,1,-1,1,-12,1,-9,1
719,2,1,0,1,-2,1,-1,1,2,1,-1,1,-2,1,12,1,-9,1,-3,1,-14,1,-10,1
720,3,1,2,1,-1,1,-2,1,2,1,1,1,-4,1,7,1,-9,1,-4,1,-13,1,-10,1
721,2,1,-6,1,-8,1,2,1,5,1,-7,1,-2,1,3,1,-7,1,-3,1,-11,1,-10,1
722,2,1,-8,1,-10,1,3,1,6,1,-9,1,-3,1,0,1,-6,1,-3,1,-12,1,-10,1
723,2,1,-4,1,-6,1,1,1,4,1,-5,1,-4,1,-2,1,-7,1,-3,1,-12,1,-10,1
724,2,1,-2,1,-4,1,0,1,3,1,-3,1,-4,1,-1,1,-8,1,-2,1,-13,1,-9,1
725,3,1,-3,1,-6,1,0,1,4,1,-4,1,-2,1,4,1,-8,1,-2,1,-12,1,-9,1
726,6,1,-2,1,-8,1,-2,1,7,1,-5,1,-1,1,9,1,-8,1,-2,1,-12,1,-9,1
727,4,1,0,1,-4,1,-2,1,4,1,-2,1,0,1,15,1,-6,1,0,1,-10,1,-6,1
728,5,1,-2,1,-7,1,-1,1,6,1,-4,1,0,1,16,1,-7,1,0,1,-12,1,-6,1
729,5,1,-2,1,-7,1,-1,1,6,1,-4,1,0,1,13,1,-8,1,-2,1,-12,1,-8,1
730,4,1,-2,1,-6,1,-1,1,5,1,-4,1,-2,1,7,1,-9,1,-2,1,-13,1,-9,1
731,3,1,-1,1,-4,1,-1,1,3,1,-2,1,-4,1,0,1,-9,1,-3,1,-13,1,-11,1
732,3,1,-2,1,-5,1,0,1,4,1,-3,1,-7,1,-5,1,-9,1,-4,1,-13,1,-12,1
733,4,1,-1,1,-5,1,-1,1,4,1,-3,1,-5,1,-5,1,-8,1,-2,1,-11,1,-11,1
734,5,1,-3,1,-8,1,-1,1,6,1,-5,1,-3,1,-2,1,-7,1,-1,1,-10,1,-9,1
735,2,1,-5,1,-7,1,1,1,4,1,-6,1,-2,1,3,1,-7,1,0,1,-10,1,-9,1
736,7,1,-1,1,-8,1,-3,1,7,1,-4,1,-3,1,7,1,-9,1,-1,1,-11,1,-9,1
737,8,1,-1,1,-9,1,-3,1,8,1,-5,1,-2,1,13,1,-9,1,0,1,-11,1,-7,1
738,7,1,-2,1,-9,1,-2,1,8,1,-5,1,-1,1,14,1,-9,1,0,1,-10,1,-8,1
739,5,1,-2,1,-7,1,-1,1,6,1,-4,1,-1,1,11,1,-8,1,-1,1,-11,1,-8,1
740,3,1,0,1,-3,1,-1,1,3,1,-1,1,-3,1,6,1,-9,1,-3,1,-12,1,-9,1
741,4,1,0,1,-4,1,-2,1,4,1,-2,1,-6,1,-1,1,-12,1,-6,1,-13,1,-11,1
742,2,1,-4,1,-6,1,1,1,4,1,-5,1,-6,1,-5,1,-10,1,-4,1,-11,1,-10,1
743,1,1,-3,1,-4,1,1,1,2,1,-3,1,-6,1,-7,1,-11,1,-4,1,-11,1,-9,1
744,0,1,-2,1,-2,1,1,1,1,1,-2,1,-4,1,-3,1,-10,1,-2,1,-12,1,-11,1
745,2,1,-2,1,-4,1,0,1,3,1,-3,1,-2,1,1,1,-10,1,-2,1,-13,1,-9,1
746,3,1,-1,1,-4,1,-1,1,3,1,-2,1,-2,1,7,1,-11,1,-2,1,-12,1,-9,1
747,5,1,0,1,-5,1,-2,1,5,1,-2,1,-2,1,12,1,-11,1,-2,1,-12,1,-9,1
748,4,1,-1,1,-5,1,-1,1,4,1,-3,1,-2,1,12,1,-11,1,-2,1,-13,1,-10,1
749,4,1,0,1,-4,1,-2,1,4,1,-2,1,-3,1,9,1,-11,1,-3,1,-13,1,-10,1
750,7,1,1,1,-6,1,-4,1,7,1,-2,1,-5,1,4,1,-12,1,-5,1,-13,1,-13,1
751,4,1,0,1,-4,1,-2,1,4,1,-2,1,-5,1,-1,1,-11,1,-5,1,-12,1,-12,1
752,0,1,-2,1,-2,1,1,1,1,1,-2,1,-5,1,-5,1,-11,1,-4,1,-11,1,-11,1
753,1,1,0,1,-1,1,0,1,1,1,0,1,-5,1,-6,1,-11,1,-4,1,-11,1,-10,1
754,3,1,-1,1,-4,1,-1,1,3,1,-2,1,-4,1,-4,1,-12,1,-5,1,-11,1,-10,1
755,4,1,-2,1,-6,1,-1,1,5,1,-4,1,-3,1,1,1,-12,1,-3,1,-11,1,-10,1
756,4,1,-3,1,-7,1,0,1,5,1,-5,1,-1,1,6,1,-13,1,-3,1,-12,1,-11,1
757,4,1,-1,1,-5,1,-1,1,4,1,-3,1,0,1,10,1,-13,1,-2,1,-12,1,-11,1
758,3,1,-1,1,-4,1,-1,1,3,1,-2,1,-1,1,11,1,-13,1,-3,1,-11,1,-11,1
759,4,1,-3,1,-7,1,0,1,5,1,-5,1,-2,1,9,1,-12,1,-4,1,-12,1,-11,1
760,9,1,-2,1,-11,1,-3,1,10,1,-6,1,-4,1,3,1,-12,1,-5,1,-12,1,-11,1
761,9,1,-2,1,-11,1,-3,1,10,1,-6,1,-6,1,-2,1,-12,1,-6,1,-12,1,-12,1
762,6,1,-4,1,-10,1,-1,1,8,1,-7,1,-7,1,-8,1,-12,1,-6,1,-11,1,-12,1
763,6,1,-5,1,-11,1,0,1,8,1,-8,1,-8,1,-10,1,-13,1,-7,1,-12,1,-14,1
764,6,1,-7,1,-13,1,0,1,9,1,-10,1,-5,1,-7,1,-13,1,-6,1,-12,1,-13,1
765,2,1,-4,1,-6,1,1,1,4,1,-5,1,-3,1,-1,1,-12,1,-4,1,-12,1,-12,1
766,0,1,-1,1,-1,1,0,1,0,1,-1,1,-3,1,4,1,-13,1,-4,1,-13,1,-13,1
767,2,1,-1,1,-3,1,0,1,2,1,-2,1,-1,1,8,1,-13,1,-4,1,-11,1,-13,1
768,0,1,-3,1,-3,1,1,1,1,1,-3,1,0,1,9,1,-11,1,-2,1,-10,1,-11,1
769,-1,1,-4,1,-3,1,2,1,1,1,-4,1,-1,1,7,1,-12,1,-3,1,-10,1,-10,1
770,0,1,-3,1,-3,1,1,1,1,1,-3,1,-3,1,2,1,-12,1,-4,1,-11,1,-10,1
771,1,1,0,1,-1,1,0,1,1,1,0,1,-3,1,-3,1,-12,1,-4,1,-9,1,-11,1
772,0,1,-1,1,-1,1,0,1,0,1,-1,1,-4,1,-7,1,-11,1,-4,1,-9,1,-13,1
773,-1,1,-3,1,-2,1,2,1,0,1,-3,1,-4,1,-9,1,-12,1,-3,1,-10,1,-14,1
774,-1,1,-2,1,-1,1,1,1,0,1,-2,1,-3,1,-6,1,-12,1,-4,1,-9,1,-12,1
775,3,1,-2,1,-5,1,0,1,4,1,-3,1,-3,1,-2,1,-13,1,-3,1,-10,1,-13,1
776,7,1,-2,1,-9,1,-2,1,8,1,-5,1,-1,1,3,1,-13,1,-2,1,-9,1,-12,1
777,6,1,-3,1,-9,1,-1,1,7,1,-6,1,-1,1,7,1,-13,1,-2,1,-9,1,-11,1
778,6,1,-4,1,-10,1,-1,1,8,1,-7,1,-1,1,9,1,-13,1,-2,1,-9,1,-12,1
779,5,1,-2,1,-7,1,-1,1,6,1,-4,1,-1,1,7,1,-12,1,-2,1,-9,1,-12,1
780,6,1,-2,1,-8,1,-2,1,7,1,-5,1,-4,1,1,1,-14,1,-5,1,-10,1,-14,1
781,4,1,-1,1,-5,1,-1,1,4,1,-3,1,-7,1,-5,1,-13,1,-5,1,-11,1,-14,1
782,3,1,0,1,-3,1,-1,1,3,1,-1,1,-7,1,-9,1,-13,1,-5,1,-10,1,-14,1
783,4,1,1,1,-3,1,-2,1,4,1,-1,1,-6,1,-10,1,-13,1,-5,1,-10,1,-14,1
784,5,1,-6,1,-11,1,0,1,8,1,-8,1,-5,1,-6,1,-12,1,-3,1,-9,1,-14,1
785,6,1,-3,1,-9,1,-1,1,7,1,-6,1,-3,1,0,1,-12,1,-1,1,-9,1,-12,1
786,7,1,-3,1,-10,1,-2,1,8,1,-6,1,-3,1,4,1,-13,1,-1,1,-9,1,-12,1
787,4,1,-1,1,-5,1,-1,1,4,1,-3,1,-1,1,9,1,-13,1,-1,1,-10,1,-12,1
788,3,1,1,1,-2,1,-2,1,3,1,0,1,-1,1,11,1,-13,1,-1,1,-10,1,-12,1
789,5,1,3,1,-2,1,-4,1,4,1,1,1,-3,1,9,1,-12,1,-1,1,-10,1,-13,1
790,6,1,6,1,0,1,-6,1,3,1,3,1,-2,1,4,1,-11,1,-1,1,-9,1,-13,1
791,7,1,2,1,-5,1,-4,1,6,1,-1,1,-2,1,0,1,-9,1,-1,1,-9,1,-13,1
792,10,1,0,1,-10,1,-5,1,10,1,-5,1,-1,1,-1,1,-7,1,0,1,-7,1,-11,1
793,11,1,1,1,-10,1,-6,1,11,1,-4,1,0,1,-2,1,-5,1,1,1,-6,1,-10,1
794,12,1,3,1,-9,1,-7,1,11,1,-3,1,0,1,1,1,-4,1,1,1,-6,1,-11,1
795,12,1,3,1,-9,1,-7,1,11,1,-3,1,2,1,8,1,-2,1,4,1,-5,1,-10,1
796,14,1,5,1,-9,1,-9,1,12,1,-2,1,4,1,15,1,-2,1,5,1,-4,1,-8,1
797,17,1,6,1,-11,1,-11,1,14,1,-2,1,4,1,19,1,-2,1,6,1,-4,1,-7,1
798,21,1,8,1,-13,1,-14,1,17,1,-2,1,4,1,20,1,-2,1,6,1,-4,1,-7,1
799,21,1,9,1,-12,1,-15,1,17,1,-1,1,4,1,17,1,-2,1,5,1,-4,1,-9,1
800,17,1,10,1,-7,1,-13,1,12,1,2,1,4,1,13,1,0,1,6,1,-3,1,-7,1
801,13,1,9,1,-4,1,-11,1,9,1,3,1,3,1,8,1,0,1,6,1,-2,1,-6,1
802,11,1,11,1,0,1,-11,1,6,1,6,1,4,1,4,1,2,1,8,1,0,1,-4,1
803,11,1,13,1,2,1,-12,1,5,1,8,1,3,1,2,1,2,1,8,1,0,1,-5,1
804,12,1,15,1,3,1,-13,1,5,1,9,1,4,1,5,1,3,1,9,1,0,1,-5,1
805,15,1,13,1,-2,1,-14,1,9,1,6,1,5,1,12,1,5,1,10,1,0,1,-5,1
806,16,1,16,1,0,1,-16,1,8,1,8,1,6,1,18,1,5,1,11,1,0,1,-4,1
807,18,1,18,1,0,1,-18,1,9,1,9,1,6,1,23,1,6,1,13,1,2,1,-1,1
808,19,1,19,1,0,1,-19,1,10,1,10,1,3,1,24,1,6,1,13,1,3,1,0,1
809,22,1,19,1,-3,1,-20,1,13,1,8,1,0,1,19,1,4,1,11,1,3,1,0,1
810,22,1,18,1,-4,1,-20,1,13,1,7,1,-3,1,12,1,4,1,10,1,4,1,0,1
811,23,1,18,1,-5,1,-20,1,14,1,7,1,-4,1,6,1,5,1,11,1,5,1,0,1
812,25,1,17,1,-8,1,-21,1,17,1,5,1,-5,1,1,1,5,1,10,1,6,1,0,1
813,26,1,15,1,-11,1,-20,1,19,1,2,1,-8,1,-1,1,4,1,11,1,6,1,1,1
814,25,1,12,1,-13,1,-18,1,19,1,0,1,-11,1,1,1,3,1,10,1,5,1,1,1
815,24,1,11,1,-13,1,-17,1,19,1,-1,1,-11,1,3,1,0,1,10,1,5,1,0,1
816,20,1,10,1,-10,1,-15,1,15,1,0,1,-11,1,8,1,-2,1,9,1,4,1,0,1
817,15,1,8,1,-7,1,-11,1,11,1,1,1,-10,1,12,1,-3,1,9,1,3,1,1,1
818,13,1,8,1,-5,1,-10,1,9,1,2,1,-11,1,11,1,-6,1,6,1,1,1,-1,1
819,16,1,8,1,-8,1,-12,1,12,1,0,1,-12,1,7,1,-7,1,5,1,1,1,0,1
820,19,1,8,1,-11,1,-13,1,15,1,-1,1,-15,1,0,1,-9,1,1,1,0,1,-3,1
821,18,1,4,1,-14,1,-11,1,16,1,-5,1,-16,1,-7,1,-11,1,-2,1,-1,1,-4,1
822,18,1,4,1,-14,1,-11,1,16,1,-5,1,-17,1,-12,1,-12,1,-4,1,-4,1,-4,1
823,13,1,1,1,-12,1,-7,1,13,1,-5,1,-16,1,-14,1,-13,1,-4,1,-4,1,-5,1
824,11,1,-1,1,-12,1,-5,1,11,1,-6,1,-15,1,-13,1,-14,1,-4,1,-4,1,-5,1
825,10,1,-1,1,-11,1,-4,1,10,1,-6,1,-12,1,-9,1,-16,1,-5,1,-7,1,-8,1
826,5,1,0,1,-5,1,-2,1,5,1,-2,1,-9,1,-2,1,-13,1,-3,1,-8,1,-8,1
827,4,1,0,1,-4,1,-2,1,4,1,-2,1,-6,1,3,1,-12,1,-2,1,-6,1,-7,1
828,5,1,0,1,-5,1,-2,1,5,1,-2,1,-4,1,6,1,-12,1,-3,1,-8,1,-8,1
829,4,1,0,1,-4,1,-2,1,4,1,-2,1,-4,1,4,1,-11,1,-3,1,-7,1,-10,1
830,3,1,-1,1,-4,1,-1,1,3,1,-2,1,-6,1,-2,1,-13,1,-6,1,-8,1,-12,1
831,0,1,-2,1,-2,1,1,1,1,1,-2,1,-7,1,-8,1,-14,1,-8,1,-11,1,-15,1
832,0,1,-5,1,-5,1,2,1,2,1,-5,1,-8,1,-13,1,-15,1,-9,1,-11,1,-15,1
833,1,1,-4,1,-5,1,1,1,3,1,-4,1,-8,1,-14,1,-15,1,-9,1,-10,1,-16,1
834,-1,1,-6,1,-5,1,3,1,2,1,-6,1,-7,1,-13,1,-17,1,-9,1,-11,1,-16,1
835,1,1,-5,1,-6,1,2,1,3,1,-5,1,-5,1,-6,1,-17,1,-10,1,-12,1,-15,1
836,0,1,-6,1,-6,1,3,1,3,1,-6,1,-4,1,0,1,-17,1,-8,1,-12,1,-15,1
837,1,1,-6,1,-7,1,2,1,4,1,-6,1,-3,1,5,1,-16,1,-8,1,-12,1,-14,1
838,-1,1,-6,1,-5,1,3,1,2,1,-6,1,-2,1,6,1,-17,1,-8,1,-13,1,-15,1
839,-2,1,-6,1,-4,1,4,1,1,1,-5,1,-3,1,4,1,-16,1,-8,1,-12,1,-15,1
840,0,1,-3,1,-3,1,1,1,1,1,-3,1,-2,1,1,1,-14,1,-7,1,-12,1,-14,1
841,0,1,-5,1,-5,1,2,1,2,1,-5,1,-4,1,-5,1,-14,1,-8,1,-12,1,-16,1
842,-1,1,-9,1,-8,1,5,1,3,1,-9,1,-6,1,-10,1,-15,1,-10,1,-13,1,-17,1
843,-1,1,-9,1,-8,1,5,1,3,1,-9,1,-7,1,-13,1,-16,1,-11,1,-13,1,-16,1
844,2,1,-6,1,-8,1,2,1,5,1,-7,1,-9,1,-12,1,-19,1,-13,1,-15,1,-19,1
845,2,1,-4,1,-6,1,1,1,4,1,-5,1,-7,1,-7,1,-20,1,-13,1,-17,1,-18,1
846,2,1,-8,1,-10,1,3,1,6,1,-9,1,-4,1,0,1,-19,1,-11,1,-16,1,-18,1
847,1,1,-12,1,-13,1,5,1,7,1,-12,1,0,1,5,1,-18,1,-9,1,-15,1,-15,1
848,-1,1,-10,1,-9,1,5,1,4,1,-10,1,0,1,7,1,-17,1,-9,1,-13,1,-13,1
849,-4,1,-7,1,-3,1,5,1,-1,1,-5,1,0,1,5,1,-17,1,-9,1,-14,1,-14,1
850,-1,1,-7,1,-6,1,4,1,2,1,-7,1,-3,1,-2,1,-19,1,-12,1,-16,1,-14,1
851,1,1,-9,1,-10,1,4,1,5,1,-9,1,-6,1,-8,1,-19,1,-12,1,-15,1,-15,1
852,0,1,-8,1,-8,1,4,1,4,1,-8,1,-7,1,-13,1,-19,1,-12,1,-16,1,-15,1
853,-1,1,-9,1,-8,1,5,1,3,1,-9,1,-8,1,-15,1,-20,1,-12,1,-17,1,-15,1
854,-3,1,-9,1,-6,1,6,1,1,1,-8,1,-6,1,-11,1,-18,1,-10,1,-16,1,-14,1
855,-3,1,-6,1,-3,1,4,1,0,1,-5,1,-4,1,-5,1,-18,1,-9,1,-14,1,-14,1
856,-2,1,-8,1,-6,1,5,1,2,1,-7,1,-3,1,0,1,-17,1,-9,1,-15,1,-14,1
857,-2,1,-10,1,-8,1,6,1,3,1,-9,1,-1,1,6,1,-16,1,-7,1,-14,1,-11,1
858,-1,1,-9,1,-8,1,5,1,3,1,-9,1,-1,1,6,1,-16,1,-9,1,-16,1,-11,1
859,1,1,-9,1,-10,1,4,1,5,1,-9,1,-3,1,3,1,-16,1,-10,1,-16,1,-12,1
860,1,1,-8,1,-9,1,3,1,5,1,-8,1,-5,1,-1,1,-16,1,-11,1,-16,1,-12,1
861,1,1,-7,1,-8,1,3,1,4,1,-7,1,-5,1,-8,1,-16,1,-12,1,-16,1,-13,1
862,-2,1,-7,1,-5,1,4,1,1,1,-6,1,-5,1,-12,1,-16,1,-11,1,-16,1,-13,1
863,0,1,-6,1,-6,1,3,1,3,1,-6,1,-7,1,-14,1,-16,1,-12,1,-16,1,-15,1
864,-2,1,-6,1,-4,1,4,1,1,1,-5,1,-6,1,-11,1,-15,1,-10,1,-15,1,-15,1
865,-5,1,-7,1,-2,1,6,1,-2,1,-5,1,-3,1,-5,1,-15,1,-7,1,-14,1,-12,1
866,-2,1,-8,1,-6,1,5,1,2,1,-7,1,-2,1,0,1,-15,1,-7,1,-14,1,-12,1
867,-4,1,-7,1,-3,1,5,1,-1,1,-5,1,0,1,5,1,-15,1,-7,1,-15,1,-13,1
868,-3,1,-8,1,-5,1,5,1,1,1,-7,1,0,1,6,1,-15,1,-7,1,-15,1,-13,1
869,-4,1,-7,1,-3,1,5,1,-1,1,-5,1,-1,1,4,1,-14,1,-7,1,-13,1,-13,1
870,-6,1,-2,1,4,1,4,1,-5,1,1,1,-3,1,-1,1,-10,1,-5,1,-11,1,-13,1
871,-3,1,1,1,4,1,1,1,-3,1,2,1,-2,1,3,1,-2,1,1,1,-5,1,-9,1
872,1,1,5,1,4,1,-3,1,-1,1,5,1,-4,1,10,1,8,1,10,1,2,1,-6,1
873,9,1,8,1,-1,1,-8,1,5,1,4,1,-5,1,25,1,21,1,22,1,12,1,0,1
874,19,1,11,1,-8,1,-15,1,14,1,2,1,1,1,65,1,46,1,41,1,23,1,6,1
875,25,1,15,1,-10,1,-20,1,18,1,3,1,17,1,124,1,85,1,65,1,34,1,12,1
876,29,1,23,1,-6,1,-26,1,18,1,9,1,38,1,180,1,132,1,96,1,51,1,19,1
877,44,1,33,1,-11,1,-38,1,28,1,11,1,52,1,211,1,167,1,126,1,75,1,35,1
878,63,1,44,1,-19,1,-53,1,41,1,13,1,58,1,224,1,193,1,157,1,106,1,55,1
879,85,1,58,1,-27,1,-71,1,56,1,16,1,63,1,234,1,223,1,192,1,145,1,83,1
880,116,1,69,1,-47,1,-92,1,82,1,11,1,49,1,223,1,243,1,229,1,196,1,120,1
881,159,1,87,1,-72,1,-123,1,116,1,8,1,21,1,195,1,244,1,262,1,251,1,162,1
882,195,1,108,1,-87,1,-151,1,141,1,11,1,-15,1,104,1,203,1,281,1,311,1,213,1
883,222,1,126,1,-96,1,-174,1,159,1,15,1,-47,1,14,1,141,1,290,1,367,1,263,1
884,246,1,147,1,-99,1,-196,1,173,1,24,1,-71,1,-56,1,84,1,293,1,411,1,307,1
885,254,1,165,1,-89,1,-209,1,172,1,38,1,-95,1,-122,1,26,1,276,1,428,1,334,1
886,260,1,182,1,-78,1,-221,1,169,1,52,1,-133,1,-187,1,-40,1,248,1,428,1,347,1
887,263,1,189,1,-74,1,-226,1,169,1,58,1,-186,1,-255,1,-103,1,220,1,416,1,350,1
888,256,1,177,1,-79,1,-216,1,168,1,49,1,-225,1,-307,1,-159,1,170,1,369,1,327,1
889,233,1,149,1,-84,1,-191,1,159,1,33,1,-251,1,-345,1,-222,1,94,1,288,1,282,1
890,196,1,113,1,-83,1,-154,1,140,1,15,1,-255,1,-380,1,-274,1,9,1,195,1,225,1
891,130,1,64,1,-66,1,-97,1,98,1,-1,1,-229,1,-391,1,-313,1,-81,1,78,1,141,1
892,55,1,19,1,-36,1,-37,1,46,1,-8,1,-198,1,-394,1,-343,1,-168,1,-42,1,51,1
893,5,1,-4,1,-9,1,0,1,7,1,-6,1,-185,1,-401,1,-363,1,-223,1,-103,1,4,1
894,-28,1,-25,1,3,1,26,1,-16,1,-11,1,-160,1,-378,1,-367,1,-254,1,-140,1,-29,1
895,-50,1,-41,1,9,1,45,1,-30,1,-16,1,-128,1,-330,1,-338,1,-250,1,-157,1,-55,1
896,-54,1,-45,1,9,1,49,1,-32,1,-18,1,-108,1,-277,1,-298,1,-228,1,-152,1,-64,1
897,-44,1,-41,1,3,1,42,1,-24,1,-19,1,-94,1,-223,1,-251,1,-194,1,-131,1,-54,1
898,-36,1,-28,1,8,1,32,1,-22,1,-10,1,-82,1,-180,1,-206,1,-158,1,-107,1,-44,1
899,-32,1,-20,1,12,1,26,1,-22,1,-4,1,-73,1,-152,1,-172,1,-132,1,-91,1,-41,1
900,-32,1,-15,1,17,1,23,1,-25,1,1,1,-64,1,-132,1,-145,1,-111,1,-80,1,-40,1
901,-23,1,-12,1,11,1,17,1,-17,1,-1,1,-54,1,-114,1,-120,1,-90,1,-66,1,-35,1
902,-17,1,-11,1,6,1,14,1,-12,1,-3,1,-38,1,-87,1,-87,1,-64,1,-46,1,-26,1
903,-13,1,-9,1,4,1,11,1,-9,1,-3,1,-26,1,-62,1,-61,1,-41,1,-31,1,-19,1
904,-9,1,-5,1,4,1,7,1,-7,1,-1,1,-19,1,-45,1,-45,1,-28,1,-24,1,-17,1
905,-6,1,-2,1,4,1,4,1,-5,1,1,1,-14,1,-30,1,-36,1,-20,1,-20,1,-14,1
906,-6,1,-2,1,4,1,4,1,-5,1,1,1,-11,1,-19,1,-32,1,-16,1,-19,1,-13,1
907,-8,1,-2,1,6,1,5,1,-7,1,2,1,-7,1,-9,1,-28,1,-14,1,-17,1,-12,1
908,-7,1,-1,1,6,1,4,1,-7,1,2,1,-7,1,-4,1,-26,1,-14,1,-18,1,-13,1
909,-7,1,-2,1,5,1,4,1,-6,1,1,1,-7,1,-4,1,-24,1,-13,1,-20,1,-15,1
910,-7,1,-3,1,4,1,5,1,-6,1,0,1,-7,1,-8,1,-24,1,-16,1,-22,1,-19,1
911,-5,1,-1,1,4,1,3,1,-5,1,1,1,-7,1,-13,1,-21,1,-16,1,-22,1,-21,1
912,-6,1,-2,1,4,1,4,1,-5,1,1,1,-7,1,-14,1,-18,1,-14,1,-21,1,-20,1
913,-11,1,-2,1,9,1,6,1,-10,1,3,1,-3,1,-11,1,-13,1,-9,1,-18,1,-17,1
914,-12,1,-1,1,11,1,6,1,-12,1,5,1,-1,1,-6,1,-13,1,-8,1,-18,1,-18,1
915,-12,1,-1,1,11,1,6,1,-12,1,5,1,1,1,1,1,-11,1,-6,1,-17,1,-18,1
916,-15,1,-1,1,14,1,8,1,-15,1,6,1,4,1,10,1,-8,1,-4,1,-15,1,-16,1
917,-13,1,1,1,14,1,6,1,-13,1,7,1,5,1,15,1,-8,1,-4,1,-15,1,-15,1
918,-7,1,3,1,10,1,2,1,-8,1,6,1,2,1,15,1,-11,1,-7,1,-18,1,-17,1
919,-8,1,2,1,10,1,3,1,-9,1,6,1,2,1,14,1,-10,1,-7,1,-19,1,-18,1
920,-9,1,-2,1,7,1,5,1,-8,1,2,1,2,1,9,1,-8,1,-7,1,-17,1,-18,1
921,-7,1,-1,1,6,1,4,1,-7,1,2,1,1,1,5,1,-7,1,-7,1,-17,1,-20,1
922,-11,1,-5,1,6,1,8,1,-9,1,0,1,3,1,2,1,-5,1,-4,1,-14,1,-17,1
923,-13,1,-5,1,8,1,9,1,-11,1,1,1,1,1,1,1,-4,1,-5,1,-14,1,-17,1
924,-12,1,-5,1,7,1,8,1,-10,1,1,1,2,1,3,1,-5,1,-5,1,-14,1,-17,1
925,-8,1,-4,1,4,1,6,1,-6,1,0,1,4,1,10,1,-5,1,-2,1,-14,1,-15,1
926,-9,1,-2,1,7,1,5,1,-8,1,2,1,5,1,15,1,-5,1,-2,1,-14,1,-16,1
927,-8,1,0,1,8,1,4,1,-8,1,4,1,6,1,20,1,-5,1,-1,1,-14,1,-17,1
928,-8,1,0,1,8,1,4,1,-8,1,4,1,7,1,23,1,-3,1,-1,1,-12,1,-15,1
929,-8,1,-1,1,7,1,4,1,-8,1,3,1,7,1,22,1,-1,1,0,1,-12,1,-15,1
930,-9,1,2,1,11,1,3,1,-10,1,6,1,4,1,16,1,-2,1,-2,1,-14,1,-18,1
931,-10,1,0,1,10,1,5,1,-10,1,5,1,2,1,10,1,-2,1,-3,1,-15,1,-19,1
932,-10,1,0,1,10,1,5,1,-10,1,5,1,1,1,4,1,-3,1,-5,1,-15,1,-21,1
933,-8,1,0,1,8,1,4,1,-8,1,4,1,1,1,3,1,-5,1,-4,1,-14,1,-19,1
934,-9,1,-3,1,6,1,6,1,-8,1,1,1,1,1,6,1,-4,1,-5,1,-14,1,-18,1
935,-8,1,-5,1,3,1,6,1,-6,1,-1,1,3,1,11,1,-4,1,-3,1,-14,1,-17,1
936,-7,1,-3,1,4,1,5,1,-6,1,0,1,4,1,17,1,-4,1,-3,1,-13,1,-16,1
937,-5,1,1,1,6,1,2,1,-5,1,3,1,6,1,22,1,-4,1,-1,1,-13,1,-16,1
938,-7,1,4,1,11,1,1,1,-9,1,7,1,6,1,24,1,-4,1,-2,1,-14,1,-15,1
939,-10,1,3,1,13,1,3,1,-11,1,8,1,6,1,22,1,-3,1,-1,1,-12,1,-14,1
940,-10,1,3,1,13,1,3,1,-11,1,8,1,5,1,17,1,-2,1,-1,1,-11,1,-14,1
941,-10,1,2,1,12,1,4,1,-11,1,7,1,3,1,12,1,-1,1,-1,1,-10,1,-13,1
942,-9,1,1,1,10,1,4,1,-9,1,5,1,0,1,6,1,-2,1,-2,1,-11,1,-15,1
943,-9,1,1,1,10,1,4,1,-9,1,5,1,0,1,4,1,-3,1,-3,1,-12,1,-15,1
944,-8,1,2,1,10,1,3,1,-9,1,6,1,2,1,7,1,0,1,-1,1,-10,1,-13,1
945,-9,1,1,1,10,1,4,1,-9,1,5,1,3,1,13,1,-2,1,0,1,-10,1,-11,1
946,-10,1,2,1,12,1,4,1,-11,1,7,1,3,1,18,1,-2,1,-1,1,-11,1,-12,1
947,-8,1,6,1,14,1,1,1,-11,1,10,1,4,1,23,1,-1,1,-1,1,-11,1,-12,1
948,-5,1,2,1,7,1,1,1,-6,1,4,1,5,1,25,1,-2,1,0,1,-11,1,-12,1
949,-7,1,2,1,9,1,2,1,-8,1,5,1,5,1,24,1,-1,1,0,1,-9,1,-11,1
950,-5,1,4,1,9,1,0,1,-7,1,6,1,2,1,17,1,-2,1,-1,1,-10,1,-12,1
951,-4,1,3,1,7,1,0,1,-5,1,5,1,0,1,11,1,-1,1,-2,1,-11,1,-13,1
952,-9,1,1,1,10,1,4,1,-9,1,5,1,0,1,6,1,-1,1,-1,1,-10,1,-12,1
953,-9,1,1,1,10,1,4,1,-9,1,5,1,1,1,5,1,0,1,0,1,-8,1,-12,1
954,-13,1,2,1,15,1,5,1,-14,1,8,1,2,1,8,1,0,1,1,1,-8,1,-11,1
955,-13,1,4,1,17,1,4,1,-15,1,10,1,3,1,12,1,-1,1,1,1,-10,1,-12,1
956,-12,1,4,1,16,1,4,1,-14,1,10,1,4,1,19,1,0,1,1,1,-10,1,-12,1
957,-10,1,3,1,13,1,3,1,-11,1,8,1,5,1,25,1,1,1,3,1,-8,1,-10,1
958,-6,1,5,1,11,1,0,1,-8,1,8,1,4,1,25,1,1,1,2,1,-8,1,-12,1
959,-5,1,6,1,11,1,0,1,-8,1,8,1,2,1,23,1,0,1,1,1,-10,1,-12,1
960,-7,1,3,1,10,1,2,1,-8,1,6,1,1,1,17,1,-1,1,0,1,-11,1,-13,1
961,-8,1,2,1,10,1,3,1,-9,1,6,1,-1,1,11,1,-1,1,-2,1,-11,1,-14,1
962,-6,1,1,1,7,1,2,1,-6,1,4,1,-2,1,4,1,-2,1,-2,1,-10,1,-14,1
963,-2,1,1,1,3,1,0,1,-2,1,2,1,-2,1,3,1,-2,1,-2,1,-10,1,-15,1
964,-3,1,0,1,3,1,1,1,-3,1,1,1,-2,1,5,1,-2,1,-1,1,-10,1,-14,1
965,-2,1,3,1,5,1,0,1,-3,1,4,1,-2,1,8,1,-3,1,-1,1,-10,1,-14,1
966,0,1,4,1,4,1,-2,1,-2,1,4,1,-2,1,14,1,-4,1,-1,1,-9,1,-13,1
967,-3,1,5,1,8,1,-1,1,-5,1,6,1,0,1,21,1,-1,1,1,1,-7,1,-9,1
968,-5,1,6,1,11,1,0,1,-8,1,8,1,0,1,23,1,-1,1,1,1,-7,1,-9,1
969,-6,1,6,1,12,1,0,1,-9,1,9,1,0,1,20,1,-2,1,0,1,-9,1,-12,1
970,-7,1,6,1,13,1,0,1,-10,1,9,1,-2,1,14,1,-1,1,0,1,-8,1,-12,1
971,-4,1,4,1,8,1,0,1,-6,1,6,1,-3,1,8,1,-1,1,-2,1,-9,1,-13,1
972,-2,1,6,1,8,1,-2,1,-5,1,7,1,-5,1,3,1,-2,1,-4,1,-10,1,-14,1
973,-5,1,8,1,13,1,-1,1,-9,1,10,1,-5,1,2,1,-2,1,-3,1,-10,1,-12,1
974,-3,1,5,1,8,1,-1,1,-5,1,6,1,-3,1,5,1,-2,1,-1,1,-8,1,-12,1
975,-2,1,4,1,6,1,-1,1,-4,1,5,1,-3,1,9,1,-3,1,0,1,-8,1,-11,1
976,-3,1,5,1,8,1,-1,1,-5,1,6,1,-1,1,15,1,-2,1,1,1,-6,1,-10,1
977,-3,1,5,1,8,1,-1,1,-5,1,6,1,-1,1,21,1,-2,1,1,1,-7,1,-9,1
978,0,1,7,1,7,1,-3,1,-3,1,7,1,-1,1,21,1,-3,1,0,1,-7,1,-9,1
979,1,1,9,1,8,1,-5,1,-3,1,9,1,-2,1,19,1,-4,1,-1,1,-6,1,-9,1
980,-1,1,7,1,8,1,-3,1,-4,1,7,1,-4,1,13,1,-3,1,-2,1,-6,1,-9,1
981,-2,1,7,1,9,1,-2,1,-5,1,8,1,-6,1,7,1,-4,1,-4,1,-7,1,-11,1
982,-2,1,4,1,6,1,-1,1,-4,1,5,1,-8,1,1,1,-4,1,-5,1,-8,1,-10,1
983,0,1,4,1,4,1,-2,1,-2,1,4,1,-8,1,-1,1,-4,1,-5,1,-7,1,-10,1
984,1,1,5,1,4,1,-3,1,-1,1,5,1,-9,1,1,1,-5,1,-3,1,-8,1,-10,1
985,1,1,7,1,6,1,-4,1,-2,1,7,1,-8,1,6,1,-6,1,-3,1,-8,1,-9,1
986,0,1,7,1,7,1,-3,1,-3,1,7,1,-8,1,11,1,-7,1,-2,1,-9,1,-9,1
987,1,1,9,1,8,1,-5,1,-3,1,9,1,-6,1,16,1,-5,1,-2,1,-7,1,-8,1
988,1,1,10,1,9,1,-5,1,-4,1,10,1,-6,1,19,1,-4,1,-2,1,-6,1,-6,1
989,-1,1,11,1,12,1,-5,1,-6,1,11,1,-7,1,17,1,-5,1,-2,1,-6,1,-8,1
990,-1,1,13,1,14,1,-6,1,-7,1,13,1,-8,1,10,1,-5,1,-2,1,-8,1,-8,1
991,0,1,13,1,13,1,-6,1,-6,1,13,1,-9,1,3,1,-6,1,-4,1,-7,1,-9,1
992,-5,1,15,1,20,1,-5,1,-12,1,17,1,-11,1,0,1,-5,1,-5,1,-7,1,-9,1
993,-4,1,14,1,18,1,-5,1,-11,1,16,1,-13,1,-4,1,-6,1,-6,1,-8,1,-9,1
994,-1,1,10,1,11,1,-4,1,-6,1,10,1,-12,1,-1,1,-6,1,-6,1,-7,1,-9,1
995,1,1,8,1,7,1,-4,1,-3,1,8,1,-13,1,2,1,-8,1,-6,1,-9,1,-8,1
996,1,1,8,1,7,1,-4,1,-3,1,8,1,-12,1,7,1,-8,1,-6,1,-8,1,-8,1
997,-1,1,12,1,13,1,-5,1,-7,1,12,1,-10,1,12,1,-8,1,-5,1,-7,1,-7,1
998,0,1,17,1,17,1,-8,1,-8,1,17,1,-13,1,11,1,-10,1,-5,1,-9,1,-7,1
999,1,1,18,1,17,1,-9,1,-8,1,18,1,-16,1,8,1,-11,1,-7,1,-10,1,-10,1
1000,1,1,15,1,14,1,-8,1,-6,1,15,1,-17,1,3,1,-10,1,-6,1,-10,1,-9,1
1001,-2,1,14,1,16,1,-6,1,-9,1,15,1,-17,1,-4,1,-10,1,-7,1,-8,1,-9,1
1002,-1,1,15,1,16,1,-7,1,-8,1,15,1,-21,1,-10,1,-12,1,-10,1,-11,1,-10,1
1003,0,1,15,1,15,1,-7,1,-7,1,15,1,-23,1,-14,1,-13,1,-11,1,-11,1,-10,1
1004,0,1,16,1,16,1,-8,1,-8,1,16,1,-24,1,-13,1,-15,1,-12,1,-10,1,-9,1
1005,2,1,16,1,14,1,-9,1,-6,1,15,1,-24,1,-9,1,-16,1,-10,1,-9,1,-7,1
1006,3,1,17,1,14,1,-10,1,-5,1,16,1,-23,1,-4,1,-15,1,-10,1,-8,1,-4,1
1007,-1,1,14,1,15,1,-6,1,-8,1,14,1,-21,1,-1,1,-16,1,-10,1,-8,1,-4,1
1008,-3,1,17,1,20,1,-7,1,-11,1,18,1,-23,1,0,1,-17,1,-10,1,-8,1,-4,1
1009,-1,1,18,1,19,1,-8,1,-10,1,18,1,-26,1,-4,1,-18,1,-13,1,-8,1,-6,1
1010,0,1,17,1,17,1,-8,1,-8,1,17,1,-28,1,-12,1,-20,1,-14,1,-9,1,-7,1
1011,0,1,19,1,19,1,-9,1,-9,1,19,1,-33,1,-22,1,-23,1,-16,1,-11,1,-8,1
1012,4,1,18,1,14,1,-11,1,-5,1,16,1,-36,1,-30,1,-26,1,-20,1,-14,1,-9,1
1013,3,1,17,1,14,1,-10,1,-5,1,16,1,-39,1,-34,1,-29,1,-21,1,-14,1,-10,1
1014,1,1,18,1,17,1,-9,1,-8,1,18,1,-40,1,-34,1,-30,1,-21,1,-14,1,-9,1
1015,-1,1,21,1,22,1,-10,1,-11,1,21,1,-40,1,-31,1,-31,1,-20,1,-14,1,-7,1
1016,0,1,20,1,20,1,-10,1,-10,1,20,1,-38,1,-26,1,-32,1,-19,1,-13,1,-5,1
1017,-2,1,19,1,21,1,-8,1,-11,1,20,1,-38,1,-22,1,-32,1,-18,1,-11,1,-2,1
1018,-4,1,21,1,25,1,-8,1,-14,1,23,1,-40,1,-23,1,-34,1,-19,1,-12,1,-2,1
1019,-3,1,23,1,26,1,-10,1,-14,1,24,1,-42,1,-28,1,-37,1,-23,1,-15,1,-6,1
1020,-2,1,22,1,24,1,-10,1,-13,1,23,1,-45,1,-38,1,-40,1,-27,1,-16,1,-6,1
1021,-5,1,21,1,26,1,-8,1,-15,1,23,1,-48,1,-46,1,-42,1,-29,1,-16,1,-8,1
1022,-8,1,18,1,26,1,-5,1,-17,1,22,1,-51,1,-54,1,-44,1,-31,1,-18,1,-8,1
1023,-8,1,17,1,25,1,-4,1,-16,1,21,1,-52,1,-59,1,-46,1,-33,1,-18,1,-8,1
1024,-4,1,19,1,23,1,-7,1,-13,1,21,1,-52,1,-58,1,-48,1,-31,1,-17,1,-5,1
1025,-2,1,20,1,22,1,-9,1,-12,1,21,1,-55,1,-57,1,-53,1,-34,1,-18,1,-6,1
1026,0,1,22,1,22,1,-11,1,-11,1,22,1,-55,1,-53,1,-55,1,-35,1,-21,1,-6,1
1027,-4,1,21,1,25,1,-8,1,-14,1,23,1,-52,1,-48,1,-54,1,-35,1,-19,1,-4,1
1028,-9,1,22,1,31,1,-6,1,-20,1,26,1,-51,1,-47,1,-53,1,-33,1,-17,1,-4,1
1029,-12,1,25,1,37,1,-6,1,-24,1,31,1,-51,1,-49,1,-53,1,-33,1,-17,1,-3,1
1030,-8,1,23,1,31,1,-7,1,-19,1,27,1,-54,1,-57,1,-54,1,-35,1,-18,1,-4,1
1031,-8,1,23,1,31,1,-7,1,-19,1,27,1,-57,1,-63,1,-54,1,-37,1,-19,1,-6,1
1032,-7,1,23,1,30,1,-8,1,-18,1,26,1,-57,1,-67,1,-53,1,-36,1,-18,1,-6,1
1033,-7,1,23,1,30,1,-8,1,-18,1,26,1,-56,1,-67,1,-52,1,-35,1,-17,1,-6,1
1034,-4,1,23,1,27,1,-9,1,-15,1,25,1,-54,1,-62,1,-50,1,-33,1,-16,1,-5,1
1035,-4,1,14,1,18,1,-5,1,-11,1,16,1,-49,1,-54,1,-46,1,-29,1,-14,1,-3,1
1036,-4,1,15,1,19,1,-5,1,-11,1,17,1,-45,1,-44,1,-43,1,-25,1,-13,1,-1,1
1037,-2,1,21,1,23,1,-9,1,-12,1,22,1,-42,1,-35,1,-41,1,-22,1,-11,1,-2,1
1038,2,1,22,1,20,1,-12,1,-9,1,21,1,-38,1,-29,1,-36,1,-19,1,-9,1,-1,1
1039,1,1,20,1,19,1,-10,1,-9,1,20,1,-36,1,-26,1,-32,1,-17,1,-8,1,-1,1
1040,-2,1,22,1,24,1,-10,1,-13,1,23,1,-33,1,-27,1,-28,1,-14,1,-7,1,-3,1
1041,-3,1,19,1,22,1,-8,1,-12,1,20,1,-32,1,-29,1,-25,1,-12,1,-5,1,-2,1
1042,-1,1,16,1,17,1,-7,1,-9,1,16,1,-29,1,-30,1,-21,1,-10,1,-2,1,-4,1
1043,-3,1,14,1,17,1,-5,1,-10,1,15,1,-27,1,-27,1,-19,1,-8,1,-2,1,-3,1
1044,-3,1,14,1,17,1,-5,1,-10,1,15,1,-23,1,-21,1,-16,1,-6,1,-1,1,-3,1
1045,1,1,16,1,15,1,-8,1,-7,1,16,1,-20,1,-14,1,-14,1,-4,1,0,1,-2,1
1046,6,1,16,1,10,1,-11,1,-2,1,13,1,-17,1,-5,1,-13,1,-3,1,0,1,-2,1
1047,7,1,17,1,10,1,-12,1,-1,1,14,1,-15,1,2,1,-11,1,-3,1,1,1,-3,1
1048,5,1,15,1,10,1,-10,1,-2,1,13,1,-12,1,6,1,-10,1,-2,1,0,1,-2,1
1049,0,1,8,1,8,1,-4,1,-4,1,8,1,-9,1,8,1,-6,1,0,1,2,1,0,1
1050,0,1,9,1,9,1,-4,1,-4,1,9,1,-10,1,2,1,-8,1,-3,1,0,1,-5,1
1051,0,1,8,1,8,1,-4,1,-4,1,8,1,-10,1,-1,1,-7,1,-3,1,0,1,-6,1
1052,2,1,7,1,5,1,-4,1,-1,1,6,1,-10,1,-5,1,-7,1,-4,1,-1,1,-7,1
1053,3,1,7,1,4,1,-5,1,0,1,6,1,-10,1,-8,1,-8,1,-5,1,-2,1,-8,1
1054,2,1,7,1,5,1,-4,1,-1,1,6,1,-9,1,-6,1,-10,1,-6,1,-4,1,-10,1
1055,2,1,6,1,4,1,-4,1,-1,1,5,1,-5,1,1,1,-8,1,-4,1,-3,1,-8,1
1056,-5,1,2,1,7,1,1,1,-6,1,4,1,-1,1,10,1,-7,1,-1,1,-2,1,-6,1
1057,-7,1,4,1,11,1,1,1,-9,1,7,1,1,1,17,1,-6,1,-1,1,-1,1,-5,1
1058,-1,1,4,1,5,1,-1,1,-3,1,4,1,1,1,17,1,-7,1,-4,1,-4,1,-6,1
1059,1,1,1,1,0,1,-1,1,1,1,1,1,0,1,13,1,-9,1,-5,1,-5,1,-8,1
1060,4,1,3,1,-1,1,-3,1,3,1,1,1,-1,1,7,1,-9,1,-7,1,-7,1,-10,1
1061,-1,1,4,1,5,1,-1,1,-3,1,4,1,-2,1,1,1,-9,1,-9,1,-7,1,-11,1
1062,-5,1,2,1,7,1,1,1,-6,1,4,1,-3,1,-3,1,-10,1,-10,1,-8,1,-12,1
1063,-7,1,2,1,9,1,2,1,-8,1,5,1,-1,1,-5,1,-9,1,-10,1,-9,1,-12,1
1064,-5,1,3,1,8,1,1,1,-6,1,5,1,-1,1,-4,1,-9,1,-9,1,-8,1,-11,1
1065,-4,1,4,1,8,1,0,1,-6,1,6,1,2,1,2,1,-8,1,-7,1,-7,1,-10,1
1066,-1,1,7,1,8,1,-3,1,-4,1,7,1,2,1,8,1,-8,1,-6,1,-6,1,-9,1
1067,-2,1,4,1,6,1,-1,1,-4,1,5,1,4,1,15,1,-8,1,-5,1,-6,1,-7,1
1068,-4,1,4,1,8,1,0,1,-6,1,6,1,4,1,17,1,-9,1,-6,1,-7,1,-8,1
1069,-3,1,4,1,7,1,0,1,-5,1,5,1,4,1,13,1,-9,1,-7,1,-8,1,-10,1
1070,-1,1,4,1,5,1,-1,1,-3,1,4,1,1,1,7,1,-9,1,-9,1,-10,1,-14,1
1071,0,1,4,1,4,1,-2,1,-2,1,4,1,-1,1,1,1,-11,1,-11,1,-10,1,-14,1
1072,-3,1,3,1,6,1,0,1,-4,1,4,1,-1,1,-2,1,-10,1,-10,1,-9,1,-14,1
1073,-1,1,1,1,2,1,0,1,-1,1,1,1,-2,1,-5,1,-11,1,-12,1,-10,1,-14,1
1074,-4,1,0,1,4,1,2,1,-4,1,2,1,0,1,-1,1,-9,1,-9,1,-9,1,-12,1
1075,-5,1,1,1,6,1,2,1,-5,1,3,1,2,1,6,1,-9,1,-7,1,-7,1,-11,1
1076,-5,1,2,1,7,1,1,1,-6,1,4,1,4,1,12,1,-9,1,-7,1,-7,1,-10,1
1077,-5,1,3,1,8,1,1,1,-6,1,5,1,6,1,18,1,-9,1,-7,1,-8,1,-9,1
1078,-7,1,3,1,10,1,2,1,-8,1,6,1,6,1,20,1,-7,1,-6,1,-8,1,-10,1
1079,-8,1,4,1,12,1,2,1,-10,1,8,1,7,1,17,1,-7,1,-7,1,-7,1,-11,1
1080,-4,1,4,1,8,1,0,1,-6,1,6,1,4,1,11,1,-7,1,-7,1,-9,1,-12,1
1081,-8,1,4,1,12,1,2,1,-10,1,8,1,1,1,4,1,-9,1,-10,1,-10,1,-14,1
1082,-6,1,4,1,10,1,1,1,-8,1,7,1,0,1,-1,1,-9,1,-11,1,-11,1,-15,1
1083,-3,1,3,1,6,1,0,1,-4,1,4,1,-1,1,-2,1,-9,1,-11,1,-11,1,-14,1
1084,-2,1,5,1,7,1,-1,1,-4,1,6,1,0,1,1,1,-9,1,-10,1,-9,1,-15,1
1085,-2,1,7,1,9,1,-2,1,-5,1,8,1,2,1,7,1,-7,1,-8,1,-9,1,-13,1
1086,-2,1,3,1,5,1,0,1,-3,1,4,1,3,1,12,1,-6,1,-7,1,-9,1,-12,1
1087,-5,1,3,1,8,1,1,1,-6,1,5,1,6,1,17,1,-7,1,-7,1,-10,1,-11,1
1088,-6,1,3,1,9,1,1,1,-7,1,6,1,7,1,20,1,-6,1,-5,1,-8,1,-11,1
1089,-6,1,2,1,8,1,2,1,-7,1,5,1,6,1,18,1,-5,1,-5,1,-6,1,-11,1
1090,-7,1,3,1,10,1,2,1,-8,1,6,1,4,1,11,1,-6,1,-7,1,-9,1,-13,1
1091,-7,1,6,1,13,1,0,1,-10,1,9,1,3,1,6,1,-5,1,-7,1,-9,1,-13,1
1092,-5,1,7,1,12,1,-1,1,-8,1,9,1,1,1,0,1,-5,1,-7,1,-9,1,-13,1
1093,-4,1,6,1,10,1,-1,1,-7,1,8,1,0,1,-2,1,-7,1,-8,1,-10,1,-15,1
1094,-1,1,7,1,8,1,-3,1,-4,1,7,1,-1,1,-1,1,-8,1,-8,1,-10,1,-15,1
1095,-3,1,7,1,10,1,-2,1,-6,1,8,1,1,1,6,1,-6,1,-6,1,-9,1,-12,1
1096,-6,1,7,1,13,1,0,1,-9,1,10,1,4,1,13,1,-6,1,-4,1,-8,1,-11,1
1097,-5,1,7,1,12,1,-1,1,-8,1,9,1,6,1,19,1,-4,1,-3,1,-7,1,-10,1
1098,-3,1,5,1,8,1,-1,1,-5,1,6,1,6,1,21,1,-4,1,-2,1,-6,1,-9,1
1099,-3,1,7,1,10,1,-2,1,-6,1,8,1,4,1,19,1,-4,1,-4,1,-7,1,-10,1
1100,-3,1,11,1,14,1,-4,1,-8,1,12,1,0,1,12,1,-6,1,-7,1,-9,1,-13,1
1101,-5,1,13,1,18,1,-4,1,-11,1,15,1,-1,1,6,1,-6,1,-8,1,-9,1,-13,1
1102,-5,1,7,1,12,1,-1,1,-8,1,9,1,0,1,4,1,-3,1,-6,1,-8,1,-11,1
1103,-9,1,-1,1,8,1,5,1,-9,1,3,1,4,1,5,1,0,1,-2,1,-3,1,-7,1
1104,-8,1,3,1,11,1,2,1,-9,1,7,1,3,1,5,1,-3,1,-3,1,-5,1,-10,1
1105,-6,1,6,1,12,1,0,1,-9,1,9,1,3,1,10,1,-3,1,-2,1,-6,1,-8,1
1106,-6,1,6,1,12,1,0,1,-9,1,9,1,4,1,15,1,-3,1,0,1,-6,1,-9,1
1107,-5,1,7,1,12,1,-1,1,-8,1,9,1,5,1,21,1,-2,1,1,1,-6,1,-8,1
1108,-2,1,8,1,10,1,-3,1,-6,1,9,1,4,1,21,1,-3,1,-1,1,-7,1,-10,1
1109,-5,1,8,1,13,1,-1,1,-9,1,10,1,4,1,20,1,-3,1,-1,1,-7,1,-10,1
1110,-6,1,9,1,15,1,-1,1,-10,1,12,1,3,1,16,1,-1,1,-2,1,-6,1,-10,1
1111,-5,1,9,1,14,1,-2,1,-9,1,11,1,0,1,9,1,-2,1,-3,1,-8,1,-12,1
1112,-5,1,11,1,16,1,-3,1,-10,1,13,1,-1,1,4,1,-4,1,-5,1,-9,1,-13,1
1113,-5,1,9,1,14,1,-2,1,-9,1,11,1,-2,1,2,1,-3,1,-5,1,-7,1,-11,1
1114,-2,1,9,1,11,1,-3,1,-6,1,10,1,-1,1,5,1,-3,1,-4,1,-7,1,-12,1
1115,-3,1,10,1,13,1,-3,1,-8,1,11,1,0,1,8,1,-4,1,-4,1,-8,1,-13,1
1116,-2,1,8,1,10,1,-3,1,-6,1,9,1,0,1,13,1,-4,1,-2,1,-7,1,-11,1
1117,0,1,9,1,9,1,-4,1,-4,1,9,1,1,1,19,1,-4,1,-1,1,-6,1,-9,1
1118,-5,1,7,1,12,1,-1,1,-8,1,9,1,5,1,24,1,-1,1,0,1,-4,1,-7,1
1119,-7,1,8,1,15,1,0,1,-11,1,11,1,2,1,20,1,-2,1,0,1,-4,1,-9,1
1120,-4,1,9,1,13,1,-2,1,-8,1,11,1,0,1,14,1,-3,1,0,1,-5,1,-9,1
1121,-3,1,9,1,12,1,-3,1,-7,1,10,1,-1,1,7,1,-3,1,-1,1,-3,1,-8,1
1122,-2,1,7,1,9,1,-2,1,-5,1,8,1,-2,1,3,1,-3,1,-2,1,-3,1,-9,1
1123,-6,1,5,1,11,1,0,1,-8,1,8,1,-1,1,1,1,-3,1,-2,1,-4,1,-9,1
1124,-5,1,4,1,9,1,0,1,-7,1,6,1,-1,1,2,1,-2,1,-1,1,-3,1,-9,1
1125,-2,1,4,1,6,1,-1,1,-4,1,5,1,0,1,8,1,-2,1,-1,1,-4,1,-8,1
1126,0,1,7,1,7,1,-3,1,-3,1,7,1,0,1,12,1,-4,1,-2,1,-7,1,-11,1
1127,-1,1,8,1,9,1,-3,1,-5,1,8,1,2,1,19,1,-3,1,-1,1,-5,1,-9,1
1128,-1,1,9,1,10,1,-4,1,-5,1,9,1,1,1,20,1,-3,1,0,1,-4,1,-9,1
1129,-3,1,7,1,10,1,-2,1,-6,1,8,1,1,1,18,1,-3,1,-2,1,-5,1,-9,1
1130,-5,1,5,1,10,1,0,1,-7,1,7,1,0,1,12,1,-1,1,-2,1,-7,1,-9,1
1131,-5,1,3,1,8,1,1,1,-6,1,5,1,-1,1,7,1,-2,1,-3,1,-6,1,-9,1
1132,-2,1,3,1,5,1,0,1,-3,1,4,1,-5,1,0,1,-4,1,-6,1,-7,1,-11,1
1133,0,1,6,1,6,1,-3,1,-3,1,6,1,-4,1,-1,1,-4,1,-6,1,-7,1,-11,1
1134,2,1,6,1,4,1,-4,1,-1,1,5,1,-5,1,0,1,-6,1,-8,1,-9,1,-13,1
1135,0,1,5,1,5,1,-2,1,-2,1,5,1,-3,1,4,1,-6,1,-4,1,-9,1,-11,1
1136,0,1,5,1,5,1,-2,1,-2,1,5,1,-1,1,9,1,-6,1,-4,1,-9,1,-11,1
1137,3,1,6,1,3,1,-4,1,0,1,5,1,-1,1,15,1,-6,1,-4,1,-9,1,-12,1
1138,0,1,9,1,9,1,-4,1,-4,1,9,1,0,1,17,1,-5,1,-1,1,-7,1,-10,1
1139,-3,1,8,1,11,1,-2,1,-7,1,9,1,1,1,16,1,-4,1,-1,1,-6,1,-8,1
1140,-2,1,4,1,6,1,-1,1,-4,1,5,1,0,1,11,1,-3,1,-2,1,-6,1,-7,1
1141,-3,1,4,1,7,1,0,1,-5,1,5,1,-2,1,5,1,-3,1,-2,1,-5,1,-7,1
1142,0,1,4,1,4,1,-2,1,-2,1,4,1,-4,1,-1,1,-5,1,-5,1,-8,1,-11,1
1143,-4,1,4,1,8,1,0,1,-6,1,6,1,-4,1,-3,1,-6,1,-5,1,-8,1,-11,1
1144,-10,1,1,1,11,1,4,1,-10,1,6,1,-2,1,1,1,-3,1,-1,1,-6,1,-8,1
1145,-13,1,1,1,14,1,6,1,-13,1,7,1,0,1,8,1,-3,1,0,1,-4,1,-6,1
1146,-6,1,4,1,10,1,1,1,-8,1,7,1,1,1,13,1,-3,1,0,1,-5,1,-8,1
1147,-2,1,5,1,7,1,-1,1,-4,1,6,1,1,1,18,1,-4,1,0,1,-6,1,-8,1
1148,-3,1,6,1,9,1,-1,1,-6,1,7,1,2,1,18,1,-4,1,0,1,-7,1,-7,1
1149,-4,1,6,1,10,1,-1,1,-7,1,8,1,1,1,15,1,-4,1,-1,1,-7,1,-7,1
1150,-5,1,6,1,11,1,0,1,-8,1,8,1,0,1,9,1,-4,1,-1,1,-8,1,-8,1
1151,-3,1,5,1,8,1,-1,1,-5,1,6,1,-1,1,3,1,-5,1,-1,1,-6,1,-7,1
1152,-4,1,3,1,7,1,0,1,-5,1,5,1,-2,1,0,1,-5,1,-1,1,-6,1,-7,1
1153,0,1,4,1,4,1,-2,1,-2,1,4,1,-6,1,-5,1,-8,1,-5,1,-9,1,-11,1
1154,1,1,5,1,4,1,-3,1,-1,1,5,1,-5,1,-2,1,-8,1,-4,1,-9,1,-11,1
1155,0,1,1,1,1,1,0,1,0,1,1,1,-1,1,4,1,-6,1,-2,1,-8,1,-9,1
1156,-3,1,2,1,5,1,0,1,-4,1,3,1,0,1,9,1,-6,1,-1,1,-8,1,-8,1
1157,-4,1,2,1,6,1,1,1,-5,1,4,1,2,1,15,1,-6,1,0,1,-8,1,-6,1
1158,1,1,3,1,2,1,-2,1,0,1,3,1,1,1,16,1,-6,1,-1,1,-8,1,-9,1
1159,3,1,3,1,0,1,-3,1,2,1,2,1,-1,1,13,1,-7,1,-2,1,-9,1,-9,1
1160,1,1,1,1,0,1,-1,1,1,1,1,1,-1,1,8,1,-7,1,-3,1,-8,1,-8,1
1161,2,1,-1,1,-3,1,0,1,2,1,-2,1,-3,1,3,1,-7,1,-3,1,-8,1,-9,1
1162,0,1,0,1,0,1,0,1,0,1,0,1,-3,1,0,1,-6,1,-2,1,-7,1,-8,1
1163,-4,1,0,1,4,1,2,1,-4,1,2,1,-3,1,-2,1,-6,1,-3,1,-8,1,-8,1
1164,-7,1,1,1,8,1,3,1,-7,1,4,1,-2,1,0,1,-6,1,-2,1,-7,1,-8,1
1165,-4,1,1,1,5,1,1,1,-4,1,3,1,-2,1,4,1,-6,1,0,1,-8,1,-7,1
1166,-2,1,5,1,7,1,-1,1,-4,1,6,1,-2,1,9,1,-7,1,0,1,-9,1,-7,1
1167,0,1,6,1,6,1,-3,1,-3,1,6,1,0,1,14,1,-7,1,0,1,-8,1,-8,1
1168,0,1,0,1,0,1,0,1,0,1,0,1,1,1,18,1,-6,1,1,1,-7,1,-7,1
1169,-1,1,2,1,3,1,0,1,-2,1,2,1,-1,1,15,1,-7,1,0,1,-9,1,-8,1
1170,0,1,3,1,3,1,-1,1,-1,1,3,1,-3,1,10,1,-7,1,-1,1,-10,1,-8,1
1171,-1,1,2,1,3,1,0,1,-2,1,2,1,-4,1,2,1,-7,1,-1,1,-11,1,-10,1
1172,0,1,1,1,1,1,0,1,0,1,1,1,-5,1,-2,1,-7,1,-2,1,-10,1,-11,1
1173,1,1,3,1,2,1,-2,1,0,1,3,1,-4,1,-2,1,-6,1,0,1,-9,1,-8,1
1174,1,1,3,1,2,1,-2,1,0,1,3,1,-4,1,0,1,-7,1,-2,1,-10,1,-9,1
1175,0,1,3,1,3,1,-1,1,-1,1,3,1,-2,1,6,1,-6,1,0,1,-10,1,-9,1
1176,-1,1,3,1,4,1,-1,1,-2,1,3,1,0,1,14,1,-3,1,1,1,-8,1,-7,1
1177,2,1,5,1,3,1,-3,1,0,1,4,1,2,1,22,1,0,1,5,1,-5,1,-5,1
1178,8,1,7,1,-1,1,-7,1,5,1,3,1,3,1,25,1,0,1,6,1,-5,1,-5,1
1179,11,1,9,1,-2,1,-10,1,7,1,4,1,3,1,24,1,1,1,5,1,-5,1,-6,1
1180,11,1,10,1,-1,1,-10,1,6,1,5,1,2,1,20,1,1,1,5,1,-5,1,-7,1
1181,10,1,8,1,-2,1,-9,1,6,1,3,1,1,1,14,1,2,1,4,1,-5,1,-6,1
1182,10,1,7,1,-3,1,-8,1,7,1,2,1,0,1,10,1,3,1,4,1,-3,1,-5,1
1183,9,1,9,1,0,1,-9,1,5,1,5,1,1,1,10,1,5,1,7,1,-1,1,-4,1
1184,11,1,11,1,0,1,-11,1,6,1,6,1,0,1,11,1,4,1,7,1,-1,1,-3,1
1185,10,1,11,1,1,1,-10,1,5,1,6,1,3,1,18,1,6,1,9,1,0,1,0,1
1186,6,1,15,1,9,1,-10,1,-1,1,12,1,5,1,23,1,7,1,11,1,0,1,0,1
1187,6,1,18,1,12,1,-12,1,-3,1,15,1,6,1,28,1,7,1,12,1,2,1,1,1
1188,11,1,19,1,8,1,-15,1,2,1,14,1,7,1,30,1,9,1,14,1,4,1,4,1
1189,10,1,20,1,10,1,-15,1,0,1,15,1,7,1,30,1,11,1,14,1,3,1,3,1
1190,11,1,20,1,9,1,-15,1,1,1,15,1,4,1,24,1,11,1,12,1,2,1,1,1
1191,15,1,23,1,8,1,-19,1,4,1,16,1,3,1,18,1,11,1,12,1,2,1,1,1
1192,14,1,22,1,8,1,-18,1,3,1,15,1,1,1,13,1,11,1,11,1,2,1,0,1
1193,13,1,20,1,7,1,-16,1,3,1,14,1,1,1,12,1,12,1,13,1,4,1,1,1
1194,18,1,20,1,2,1,-19,1,8,1,11,1,-1,1,13,1,12,1,14,1,5,1,2,1
1195,18,1,20,1,2,1,-19,1,8,1,11,1,-2,1,17,1,11,1,15,1,5,1,3,1
1196,12,1,20,1,8,1,-16,1,2,1,14,1,-1,1,21,1,11,1,17,1,7,1,6,1
1197,14,1,22,1,8,1,-18,1,3,1,15,1,0,1,26,1,11,1,18,1,7,1,6,1
1198,16,1,21,1,5,1,-18,1,6,1,13,1,-2,1,26,1,10,1,18,1,7,1,5,1
1199,20,1,20,1,0,1,-20,1,10,1,10,1,-6,1,24,1,10,1,17,1,6,1,3,1
1200,16,1,20,1,4,1,-18,1,6,1,12,1,-9,1,19,1,10,1,16,1,6,1,3,1
1201,14,1,15,1,1,1,-14,1,7,1,8,1,-11,1,13,1,9,1,17,1,7,1,4,1
1202,12,1,14,1,2,1,-13,1,5,1,8,1,-14,1,5,1,5,1,13,1,4,1,3,1
1203,13,1,12,1,-1,1,-12,1,7,1,6,1,-16,1,1,1,3,1,11,1,4,1,1,1
1204,12,1,12,1,0,1,-12,1,6,1,6,1,-16,1,1,1,0,1,10,1,3,1,0,1
1205,13,1,10,1,-3,1,-11,1,8,1,4,1,-17,1,3,1,-2,1,8,1,0,1,0,1
1206,15,1,11,1,-4,1,-13,1,10,1,4,1,-16,1,8,1,-3,1,7,1,0,1,0,1
1207,16,1,13,1,-3,1,-14,1,10,1,5,1,-16,1,10,1,-7,1,4,1,-4,1,-2,1
1208,17,1,8,1,-9,1,-12,1,13,1,0,1,-14,1,12,1,-5,1,5,1,-1,1,-1,1
1209,12,1,5,1,-7,1,-8,1,10,1,-1,1,-12,1,11,1,-4,1,7,1,0,1,0,1
1210,7,1,5,1,-2,1,-6,1,5,1,2,1,-13,1,6,1,-5,1,4,1,-1,1,-1,1
1211,6,1,4,1,-2,1,-5,1,4,1,1,1,-15,1,-2,1,-7,1,0,1,-4,1,-4,1
1212,2,1,3,1,1,1,-2,1,1,1,2,1,-14,1,-6,1,-7,1,0,1,-5,1,-5,1
1213,3,1,0,1,-3,1,-1,1,3,1,-1,1,-13,1,-7,1,-5,1,1,1,-4,1,-5,1
1214,0,1,0,1,0,1,0,1,0,1,0,1,-11,1,-4,1,-5,1,2,1,-4,1,-6,1
1215,-2,1,-1,1,1,1,1,1,-2,1,0,1,-6,1,2,1,-4,1,4,1,-4,1,-6,1
1216,0,1,0,1,0,1,0,1,0,1,0,1,-6,1,9,1,-6,1,3,1,-5,1,-7,1
1217,1,1,-1,1,-2,1,0,1,1,1,-1,1,-5,1,13,1,-7,1,1,1,-8,1,-8,1
1218,2,1,-1,1,-3,1,0,1,2,1,-2,1,-4,1,15,1,-8,1,0,1,-9,1,-9,1
1219,-2,1,-1,1,1,1,1,1,-2,1,0,1,-4,1,13,1,-8,1,0,1,-8,1,-9,1
1220,-4,1,-3,1,1,1,3,1,-3,1,-1,1,-6,1,6,1,-10,1,-3,1,-10,1,-11,1
1221,-2,1,-5,1,-3,1,3,1,0,1,-4,1,-8,1,0,1,-10,1,-5,1,-13,1,-14,1
1222,-2,1,-5,1,-3,1,3,1,0,1,-4,1,-9,1,-5,1,-10,1,-5,1,-13,1,-14,1
1223,0,1,-3,1,-3,1,1,1,1,1,-3,1,-10,1,-8,1,-12,1,-6,1,-15,1,-16,1
1224,0,1,-5,1,-5,1,2,1,2,1,-5,1,-8,1,-6,1,-12,1,-6,1,-14,1,-16,1
1225,-1,1,-5,1,-4,1,3,1,1,1,-5,1,-6,1,0,1,-11,1,-4,1,-14,1,-14,1
1226,0,1,-4,1,-4,1,2,1,2,1,-4,1,-5,1,5,1,-11,1,-3,1,-13,1,-13,1
1227,-3,1,-3,1,0,1,3,1,-2,1,-2,1,-3,1,11,1,-10,1,-1,1,-12,1,-12,1
1228,-2,1,-2,1,0,1,2,1,-1,1,-1,1,-4,1,13,1,-10,1,-3,1,-13,1,-13,1
1229,-3,1,-2,1,1,1,2,1,-2,1,-1,1,-5,1,10,1,-11,1,-4,1,-13,1,-13,1
1230,-5,1,-2,1,3,1,3,1,-4,1,0,1,-5,1,6,1,-10,1,-4,1,-12,1,-13,1
1231,-6,1,-3,1,3,1,4,1,-5,1,0,1,-6,1,0,1,-11,1,-4,1,-13,1,-14,1
1232,-2,1,-3,1,-1,1,2,1,-1,1,-2,1,-7,1,-5,1,-11,1,-6,1,-12,1,-15,1
1233,-3,1,-3,1,0,1,3,1,-2,1,-2,1,-8,1,-8,1,-11,1,-5,1,-12,1,-14,1
1234,-4,1,-4,1,0,1,4,1,-2,1,-2,1,-7,1,-5,1,-12,1,-5,1,-10,1,-13,1
1235,-7,1,-5,1,2,1,6,1,-5,1,-2,1,-4,1,0,1,-10,1,-2,1,-9,1,-11,1
1236,-6,1,-5,1,1,1,5,1,-4,1,-2,1,-4,1,6,1,-10,1,-1,1,-10,1,-11,1
1237,-6,1,-5,1,1,1,5,1,-4,1,-2,1,-2,1,10,1,-12,1,-3,1,-12,1,-11,1
1238,-5,1,-5,1,0,1,5,1,-3,1,-3,1,-4,1,12,1,-11,1,-3,1,-12,1,-12,1
1239,-4,1,-4,1,0,1,4,1,-2,1,-2,1,-5,1,9,1,-11,1,-3,1,-12,1,-12,1
1240,-4,1,-2,1,2,1,3,1,-3,1,0,1,-6,1,5,1,-10,1,-4,1,-11,1,-13,1
1241,-2,1,-2,1,0,1,2,1,-1,1,-1,1,-8,1,-1,1,-10,1,-5,1,-12,1,-13,1
1242,-3,1,-5,1,-2,1,4,1,-1,1,-4,1,-10,1,-7,1,-11,1,-6,1,-13,1,-14,1
1243,-3,1,-7,1,-4,1,5,1,0,1,-6,1,-10,1,-9,1,-12,1,-7,1,-13,1,-15,1
1244,-2,1,-4,1,-2,1,3,1,0,1,-3,1,-9,1,-6,1,-11,1,-5,1,-12,1,-14,1
1245,-2,1,-4,1,-2,1,3,1,0,1,-3,1,-7,1,-2,1,-10,1,-4,1,-11,1,-13,1
1246,-3,1,-5,1,-2,1,4,1,-1,1,-4,1,-5,1,4,1,-9,1,-2,1,-11,1,-11,1
1247,-3,1,-4,1,-1,1,3,1,-1,1,-3,1,-5,1,10,1,-9,1,-2,1,-11,1,-11,1
1248,-3,1,-3,1,0,1,3,1,-2,1,-2,1,-4,1,12,1,-10,1,-3,1,-11,1,-12,1
1249,-2,1,-4,1,-2,1,3,1,0,1,-3,1,-5,1,9,1,-11,1,-4,1,-12,1,-12,1
1250,-3,1,-4,1,-1,1,3,1,-1,1,-3,1,-7,1,4,1,-10,1,-4,1,-11,1,-13,1
1251,-5,1,-5,1,0,1,5,1,-3,1,-3,1,-7,1,0,1,-10,1,-5,1,-11,1,-12,1
1252,-5,1,-5,1,0,1,5,1,-3,1,-3,1,-9,1,-6,1,-11,1,-5,1,-11,1,-14,1
1253,-7,1,-5,1,2,1,6,1,-5,1,-2,1,-9,1,-8,1,-11,1,-6,1,-12,1,-13,1
1254,-5,1,-3,1,2,1,4,1,-4,1,-1,1,-11,1,-8,1,-13,1,-7,1,-12,1,-15,1
1255,-5,1,-3,1,2,1,4,1,-4,1,-1,1,-9,1,-2,1,-12,1,-4,1,-10,1,-11,1
1256,-6,1,-7,1,-1,1,6,1,-3,1,-4,1,-5,1,8,1,-5,1,2,1,-5,1,-8,1
1257,-3,1,0,1,3,1,1,1,-3,1,1,1,-4,1,21,1,0,1,7,1,-4,1,-7,1
1258,2,1,6,1,4,1,-4,1,-1,1,5,1,-4,1,34,1,10,1,15,1,3,1,-2,1
1259,9,1,10,1,1,1,-9,1,4,1,6,1,-4,1,50,1,25,1,27,1,13,1,3,1
1260,17,1,13,1,-4,1,-15,1,11,1,5,1,1,1,82,1,50,1,43,1,21,1,7,1
1261,25,1,17,1,-8,1,-21,1,17,1,5,1,15,1,131,1,89,1,66,1,34,1,9,1
1262,33,1,23,1,-10,1,-28,1,22,1,7,1,31,1,170,1,132,1,92,1,48,1,15,1
1263,42,1,31,1,-11,1,-36,1,27,1,10,1,44,1,189,1,164,1,120,1,70,1,29,1
1264,58,1,40,1,-18,1,-49,1,38,1,11,1,51,1,204,1,193,1,154,1,103,1,52,1
1265,82,1,53,1,-29,1,-67,1,56,1,12,1,57,1,225,1,226,1,194,1,148,1,84,1
1266,114,1,68,1,-46,1,-91,1,80,1,11,1,45,1,226,1,245,1,235,1,202,1,124,1
1267,148,1,87,1,-61,1,-117,1,105,1,13,1,22,1,208,1,245,1,271,1,261,1,171,1
1268,180,1,108,1,-72,1,-144,1,126,1,18,1,-14,1,123,1,198,1,289,1,320,1,221,1
1269,210,1,124,1,-86,1,-167,1,148,1,19,1,-43,1,38,1,137,1,297,1,375,1,269,1
1270,236,1,141,1,-95,1,-188,1,166,1,23,1,-67,1,-35,1,80,1,297,1,419,1,310,1
1271,245,1,161,1,-84,1,-203,1,165,1,39,1,-96,1,-114,1,18,1,276,1,435,1,334,1
1272,245,1,174,1,-71,1,-209,1,158,1,52,1,-139,1,-191,1,-50,1,247,1,434,1,344,1
1273,249,1,180,1,-69,1,-214,1,159,1,56,1,-192,1,-264,1,-112,1,220,1,424,1,348,1
1274,242,1,173,1,-69,1,-207,1,156,1,52,1,-230,1,-315,1,-167,1,174,1,379,1,328,1
1275,221,1,150,1,-71,1,-185,1,146,1,40,1,-254,1,-349,1,-229,1,98,1,298,1,282,1
1276,183,1,115,1,-68,1,-149,1,126,1,24,1,-255,1,-370,1,-279,1,18,1,207,1,227,1
1277,115,1,70,1,-45,1,-92,1,80,1,13,1,-228,1,-372,1,-318,1,-72,1,88,1,145,1
1278,40,1,25,1,-15,1,-32,1,28,1,5,1,-195,1,-366,1,-347,1,-163,1,-38,1,51,1
1279,-4,1,0,1,4,1,2,1,-4,1,2,1,-182,1,-372,1,-368,1,-223,1,-107,1,1,1
1280,-38,1,-21,1,17,1,29,1,-28,1,-2,1,-159,1,-356,1,-367,1,-254,1,-141,1,-31,1
1281,-60,1,-40,1,20,1,50,1,-40,1,-10,1,-131,1,-319,1,-339,1,-250,1,-157,1,-59,1
1282,-59,1,-47,1,12,1,53,1,-36,1,-18,1,-115,1,-279,1,-298,1,-230,1,-153,1,-69,1
1283,-48,1,-39,1,9,1,43,1,-29,1,-15,1,-103,1,-235,1,-252,1,-197,1,-132,1,-60,1
1284,-41,1,-27,1,14,1,34,1,-28,1,-7,1,-91,1,-191,1,-207,1,-161,1,-108,1,-49,1
1285,-37,1,-17,1,20,1,27,1,-29,1,1,1,-80,1,-154,1,-173,1,-132,1,-90,1,-42,1
1286,-34,1,-13,1,21,1,23,1,-28,1,4,1,-67,1,-123,1,-143,1,-108,1,-76,1,-37,1
1287,-28,1,-13,1,15,1,20,1,-22,1,1,1,-56,1,-97,1,-120,1,-88,1,-64,1,-32,1
1288,-18,1,-15,1,3,1,16,1,-11,1,-6,1,-43,1,-68,1,-92,1,-63,1,-49,1,-26,1
1289,-13,1,-11,1,2,1,12,1,-8,1,-5,1,-30,1,-43,1,-64,1,-41,1,-31,1,-18,1
1290,-9,1,-6,1,3,1,7,1,-6,1,-2,1,-25,1,-33,1,-49,1,-30,1,-25,1,-15,1
1291,-9,1,-4,1,5,1,6,1,-7,1,0,1,-22,1,-28,1,-38,1,-23,1,-20,1,-13,1
1292,-5,1,-4,1,1,1,4,1,-3,1,-2,1,-21,1,-29,1,-34,1,-20,1,-20,1,-12,1
1293,-4,1,-5,1,-1,1,4,1,-2,1,-3,1,-20,1,-25,1,-30,1,-18,1,-18,1,-13,1
1294,-3,1,-4,1,-1,1,3,1,-1,1,-3,1,-18,1,-20,1,-27,1,-15,1,-18,1,-13,1
1295,-7,1,-3,1,4,1,5,1,-6,1,0,1,-14,1,-10,1,-24,1,-12,1,-16,1,-11,1
1296,-8,1,-3,1,5,1,5,1,-7,1,1,1,-12,1,-2,1,-21,1,-11,1,-17,1,-12,1
1297,-6,1,-3,1,3,1,4,1,-5,1,0,1,-10,1,4,1,-19,1,-10,1,-18,1,-13,1
1298,-6,1,-3,1,3,1,4,1,-5,1,0,1,-8,1,10,1,-17,1,-9,1,-17,1,-13,1
1299,-5,1,0,1,5,1,2,1,-5,1,2,1,-7,1,10,1,-15,1,-7,1,-17,1,-14,1
1300,-4,1,0,1,4,1,2,1,-4,1,2,1,-7,1,7,1,-13,1,-8,1,-17,1,-14,1
1301,-3,1,0,1,3,1,1,1,-3,1,1,1,-8,1,1,1,-13,1,-9,1,-19,1,-17,1
1302,-4,1,-3,1,1,1,3,1,-3,1,-1,1,-9,1,-3,1,-12,1,-9,1,-19,1,-18,1
1303,-2,1,-6,1,-4,1,4,1,1,1,-5,1,-9,1,-3,1,-11,1,-7,1,-17,1,-18,1
1304,-1,1,-4,1,-3,1,2,1,1,1,-4,1,-8,1,0,1,-11,1,-6,1,-18,1,-18,1
1305,-5,1,-4,1,1,1,4,1,-3,1,-2,1,-4,1,7,1,-10,1,-5,1,-16,1,-16,1
1306,-7,1,-1,1,6,1,4,1,-7,1,2,1,-1,1,14,1,-8,1,-3,1,-16,1,-15,1
1307,-5,1,0,1,5,1,2,1,-5,1,2,1,0,1,20,1,-7,1,-1,1,-15,1,-16,1
1308,-6,1,-2,1,4,1,4,1,-5,1,1,1,0,1,22,1,-6,1,-2,1,-15,1,-16,1
1309,-6,1,-1,1,5,1,3,1,-6,1,2,1,0,1,22,1,-6,1,-2,1,-15,1,-15,1
1310,-6,1,-2,1,4,1,4,1,-5,1,1,1,-1,1,18,1,-5,1,-2,1,-14,1,-14,1
1311,-6,1,-2,1,4,1,4,1,-5,1,1,1,-3,1,12,1,-4,1,-2,1,-14,1,-17,1
1312,-5,1,0,1,5,1,2,1,-5,1,2,1,-5,1,6,1,-5,1,-2,1,-16,1,-18,1
1313,-6,1,-4,1,2,1,5,1,-4,1,-1,1,-3,1,5,1,-3,1,-1,1,-13,1,-16,1
1314,-7,1,-5,1,2,1,6,1,-5,1,-2,1,-2,1,8,1,-3,1,0,1,-12,1,-15,1
1315,-9,1,-4,1,5,1,6,1,-7,1,0,1,0,1,13,1,-2,1,1,1,-12,1,-15,1
1316,-6,1,-2,1,4,1,4,1,-5,1,1,1,1,1,19,1,-2,1,2,1,-12,1,-14,1
1317,-4,1,1,1,5,1,1,1,-4,1,3,1,1,1,24,1,-2,1,3,1,-12,1,-14,1
1318,-3,1,-3,1,0,1,3,1,-2,1,-2,1,2,1,26,1,-2,1,3,1,-11,1,-12,1
1319,-1,1,-3,1,-2,1,2,1,0,1,-3,1,1,1,25,1,-2,1,2,1,-12,1,-13,1
1320,-1,1,-2,1,-1,1,1,1,0,1,-2,1,-1,1,19,1,-3,1,0,1,-13,1,-15,1
1321,-3,1,-1,1,2,1,2,1,-3,1,0,1,-3,1,14,1,-2,1,0,1,-13,1,-15,1
1322,-4,1,-1,1,3,1,2,1,-4,1,1,1,-3,1,10,1,-1,1,0,1,-11,1,-14,1
1323,-6,1,-3,1,3,1,4,1,-5,1,0,1,-2,1,8,1,-1,1,2,1,-10,1,-13,1
1324,-5,1,-3,1,2,1,4,1,-4,1,-1,1,-2,1,9,1,-2,1,1,1,-12,1,-15,1
1325,-4,1,-3,1,1,1,3,1,-3,1,-1,1,-2,1,14,1,-4,1,0,1,-13,1,-15,1
1326,-5,1,-1,1,4,1,3,1,-5,1,1,1,1,1,20,1,-3,1,2,1,-12,1,-15,1
1327,-3,1,0,1,3,1,1,1,-3,1,1,1,2,1,25,1,-3,1,2,1,-13,1,-15,1
1328,-3,1,-2,1,1,1,2,1,-2,1,-1,1,1,1,27,1,-3,1,2,1,-13,1,-15,1
1329,-1,1,0,1,1,1,0,1,-1,1,0,1,1,1,26,1,-3,1,2,1,-13,1,-14,1
1330,0,1,2,1,2,1,-1,1,-1,1,2,1,0,1,22,1,-1,1,2,1,-11,1,-14,1
1331,-2,1,1,1,3,1,0,1,-2,1,2,1,-1,1,15,1,-2,1,1,1,-12,1,-15,1
1332,-2,1,0,1,2,1,1,1,-2,1,1,1,-3,1,9,1,-3,1,0,1,-13,1,-16,1
1333,-2,1,-1,1,1,1,1,1,-2,1,0,1,-4,1,7,1,-2,1,1,1,-11,1,-15,1
1334,-4,1,-2,1,2,1,3,1,-3,1,0,1,-3,1,10,1,-1,1,2,1,-11,1,-14,1
1335,-3,1,0,1,3,1,1,1,-3,1,1,1,-3,1,14,1,-3,1,1,1,-12,1,-14,1
1336,-2,1,3,1,5,1,0,1,-3,1,4,1,-2,1,19,1,-4,1,2,1,-12,1,-15,1
1337,-1,1,3,1,4,1,-1,1,-2,1,3,1,-1,1,25,1,-3,1,3,1,-11,1,-15,1
1338,-1,1,-3,1,-2,1,2,1,0,1,-3,1,1,1,29,1,-2,1,5,1,-10,1,-12,1
1339,-1,1,-3,1,-2,1,2,1,0,1,-3,1,0,1,27,1,-2,1,4,1,-11,1,-12,1
1340,-1,1,-2,1,-1,1,1,1,0,1,-2,1,-2,1,20,1,-2,1,2,1,-11,1,-13,1
1341,-1,1,0,1,1,1,0,1,-1,1,0,1,-2,1,14,1,-3,1,2,1,-11,1,-14,1
1342,-3,1,0,1,3,1,1,1,-3,1,1,1,-5,1,10,1,-3,1,2,1,-11,1,-13,1
1343,-1,1,-1,1,0,1,1,1,-1,1,-1,1,-6,1,8,1,-2,1,2,1,-10,1,-13,1
1344,-2,1,-2,1,0,1,2,1,-1,1,-1,1,-4,1,9,1,-3,1,2,1,-11,1,-13,1
1345,0,1,-1,1,-1,1,0,1,0,1,-1,1,-5,1,13,1,-4,1,1,1,-12,1,-15,1
1346,-1,1,0,1,1,1,0,1,-1,1,0,1,-5,1,18,1,-4,1,3,1,-12,1,-14,1
1347,-5,1,2,1,7,1,1,1,-6,1,4,1,-1,1,26,1,-2,1,5,1,-11,1,-12,1
1348,-2,1,2,1,4,1,0,1,-3,1,3,1,-2,1,27,1,-4,1,5,1,-11,1,-12,1
1349,-1,1,3,1,4,1,-1,1,-2,1,3,1,-3,1,24,1,-3,1,4,1,-12,1,-13,1
1350,0,1,2,1,2,1,-1,1,-1,1,2,1,-5,1,19,1,-3,1,3,1,-12,1,-13,1
1351,0,1,0,1,0,1,0,1,0,1,0,1,-6,1,14,1,-3,1,1,1,-11,1,-12,1
1352,1,1,0,1,-1,1,0,1,1,1,0,1,-7,1,8,1,-4,1,0,1,-12,1,-12,1
1353,0,1,1,1,1,1,0,1,0,1,1,1,-8,1,6,1,-4,1,1,1,-14,1,-13,1
1354,-3,1,-1,1,2,1,2,1,-3,1,0,1,-7,1,8,1,-3,1,1,1,-12,1,-12,1
1355,-3,1,1,1,4,1,1,1,-3,1,2,1,-5,1,15,1,-3,1,4,1,-11,1,-9,1
1356,-1,1,3,1,4,1,-1,1,-2,1,3,1,-3,1,22,1,-3,1,6,1,-11,1,-8,1
1357,1,1,3,1,2,1,-2,1,0,1,3,1,-2,1,26,1,-3,1,6,1,-10,1,-7,1
1358,1,1,4,1,3,1,-2,1,-1,1,4,1,-4,1,27,1,-5,1,4,1,-12,1,-10,1
1359,3,1,5,1,2,1,-4,1,1,1,4,1,-5,1,26,1,-5,1,3,1,-12,1,-9,1
1360,0,1,5,1,5,1,-2,1,-2,1,5,1,-7,1,20,1,-4,1,3,1,-11,1,-9,1
1361,0,1,3,1,3,1,-1,1,-1,1,3,1,-9,1,15,1,-4,1,3,1,-11,1,-9,1
1362,3,1,2,1,-1,1,-2,1,2,1,1,1,-11,1,8,1,-5,1,1,1,-13,1,-11,1
1363,1,1,3,1,2,1,-2,1,0,1,3,1,-11,1,6,1,-4,1,2,1,-12,1,-10,1
1364,2,1,3,1,1,1,-2,1,1,1,2,1,-11,1,8,1,-5,1,3,1,-13,1,-9,1
1365,3,1,5,1,2,1,-4,1,1,1,4,1,-11,1,13,1,-7,1,3,1,-12,1,-8,1
1366,0,1,6,1,6,1,-3,1,-3,1,6,1,-9,1,20,1,-5,1,3,1,-12,1,-8,1
1367,0,1,4,1,4,1,-2,1,-2,1,4,1,-7,1,25,1,-5,1,5,1,-11,1,-7,1
1368,-1,1,8,1,9,1,-3,1,-5,1,8,1,-8,1,26,1,-5,1,4,1,-13,1,-7,1
1369,-3,1,12,1,15,1,-4,1,-9,1,13,1,-8,1,24,1,-4,1,4,1,-13,1,-7,1
1370,0,1,7,1,7,1,-3,1,-3,1,7,1,-11,1,18,1,-4,1,2,1,-11,1,-7,1
1371,5,1,7,1,2,1,-6,1,2,1,5,1,-14,1,12,1,-5,1,1,1,-12,1,-9,1
1372,4,1,8,1,4,1,-6,1,0,1,6,1,-16,1,4,1,-6,1,0,1,-14,1,-8,1
1373,-2,1,8,1,10,1,-3,1,-6,1,9,1,-15,1,5,1,-5,1,2,1,-11,1,-6,1
1374,-3,1,8,1,11,1,-2,1,-7,1,9,1,-16,1,6,1,-5,1,3,1,-11,1,-5,1
1375,-1,1,7,1,8,1,-3,1,-4,1,7,1,-15,1,10,1,-7,1,3,1,-11,1,-6,1
1376,0,1,9,1,9,1,-4,1,-4,1,9,1,-14,1,15,1,-7,1,3,1,-11,1,-4,1
1377,-1,1,10,1,11,1,-4,1,-6,1,10,1,-13,1,21,1,-7,1,5,1,-11,1,-2,1
1378,1,1,9,1,8,1,-5,1,-3,1,9,1,-14,1,22,1,-8,1,3,1,-12,1,-4,1
1379,2,1,12,1,10,1,-7,1,-4,1,11,1,-17,1,18,1,-9,1,1,1,-14,1,-6,1
1380,0,1,9,1,9,1,-4,1,-4,1,9,1,-18,1,13,1,-9,1,1,1,-12,1,-5,1
1381,-1,1,10,1,11,1,-4,1,-6,1,10,1,-19,1,7,1,-8,1,0,1,-13,1,-4,1
1382,0,1,9,1,9,1,-4,1,-4,1,9,1,-21,1,2,1,-8,1,0,1,-13,1,-3,1
1383,1,1,8,1,7,1,-4,1,-3,1,8,1,-21,1,0,1,-8,1,0,1,-11,1,-2,1
1384,4,1,15,1,11,1,-9,1,-3,1,13,1,-25,1,-1,1,-12,1,-2,1,-14,1,-5,1
1385,3,1,14,1,11,1,-8,1,-4,1,13,1,-25,1,3,1,-12,1,0,1,-13,1,-4,1
1386,3,1,13,1,10,1,-8,1,-3,1,12,1,-23,1,9,1,-12,1,0,1,-12,1,-1,1
1387,4,1,9,1,5,1,-6,1,0,1,7,1,-22,1,13,1,-11,1,2,1,-12,1,0,1
1388,4,1,11,1,7,1,-7,1,-1,1,9,1,-23,1,14,1,-12,1,1,1,-14,1,-1,1
1389,-2,1,13,1,15,1,-5,1,-8,1,14,1,-24,1,12,1,-12,1,1,1,-10,1,0,1
1390,-3,1,14,1,17,1,-5,1,-10,1,15,1,-25,1,6,1,-12,1,0,1,-9,1,0,1
1391,-1,1,13,1,14,1,-6,1,-7,1,13,1,-29,1,-2,1,-14,1,-2,1,-11,1,-1,1
1392,0,1,12,1,12,1,-6,1,-6,1,12,1,-32,1,-9,1,-17,1,-5,1,-12,1,-2,1
1393,1,1,14,1,13,1,-7,1,-6,1,14,1,-34,1,-13,1,-18,1,-5,1,-12,1,-1,1
1394,1,1,14,1,13,1,-7,1,-6,1,14,1,-34,1,-13,1,-19,1,-4,1,-11,1,1,1
1395,-1,1,14,1,15,1,-6,1,-8,1,14,1,-33,1,-9,1,-20,1,-5,1,-10,1,2,1
1396,-3,1,16,1,19,1,-6,1,-11,1,17,1,-33,1,-5,1,-21,1,-4,1,-11,1,2,1
1397,-2,1,16,1,18,1,-7,1,-10,1,17,1,-34,1,-2,1,-23,1,-7,1,-11,1,2,1
1398,0,1,16,1,16,1,-8,1,-8,1,16,1,-37,1,-3,1,-26,1,-8,1,-14,1,3,1
1399,2,1,16,1,14,1,-9,1,-6,1,15,1,-39,1,-7,1,-28,1,-10,1,-14,1,2,1
1400,0,1,17,1,17,1,-8,1,-8,1,17,1,-41,1,-15,1,-29,1,-12,1,-13,1,1,1
1401,0,1,17,1,17,1,-8,1,-8,1,17,1,-44,1,-21,1,-31,1,-13,1,-12,1,2,1
1402,-1,1,17,1,18,1,-8,1,-9,1,17,1,-47,1,-29,1,-32,1,-14,1,-12,1,3,1
1403,-2,1,15,1,17,1,-6,1,-9,1,16,1,-49,1,-35,1,-35,1,-17,1,-14,1,1,1
1404,-2,1,17,1,19,1,-7,1,-10,1,18,1,-51,1,-37,1,-38,1,-18,1,-17,1,0,1
1405,-3,1,16,1,19,1,-6,1,-11,1,17,1,-50,1,-33,1,-39,1,-18,1,-15,1,1,1
1406,-2,1,14,1,16,1,-6,1,-9,1,15,1,-51,1,-30,1,-41,1,-19,1,-15,1,2,1
1407,-2,1,15,1,17,1,-6,1,-9,1,16,1,-51,1,-28,1,-43,1,-19,1,-16,1,3,1
1408,-3,1,18,1,21,1,-7,1,-12,1,19,1,-51,1,-28,1,-45,1,-21,1,-16,1,2,1
1409,-4,1,22,1,26,1,-9,1,-15,1,24,1,-54,1,-32,1,-47,1,-24,1,-17,1,2,1
1410,-3,1,19,1,22,1,-8,1,-12,1,20,1,-57,1,-40,1,-50,1,-27,1,-18,1,2,1
1411,-2,1,17,1,19,1,-7,1,-10,1,18,1,-58,1,-47,1,-51,1,-28,1,-16,1,2,1
1412,-4,1,18,1,22,1,-7,1,-13,1,20,1,-60,1,-54,1,-52,1,-29,1,-17,1,3,1
1413,-7,1,17,1,24,1,-5,1,-15,1,20,1,-61,1,-59,1,-55,1,-30,1,-17,1,3,1
1414,-6,1,15,1,21,1,-4,1,-13,1,18,1,-62,1,-59,1,-56,1,-32,1,-18,1,3,1
1415,-6,1,16,1,22,1,-5,1,-14,1,19,1,-60,1,-54,1,-56,1,-31,1,-18,1,3,1
1416,-5,1,16,1,21,1,-5,1,-13,1,18,1,-58,1,-50,1,-57,1,-30,1,-17,1,4,1
1417,-3,1,18,1,21,1,-7,1,-12,1,19,1,-57,1,-44,1,-58,1,-30,1,-16,1,5,1
1418,-3,1,18,1,21,1,-7,1,-12,1,19,1,-55,1,-41,1,-57,1,-28,1,-15,1,7,1
1419,-1,1,17,1,18,1,-8,1,-9,1,17,1,-55,1,-41,1,-55,1,-28,1,-16,1,5,1
1420,-2,1,15,1,17,1,-6,1,-9,1,16,1,-55,1,-44,1,-53,1,-27,1,-14,1,4,1
1421,-2,1,14,1,16,1,-6,1,-9,1,15,1,-55,1,-47,1,-51,1,-26,1,-13,1,3,1
1422,-3,1,16,1,19,1,-6,1,-11,1,17,1,-53,1,-49,1,-47,1,-24,1,-11,1,3,1
1423,-3,1,17,1,20,1,-7,1,-11,1,18,1,-50,1,-48,1,-43,1,-22,1,-9,1,4,1
1424,-3,1,13,1,16,1,-5,1,-9,1,14,1,-46,1,-41,1,-39,1,-17,1,-6,1,4,1
1425,-2,1,12,1,14,1,-5,1,-8,1,13,1,-42,1,-33,1,-36,1,-13,1,-6,1,4,1
1426,0,1,12,1,12,1,-6,1,-6,1,12,1,-38,1,-23,1,-32,1,-10,1,-4,1,5,1
1427,1,1,12,1,11,1,-6,1,-5,1,12,1,-34,1,-14,1,-29,1,-7,1,-2,1,6,1
1428,3,1,14,1,11,1,-8,1,-4,1,13,1,-30,1,-7,1,-26,1,-5,1,-1,1,5,1
1429,3,1,10,1,7,1,-6,1,-2,1,9,1,-26,1,-4,1,-21,1,-2,1,2,1,7,1
1430,4,1,8,1,4,1,-6,1,0,1,6,1,-25,1,-7,1,-19,1,-2,1,2,1,5,1
1431,3,1,7,1,4,1,-5,1,0,1,6,1,-24,1,-10,1,-18,1,-3,1,2,1,4,1
1432,2,1,8,1,6,1,-5,1,-2,1,7,1,-22,1,-14,1,-17,1,-3,1,2,1,1,1
1433,2,1,8,1,6,1,-5,1,-2,1,7,1,-21,1,-15,1,-16,1,-2,1,1,1,1,1
1434,0,1,7,1,7,1,-3,1,-3,1,7,1,-18,1,-10,1,-14,1,0,1,2,1,3,1
1435,4,1,7,1,3,1,-5,1,1,1,5,1,-15,1,-5,1,-15,1,-1,1,1,1,2,1
1436,3,1,7,1,4,1,-5,1,0,1,6,1,-11,1,2,1,-13,1,0,1,1,1,3,1
1437,-2,1,7,1,9,1,-2,1,-5,1,8,1,-7,1,10,1,-9,1,2,1,2,1,4,1
1438,-1,1,6,1,7,1,-2,1,-4,1,6,1,-6,1,13,1,-10,1,1,1,1,1,2,1
1439,2,1,4,1,2,1,-3,1,0,1,3,1,-7,1,10,1,-12,1,-2,1,0,1,0,1
1440,1,1,2,1,1,1,-1,1,0,1,2,1,-8,1,5,1,-12,1,-3,1,-2,1,-2,1
1441,-1,1,1,1,2,1,0,1,-1,1,1,1,-8,1,0,1,-13,1,-2,1,-1,1,-2,1
1442,-4,1,-1,1,3,1,2,1,-4,1,1,1,-7,1,-5,1,-12,1,-4,1,-2,1,-1,1
1443,-2,1,-3,1,-1,1,2,1,-1,1,-2,1,-7,1,-8,1,-13,1,-5,1,-3,1,-2,1
1444,1,1,2,1,1,1,-1,1,0,1,2,1,-6,1,-6,1,-13,1,-4,1,-3,1,-2,1
1445,1,1,2,1,1,1,-1,1,0,1,2,1,-5,1,-2,1,-14,1,-6,1,-5,1,-3,1
1446,0,1,0,1,0,1,0,1,0,1,0,1,-2,1,4,1,-14,1,-4,1,-4,1,-1,1
1447,-3,1,0,1,3,1,1,1,-3,1,1,1,1,1,11,1,-12,1,-2,1,-3,1,1,1
1448,-2,1,0,1,2,1,1,1,-2,1,1,1,1,1,12,1,-14,1,-4,1,-6,1,-1,1
1449,0,1,0,1,0,1,0,1,0,1,0,1,0,1,10,1,-15,1,-7,1,-7,1,-4,1
1450,2,1,3,1,1,1,-2,1,1,1,2,1,-2,1,3,1,-16,1,-10,1,-8,1,-4,1
1451,1,1,4,1,3,1,-2,1,-1,1,4,1,-5,1,-3,1,-17,1,-11,1,-10,1,-6,1
1452,0,1,-2,1,-2,1,1,1,1,1,-2,1,-4,1,-5,1,-15,1,-10,1,-7,1,-4,1
1453,0,1,-3,1,-3,1,1,1,1,1,-3,1,-5,1,-9,1,-16,1,-11,1,-9,1,-6,1
1454,-1,1,-3,1,-2,1,2,1,0,1,-3,1,-5,1,-7,1,-17,1,-11,1,-10,1,-5,1
1455,-2,1,-2,1,0,1,2,1,-1,1,-1,1,-3,1,-3,1,-17,1,-11,1,-11,1,-5,1
1456,1,1,0,1,-1,1,0,1,1,1,0,1,-2,1,3,1,-18,1,-10,1,-11,1,-5,1
1457,4,1,2,1,-2,1,-3,1,3,1,0,1,-2,1,7,1,-18,1,-11,1,-12,1,-6,1
1458,5,1,1,1,-4,1,-3,1,5,1,-1,1,-2,1,8,1,-19,1,-11,1,-13,1,-6,1
1459,-1,1,0,1,1,1,0,1,-1,1,0,1,0,1,9,1,-16,1,-11,1,-11,1,-4,1
1460,-4,1,0,1,4,1,2,1,-4,1,2,1,0,1,4,1,-16,1,-11,1,-11,1,-4,1
1461,-2,1,0,1,2,1,1,1,-2,1,1,1,-3,1,-2,1,-18,1,-13,1,-13,1,-7,1
1462,-1,1,0,1,1,1,0,1,-1,1,0,1,-4,1,-7,1,-17,1,-13,1,-13,1,-7,1
1463,-1,1,-1,1,0,1,1,1,-1,1,-1,1,-4,1,-8,1,-17,1,-13,1,-13,1,-6,1
1464,2,1,-1,1,-3,1,0,1,2,1,-2,1,-4,1,-7,1,-17,1,-14,1,-13,1,-6,1
1465,0,1,-1,1,-1,1,0,1,0,1,-1,1,-2,1,-1,1,-17,1,-13,1,-13,1,-5,1
1466,0,1,-1,1,-1,1,0,1,0,1,-1,1,-1,1,4,1,-17,1,-12,1,-13,1,-5,1
1467,0,1,-1,1,-1,1,0,1,0,1,-1,1,0,1,9,1,-17,1,-11,1,-12,1,-4,1
1468,-3,1,0,1,3,1,1,1,-3,1,1,1,1,1,12,1,-17,1,-10,1,-12,1,-3,1
1469,-3,1,1,1,4,1,1,1,-3,1,2,1,0,1,10,1,-16,1,-11,1,-14,1,-5,1
1470,0,1,0,1,0,1,0,1,0,1,0,1,-1,1,5,1,-16,1,-12,1,-13,1,-6,1
1471,-3,1,0,1,3,1,1,1,-3,1,1,1,-3,1,-1,1,-15,1,-13,1,-14,1,-5,1
1472,-2,1,3,1,5,1,0,1,-3,1,4,1,-4,1,-6,1,-16,1,-14,1,-13,1,-5,1
1473,0,1,2,1,2,1,-1,1,-1,1,2,1,-5,1,-9,1,-16,1,-14,1,-14,1,-7,1
1474,-1,1,-1,1,0,1,1,1,-1,1,-1,1,-3,1,-7,1,-15,1,-12,1,-13,1,-6,1
1475,1,1,-3,1,-4,1,1,1,2,1,-3,1,-3,1,-2,1,-15,1,-11,1,-13,1,-5,1
1476,0,1,-1,1,-1,1,0,1,0,1,-1,1,0,1,4,1,-15,1,-10,1,-12,1,-3,1
1477,-1,1,0,1,1,1,0,1,-1,1,0,1,0,1,9,1,-14,1,-9,1,-12,1,-3,1
1478,-1,1,1,1,2,1,0,1,-1,1,1,1,1,1,11,1,-13,1,-9,1,-11,1,-2,1
1479,0,1,2,1,2,1,-1,1,-1,1,2,1,0,1,9,1,-14,1,-10,1,-13,1,-3,1
1480,-1,1,2,1,3,1,0,1,-2,1,2,1,-2,1,4,1,-14,1,-11,1,-14,1,-4,1
1481,-2,1,2,1,4,1,0,1,-3,1,3,1,-3,1,-1,1,-14,1,-12,1,-13,1,-4,1
1482,-1,1,1,1,2,1,0,1,-1,1,1,1,-4,1,-6,1,-14,1,-11,1,-13,1,-5,1
1483,0,1,1,1,1,1,0,1,0,1,1,1,-5,1,-9,1,-14,1,-12,1,-13,1,-5,1
1484,-2,1,2,1,4,1,0,1,-3,1,3,1,-5,1,-7,1,-14,1,-12,1,-14,1,-5,1
1485,0,1,0,1,0,1,0,1,0,1,0,1,-4,1,-3,1,-16,1,-11,1,-15,1,-5,1
1486,1,1,-1,1,-2,1,0,1,1,1,-1,1,-3,1,2,1,-15,1,-11,1,-14,1,-4,1
1487,-2,1,0,1,2,1,1,1,-2,1,1,1,-1,1,9,1,-13,1,-9,1,-12,1,-2,1
1488,-2,1,1,1,3,1,0,1,-2,1,2,1,-1,1,12,1,-13,1,-8,1,-13,1,-3,1
1489,-2,1,1,1,3,1,0,1,-2,1,2,1,-2,1,10,1,-13,1,-10,1,-14,1,-5,1
1490,-1,1,3,1,4,1,-1,1,-2,1,3,1,-4,1,4,1,-13,1,-11,1,-14,1,-4,1
1491,0,1,2,1,2,1,-1,1,-1,1,2,1,-5,1,0,1,-11,1,-11,1,-13,1,-3,1
1492,-4,1,0,1,4,1,2,1,-4,1,2,1,-5,1,-4,1,-11,1,-11,1,-12,1,-3,1
1493,-2,1,0,1,2,1,1,1,-2,1,1,1,-6,1,-7,1,-12,1,-11,1,-12,1,-5,1
1494,2,1,0,1,-2,1,-1,1,2,1,-1,1,-7,1,-6,1,-12,1,-11,1,-13,1,-5,1
1495,0,1,-1,1,-1,1,0,1,0,1,-1,1,-5,1,-1,1,-11,1,-10,1,-12,1,-4,1
1496,-3,1,0,1,3,1,1,1,-3,1,1,1,-3,1,5,1,-12,1,-8,1,-12,1,-1,1
1497,2,1,2,1,0,1,-2,1,1,1,1,1,-2,1,10,1,-12,1,-7,1,-13,1,-2,1
1498,3,1,4,1,1,1,-3,1,1,1,3,1,-2,1,12,1,-12,1,-7,1,-12,1,-4,1
1499,-1,1,4,1,5,1,-1,1,-3,1,4,1,-1,1,12,1,-11,1,-6,1,-11,1,-2,1
1500,0,1,4,1,4,1,-2,1,-2,1,4,1,-5,1,6,1,-12,1,-8,1,-11,1,-2,1
1501,0,1,5,1,5,1,-2,1,-2,1,5,1,-7,1,0,1,-12,1,-10,1,-12,1,-2,1
1502,1,1,2,1,1,1,-1,1,0,1,2,1,-7,1,-5,1,-13,1,-10,1,-14,1,-5,1
1503,4,1,1,1,-3,1,-2,1,4,1,-1,1,-9,1,-7,1,-13,1,-9,1,-12,1,-4,1
1504,2,1,0,1,-2,1,-1,1,2,1,-1,1,-7,1,-5,1,-11,1,-8,1,-10,1,-3,1
1505,0,1,1,1,1,1,0,1,0,1,1,1,-5,1,0,1,-12,1,-7,1,-10,1,-1,1
1506,0,1,0,1,0,1,0,1,0,1,0,1,-5,1,5,1,-11,1,-7,1,-10,1,0,1
1507,3,1,0,1,-3,1,-1,1,3,1,-1,1,-4,1,10,1,-13,1,-7,1,-11,1,-1,1
1508,1,1,1,1,0,1,-1,1,1,1,1,1,-3,1,12,1,-12,1,-6,1,-12,1,-1,1
1509,3,1,2,1,-1,1,-2,1,2,1,1,1,-3,1,11,1,-11,1,-7,1,-11,1,-1,1
1510,3,1,4,1,1,1,-3,1,1,1,3,1,-5,1,5,1,-11,1,-8,1,-11,1,-3,1
1511,2,1,4,1,2,1,-3,1,0,1,3,1,-7,1,0,1,-11,1,-9,1,-11,1,-4,1
1512,0,1,5,1,5,1,-2,1,-2,1,5,1,-8,1,-5,1,-11,1,-9,1,-11,1,-4,1
1513,-3,1,2,1,5,1,0,1,-4,1,3,1,-8,1,-7,1,-10,1,-7,1,-11,1,-2,1
1514,-1,1,-1,1,0,1,1,1,-1,1,-1,1,-8,1,-6,1,-10,1,-7,1,-11,1,-2,1
1515,1,1,1,1,0,1,-1,1,1,1,1,1,-8,1,-2,1,-12,1,-8,1,-12,1,-3,1
1516,-1,1,1,1,2,1,0,1,-1,1,1,1,-5,1,5,1,-11,1,-5,1,-11,1,-1,1
1517,-2,1,1,1,3,1,0,1,-2,1,2,1,-3,1,10,1,-11,1,-4,1,-9,1,0,1
1518,1,1,1,1,0,1,-1,1,1,1,1,1,-5,1,10,1,-13,1,-6,1,-12,1,-2,1
1519,2,1,3,1,1,1,-2,1,1,1,2,1,-5,1,9,1,-12,1,-6,1,-13,1,-2,1
1520,4,1,1,1,-3,1,-2,1,4,1,-1,1,-7,1,2,1,-13,1,-9,1,-13,1,-3,1
1521,6,1,1,1,-5,1,-3,1,6,1,-2,1,-8,1,-4,1,-15,1,-10,1,-13,1,-5,1
1522,1,1,2,1,1,1,-1,1,0,1,2,1,-8,1,-7,1,-11,1,-8,1,-11,1,-2,1
1523,-1,1,2,1,3,1,0,1,-2,1,2,1,-6,1,-9,1,-11,1,-8,1,-9,1,-2,1
1524,-2,1,0,1,2,1,1,1,-2,1,1,1,-6,1,-8,1,-10,1,-6,1,-10,1,-2,1
1525,-2,1,0,1,2,1,1,1,-2,1,1,1,-5,1,-3,1,-11,1,-6,1,-10,1,-2,1
1526,-1,1,0,1,1,1,0,1,-1,1,0,1,-4,1,2,1,-12,1,-6,1,-10,1,-2,1
1527,-1,1,0,1,1,1,0,1,-1,1,0,1,-4,1,6,1,-12,1,-6,1,-12,1,-2,1
1528,0,1,0,1,0,1,0,1,0,1,0,1,-4,1,8,1,-13,1,-7,1,-11,1,-2,1
1529,-1,1,0,1,1,1,0,1,-1,1,0,1,-6,1,5,1,-14,1,-6,1,-12,1,-4,1
1530,1,1,3,1,2,1,-2,1,0,1,3,1,-6,1,1,1,-14,1,-8,1,-13,1,-6,1
1531,2,1,6,1,4,1,-4,1,-1,1,5,1,-7,1,-5,1,-13,1,-8,1,-11,1,-5,1
1532,0,1,-5,1,-5,1,2,1,2,1,-5,1,-6,1,-7,1,-9,1,-6,1,-7,1,-2,1
1533,0,1,-3,1,-3,1,1,1,1,1,-3,1,-7,1,-10,1,-10,1,-6,1,-9,1,-3,1
1534,0,1,-2,1,-2,1,1,1,1,1,-2,1,-7,1,-9,1,-11,1,-6,1,-9,1,-2,1
1535,1,1,-1,1,-2,1,0,1,1,1,-1,1,-6,1,-5,1,-13,1,-6,1,-10,1,-2,1
1536,4,1,-1,1,-5,1,-1,1,4,1,-3,1,-4,1,1,1,-12,1,-5,1,-11,1,-1,1
1537,2,1,0,1,-2,1,-1,1,2,1,-1,1,-3,1,7,1,-12,1,-4,1,-9,1,0,1
1538,1,1,0,1,-1,1,0,1,1,1,0,1,-4,1,8,1,-13,1,-5,1,-9,1,0,1
1539,2,1,2,1,0,1,-2,1,1,1,1,1,-5,1,6,1,-13,1,-5,1,-10,1,-1,1
1540,2,1,1,1,-1,1,-1,1,2,1,0,1,-6,1,1,1,-13,1,-7,1,-10,1,-1,1
1541,2,1,1,1,-1,1,-1,1,2,1,0,1,-8,1,-4,1,-14,1,-7,1,-10,1,-2,1
1542,3,1,0,1,-3,1,-1,1,3,1,-1,1,-9,1,-9,1,-14,1,-9,1,-11,1,-3,1
1543,1,1,0,1,-1,1,0,1,1,1,0,1,-10,1,-12,1,-13,1,-8,1,-11,1,-4,1
1544,0,1,0,1,0,1,0,1,0,1,0,1,-8,1,-10,1,-13,1,-6,1,-10,1,-4,1
1545,0,1,-2,1,-2,1,1,1,1,1,-2,1,-6,1,-5,1,-13,1,-5,1,-11,1,-3,1
1546,2,1,-2,1,-4,1,0,1,3,1,-3,1,-5,1,0,1,-13,1,-3,1,-9,1,-1,1
1547,2,1,-1,1,-3,1,0,1,2,1,-2,1,-4,1,4,1,-13,1,-4,1,-10,1,-2,1
1548,0,1,1,1,1,1,0,1,0,1,1,1,-4,1,7,1,-13,1,-4,1,-10,1,-2,1
1549,0,1,-1,1,-1,1,0,1,0,1,-1,1,-4,1,6,1,-12,1,-4,1,-9,1,-1,1
1550,-1,1,-1,1,0,1,1,1,-1,1,-1,1,-5,1,1,1,-12,1,-5,1,-8,1,-2,1
1551,-1,1,-2,1,-1,1,1,1,0,1,-2,1,-7,1,-4,1,-12,1,-6,1,-9,1,-5,1
1552,-1,1,-4,1,-3,1,2,1,1,1,-4,1,-9,1,-9,1,-13,1,-7,1,-10,1,-5,1
1553,0,1,-3,1,-3,1,1,1,1,1,-3,1,-10,1,-12,1,-14,1,-8,1,-9,1,-4,1
1554,2,1,-2,1,-4,1,0,1,3,1,-3,1,-9,1,-10,1,-13,1,-7,1,-9,1,-3,1
1555,0,1,-3,1,-3,1,1,1,1,1,-3,1,-6,1,-4,1,-14,1,-5,1,-9,1,-3,1
1556,1,1,-2,1,-3,1,0,1,2,1,-2,1,-5,1,1,1,-14,1,-5,1,-8,1,-1,1
1557,1,1,-2,1,-3,1,0,1,2,1,-2,1,-4,1,6,1,-14,1,-5,1,-8,1,0,1
1558,3,1,-1,1,-4,1,-1,1,3,1,-2,1,-5,1,7,1,-15,1,-5,1,-10,1,-2,1
1559,4,1,-1,1,-5,1,-1,1,4,1,-3,1,-6,1,6,1,-15,1,-6,1,-10,1,-2,1
1560,5,1,-1,1,-6,1,-2,1,5,1,-3,1,-6,1,1,1,-14,1,-6,1,-9,1,-3,1
1561,5,1,0,1,-5,1,-2,1,5,1,-2,1,-8,1,-4,1,-14,1,-8,1,-10,1,-3,1
1562,0,1,0,1,0,1,0,1,0,1,0,1,-8,1,-10,1,-13,1,-8,1,-10,1,-4,1
1563,1,1,-3,1,-4,1,1,1,2,1,-3,1,-8,1,-12,1,-13,1,-7,1,-8,1,-3,1
1564,1,1,-4,1,-5,1,1,1,3,1,-4,1,-8,1,-10,1,-13,1,-6,1,-8,1,-2,1
1565,0,1,-2,1,-2,1,1,1,1,1,-2,1,-7,1,-5,1,-13,1,-6,1,-9,1,-1,1
1566,3,1,-2,1,-5,1,0,1,4,1,-3,1,-6,1,0,1,-12,1,-5,1,-10,1,-2,1
1567,4,1,0,1,-4,1,-2,1,4,1,-2,1,-3,1,6,1,-11,1,-3,1,-9,1,0,1
1568,4,1,0,1,-4,1,-2,1,4,1,-2,1,0,1,11,1,-8,1,-2,1,-6,1,1,1
1569,10,1,4,1,-6,1,-7,1,8,1,-1,1,-1,1,10,1,-9,1,-2,1,-6,1,0,1
1570,14,1,5,1,-9,1,-9,1,12,1,-2,1,-2,1,7,1,-7,1,-3,1,-7,1,-1,1
1571,13,1,3,1,-10,1,-8,1,12,1,-3,1,-2,1,2,1,-6,1,-4,1,-6,1,-1,1
1572,13,1,3,1,-10,1,-8,1,12,1,-3,1,-3,1,-3,1,-5,1,-4,1,-7,1,-2,1
1573,10,1,4,1,-6,1,-7,1,8,1,-1,1,-1,1,-3,1,-2,1,-1,1,-6,1,0,1
1574,7,1,6,1,-1,1,-6,1,4,1,3,1,0,1,0,1,-2,1,0,1,-4,1,1,1
1575,7,1,7,1,0,1,-7,1,4,1,4,1,2,1,6,1,0,1,3,1,0,1,4,1
1576,9,1,7,1,-2,1,-8,1,6,1,3,1,5,1,14,1,1,1,5,1,0,1,7,1
1577,11,1,6,1,-5,1,-8,1,8,1,1,1,6,1,19,1,1,1,5,1,0,1,8,1
1578,10,1,13,1,3,1,-11,1,4,1,8,1,6,1,20,1,1,1,5,1,-1,1,7,1
1579,10,1,16,1,6,1,-13,1,2,1,11,1,4,1,19,1,1,1,4,1,-2,1,6,1
1580,13,1,15,1,2,1,-14,1,6,1,9,1,3,1,15,1,2,1,5,1,0,1,7,1
1581,14,1,10,1,-4,1,-12,1,9,1,3,1,3,1,11,1,5,1,7,1,2,1,8,1
1582,12,1,12,1,0,1,-12,1,6,1,6,1,2,1,6,1,6,1,7,1,3,1,9,1
1583,12,1,12,1,0,1,-12,1,6,1,6,1,2,1,4,1,7,1,7,1,3,1,8,1
1584,14,1,12,1,-2,1,-13,1,8,1,5,1,2,1,6,1,7,1,8,1,2,1,9,1
1585,18,1,17,1,-1,1,-17,1,10,1,8,1,1,1,10,1,5,1,8,1,1,1,8,1
1586,20,1,18,1,-2,1,-19,1,11,1,8,1,0,1,16,1,6,1,10,1,3,1,11,1
1587,21,1,15,1,-6,1,-18,1,14,1,5,1,0,1,21,1,7,1,12,1,5,1,13,1
1588,21,1,15,1,-6,1,-18,1,14,1,5,1,-2,1,20,1,5,1,10,1,5,1,12,1
1589,20,1,17,1,-3,1,-18,1,12,1,7,1,-3,1,18,1,5,1,10,1,4,1,12,1
1590,18,1,15,1,-3,1,-16,1,11,1,6,1,-4,1,14,1,6,1,10,1,4,1,11,1
1591,15,1,13,1,-2,1,-14,1,9,1,6,1,-8,1,7,1,6,1,10,1,5,1,11,1
1592,14,1,11,1,-3,1,-12,1,9,1,4,1,-12,1,1,1,5,1,8,1,4,1,10,1
1593,18,1,12,1,-6,1,-15,1,12,1,3,1,-16,1,-5,1,0,1,5,1,1,1,7,1
1594,18,1,9,1,-9,1,-13,1,14,1,0,1,-16,1,-5,1,-2,1,4,1,1,1,6,1
1595,14,1,6,1,-8,1,-10,1,11,1,-1,1,-13,1,0,1,-2,1,5,1,2,1,8,1
1596,14,1,4,1,-10,1,-9,1,12,1,-3,1,-13,1,5,1,-3,1,5,1,3,1,10,1
1597,17,1,4,1,-13,1,-10,1,15,1,-4,1,-13,1,8,1,-4,1,5,1,1,1,9,1
1598,18,1,7,1,-11,1,-12,1,15,1,-2,1,-14,1,6,1,-8,1,1,1,-1,1,6,1
1599,17,1,7,1,-10,1,-12,1,14,1,-1,1,-16,1,2,1,-12,1,-2,1,-5,1,3,1
1600,15,1,3,1,-12,1,-9,1,14,1,-4,1,-16,1,-3,1,-12,1,-3,1,-5,1,3,1
1601,15,1,-2,1,-17,1,-6,1,16,1,-9,1,-14,1,-8,1,-10,1,-3,1,-5,1,4,1
1602,13,1,-2,1,-15,1,-5,1,14,1,-8,1,-17,1,-14,1,-12,1,-5,1,-7,1,1,1
1603,9,1,-5,1,-14,1,-2,1,11,1,-9,1,-17,1,-17,1,-13,1,-6,1,-7,1,0,1
1604,5,1,-6,1,-11,1,0,1,8,1,-8,1,-15,1,-15,1,-12,1,-5,1,-6,1,2,1
1605,4,1,-4,1,-8,1,0,1,6,1,-6,1,-11,1,-9,1,-11,1,-3,1,-5,1,3,1
1606,3,1,-4,1,-7,1,0,1,5,1,-5,1,-8,1,-1,1,-11,1,-2,1,-6,1,2,1
1607,2,1,-5,1,-7,1,1,1,4,1,-6,1,-5,1,5,1,-11,1,-3,1,-7,1,0,1
1608,1,1,-6,1,-7,1,2,1,4,1,-6,1,-3,1,8,1,-11,1,-2,1,-8,1,-2,1
1609,0,1,-6,1,-6,1,3,1,3,1,-6,1,-3,1,6,1,-11,1,-4,1,-8,1,-2,1
1610,1,1,-8,1,-9,1,3,1,5,1,-8,1,-5,1,1,1,-12,1,-7,1,-10,1,-4,1
1611,2,1,-8,1,-10,1,3,1,6,1,-9,1,-8,1,-7,1,-14,1,-10,1,-12,1,-6,1
1612,0,1,-12,1,-12,1,6,1,6,1,-12,1,-8,1,-12,1,-14,1,-10,1,-10,1,-5,1
1613,2,1,-12,1,-14,1,5,1,8,1,-13,1,-8,1,-15,1,-15,1,-11,1,-12,1,-6,1
1614,-1,1,-12,1,-11,1,6,1,5,1,-12,1,-7,1,-14,1,-15,1,-11,1,-12,1,-6,1
1615,-2,1,-12,1,-10,1,7,1,4,1,-11,1,-6,1,-7,1,-14,1,-8,1,-11,1,-6,1
1616,-3,1,-11,1,-8,1,7,1,2,1,-10,1,-5,1,-3,1,-15,1,-8,1,-12,1,-5,1
1617,0,1,-10,1,-10,1,5,1,5,1,-10,1,-5,1,2,1,-15,1,-8,1,-12,1,-5,1
1618,-3,1,-8,1,-5,1,5,1,1,1,-7,1,-5,1,5,1,-15,1,-9,1,-12,1,-5,1
1619,-4,1,-8,1,-4,1,6,1,0,1,-6,1,-3,1,4,1,-13,1,-8,1,-11,1,-6,1
1620,-1,1,-10,1,-9,1,5,1,4,1,-10,1,-4,1,-1,1,-13,1,-10,1,-11,1,-7,1
1621,0,1,-10,1,-10,1,5,1,5,1,-10,1,-5,1,-7,1,-12,1,-10,1,-10,1,-6,1
1622,-2,1,-10,1,-8,1,6,1,3,1,-9,1,-7,1,-11,1,-13,1,-10,1,-12,1,-6,1
1623,2,1,-12,1,-14,1,5,1,8,1,-13,1,-9,1,-16,1,-15,1,-13,1,-14,1,-9,1
1624,0,1,-12,1,-12,1,6,1,6,1,-12,1,-7,1,-14,1,-15,1,-12,1,-13,1,-9,1
1625,-2,1,-12,1,-10,1,7,1,4,1,-11,1,-6,1,-9,1,-15,1,-10,1,-12,1,-8,1
1626,1,1,-9,1,-10,1,4,1,5,1,-9,1,-4,1,-3,1,-14,1,-10,1,-12,1,-7,1
1627,0,1,-9,1,-9,1,4,1,4,1,-9,1,-2,1,3,1,-14,1,-8,1,-11,1,-5,1
1628,-2,1,-9,1,-7,1,5,1,2,1,-8,1,-2,1,5,1,-15,1,-8,1,-13,1,-6,1
1629,-2,1,-10,1,-8,1,6,1,3,1,-9,1,-4,1,3,1,-15,1,-10,1,-13,1,-6,1
1630,-1,1,-10,1,-9,1,5,1,4,1,-10,1,-5,1,-2,1,-14,1,-10,1,-13,1,-7,1
1631,-5,1,-11,1,-6,1,8,1,0,1,-9,1,-6,1,-8,1,-13,1,-9,1,-13,1,-8,1
1632,-4,1,-9,1,-5,1,6,1,0,1,-7,1,-6,1,-11,1,-13,1,-10,1,-11,1,-8,1
1633,-3,1,-10,1,-7,1,6,1,2,1,-9,1,-6,1,-14,1,-13,1,-9,1,-13,1,-9,1
1634,-1,1,-11,1,-10,1,6,1,4,1,-11,1,-6,1,-14,1,-15,1,-9,1,-14,1,-9,1
1635,0,1,-11,1,-11,1,5,1,5,1,-11,1,-5,1,-8,1,-14,1,-8,1,-12,1,-9,1
1636,0,1,-11,1,-11,1,5,1,5,1,-11,1,-4,1,-3,1,-14,1,-7,1,-13,1,-9,1
1637,0,1,-9,1,-9,1,4,1,4,1,-9,1,-4,1,1,1,-15,1,-8,1,-14,1,-8,1
1638,4,1,-9,1,-13,1,2,1,8,1,-11,1,-3,1,3,1,-15,1,-9,1,-13,1,-9,1
1639,4,1,-9,1,-13,1,2,1,8,1,-11,1,-3,1,4,1,-14,1,-8,1,-13,1,-7,1
1640,1,1,-10,1,-11,1,4,1,6,1,-10,1,-3,1,0,1,-12,1,-8,1,-12,1,-7,1
1641,1,1,-11,1,-12,1,5,1,6,1,-11,1,-6,1,-6,1,-12,1,-9,1,-12,1,-8,1
1642,-1,1,-11,1,-10,1,6,1,4,1,-11,1,-7,1,-12,1,-13,1,-10,1,-12,1,-8,1
1643,0,1,-12,1,-12,1,6,1,6,1,-12,1,-9,1,-15,1,-13,1,-11,1,-14,1,-11,1
1644,2,1,-13,1,-15,1,5,1,8,1,-14,1,-9,1,-16,1,-16,1,-11,1,-15,1,-11,1
1645,2,1,-11,1,-13,1,4,1,7,1,-12,1,-6,1,-9,1,-14,1,-9,1,-14,1,-8,1
1646,-1,1,-13,1,-12,1,7,1,5,1,-13,1,-3,1,-2,1,-13,1,-8,1,-12,1,-7,1
1647,0,1,-9,1,-9,1,4,1,4,1,-9,1,-3,1,4,1,-12,1,-5,1,-9,1,-6,1
1648,3,1,-4,1,-7,1,0,1,5,1,-5,1,-3,1,11,1,-8,1,-1,1,-9,1,-5,1
1649,7,1,0,1,-7,1,-3,1,7,1,-3,1,-4,1,19,1,0,1,1,1,-7,1,-3,1
1650,13,1,3,1,-10,1,-8,1,12,1,-3,1,-6,1,25,1,8,1,9,1,-1,1,0,1
1651,17,1,5,1,-12,1,-11,1,15,1,-3,1,-4,1,48,1,28,1,23,1,9,1,5,1
1652,27,1,6,1,-21,1,-16,1,24,1,-7,1,6,1,90,1,60,1,41,1,21,1,10,1
1653,31,1,12,1,-19,1,-21,1,25,1,-3,1,23,1,137,1,102,1,67,1,32,1,15,1
1654,37,1,23,1,-14,1,-30,1,26,1,5,1,39,1,173,1,140,1,94,1,48,1,23,1
1655,55,1,33,1,-22,1,-44,1,39,1,6,1,50,1,192,1,167,1,122,1,73,1,39,1
1656,76,1,41,1,-35,1,-58,1,56,1,3,1,58,1,213,1,194,1,154,1,105,1,62,1
1657,96,1,54,1,-42,1,-75,1,69,1,6,1,56,1,220,1,218,1,190,1,148,1,92,1
1658,130,1,70,1,-60,1,-100,1,95,1,5,1,38,1,212,1,231,1,227,1,202,1,132,1
1659,170,1,84,1,-86,1,-127,1,128,1,-1,1,6,1,151,1,207,1,249,1,255,1,177,1
1660,200,1,104,1,-96,1,-152,1,148,1,4,1,-27,1,52,1,153,1,259,1,309,1,223,1
1661,233,1,122,1,-111,1,-177,1,172,1,6,1,-55,1,-32,1,92,1,261,1,356,1,264,1
1662,252,1,141,1,-111,1,-196,1,182,1,15,1,-85,1,-111,1,36,1,256,1,390,1,301,1
1663,257,1,156,1,-101,1,-206,1,179,1,28,1,-121,1,-188,1,-30,1,231,1,399,1,320,1
1664,263,1,166,1,-97,1,-214,1,180,1,35,1,-173,1,-264,1,-99,1,205,1,399,1,331,1
1665,267,1,168,1,-99,1,-217,1,183,1,35,1,-222,1,-326,1,-155,1,177,1,386,1,334,1
1666,254,1,148,1,-106,1,-201,1,180,1,21,1,-254,1,-362,1,-213,1,121,1,331,1,306,1
1667,225,1,117,1,-108,1,-171,1,167,1,5,1,-268,1,-392,1,-273,1,42,1,246,1,256,1
1668,185,1,78,1,-107,1,-131,1,146,1,-14,1,-258,1,-408,1,-315,1,-37,1,153,1,196,1
1669,120,1,25,1,-95,1,-72,1,108,1,-35,1,-229,1,-409,1,-351,1,-129,1,30,1,106,1
1670,48,1,-11,1,-59,1,-18,1,53,1,-35,1,-206,1,-415,1,-375,1,-207,1,-72,1,29,1
1671,4,1,-36,1,-40,1,16,1,22,1,-38,1,-180,1,-407,1,-383,1,-251,1,-122,1,-9,1
1672,-25,1,-58,1,-33,1,41,1,4,1,-46,1,-148,1,-372,1,-365,1,-263,1,-148,1,-38,1
1673,-43,1,-67,1,-24,1,55,1,-10,1,-46,1,-120,1,-318,1,-323,1,-244,1,-152,1,-57,1
1674,-44,1,-64,1,-20,1,54,1,-12,1,-42,1,-102,1,-262,1,-273,1,-213,1,-140,1,-58,1
1675,-42,1,-53,1,-11,1,47,1,-16,1,-32,1,-89,1,-214,1,-229,1,-181,1,-120,1,-47,1
1676,-33,1,-40,1,-7,1,36,1,-13,1,-24,1,-80,1,-177,1,-191,1,-150,1,-99,1,-39,1
1677,-26,1,-33,1,-7,1,29,1,-10,1,-20,1,-69,1,-144,1,-161,1,-125,1,-85,1,-33,1
1678,-23,1,-26,1,-3,1,24,1,-10,1,-15,1,-58,1,-119,1,-135,1,-104,1,-74,1,-30,1
1679,-17,1,-23,1,-6,1,20,1,-6,1,-15,1,-49,1,-98,1,-112,1,-86,1,-61,1,-26,1
1680,-9,1,-19,1,-10,1,14,1,0,1,-15,1,-35,1,-72,1,-81,1,-61,1,-44,1,-19,1
1681,-3,1,-16,1,-13,1,9,1,5,1,-15,1,-24,1,-51,1,-54,1,-39,1,-28,1,-11,1
1682,0,1,-15,1,-15,1,7,1,7,1,-15,1,-18,1,-42,1,-38,1,-28,1,-20,1,-8,1
1683,1,1,-12,1,-13,1,5,1,7,1,-12,1,-17,1,-39,1,-33,1,-25,1,-19,1,-8,1
1684,3,1,-10,1,-13,1,3,1,8,1,-11,1,-17,1,-34,1,-31,1,-23,1,-20,1,-7,1
1685,2,1,-11,1,-13,1,4,1,7,1,-12,1,-16,1,-27,1,-29,1,-22,1,-20,1,-8,1
1686,2,1,-13,1,-15,1,5,1,8,1,-14,1,-13,1,-18,1,-26,1,-19,1,-19,1,-8,1
1687,2,1,-11,1,-13,1,4,1,7,1,-12,1,-9,1,-8,1,-23,1,-17,1,-19,1,-8,1
1688,4,1,-5,1,-9,1,0,1,6,1,-7,1,-7,1,-2,1,-21,1,-16,1,-19,1,-9,1
1689,4,1,-5,1,-9,1,0,1,6,1,-7,1,-6,1,-2,1,-19,1,-15,1,-19,1,-8,1
1690,4,1,-5,1,-9,1,0,1,6,1,-7,1,-7,1,-3,1,-18,1,-16,1,-19,1,-10,1
1691,6,1,-9,1,-15,1,1,1,10,1,-12,1,-6,1,-6,1,-14,1,-15,1,-18,1,-11,1
1692,3,1,-9,1,-12,1,3,1,7,1,-10,1,-6,1,-10,1,-14,1,-15,1,-19,1,-12,1
1693,4,1,-9,1,-13,1,2,1,8,1,-11,1,-6,1,-11,1,-13,1,-14,1,-17,1,-11,1
1694,2,1,-10,1,-12,1,4,1,7,1,-11,1,-4,1,-7,1,-12,1,-12,1,-16,1,-10,1
1695,4,1,-10,1,-14,1,3,1,9,1,-12,1,-3,1,-2,1,-11,1,-11,1,-16,1,-10,1
1696,5,1,-10,1,-15,1,2,1,10,1,-12,1,-1,1,4,1,-9,1,-11,1,-16,1,-10,1
1697,0,1,-9,1,-9,1,4,1,4,1,-9,1,3,1,13,1,-7,1,-7,1,-15,1,-9,1
1698,-1,1,-7,1,-6,1,4,1,2,1,-7,1,3,1,16,1,-7,1,-7,1,-14,1,-6,1
1699,-1,1,-6,1,-5,1,3,1,2,1,-6,1,1,1,14,1,-7,1,-8,1,-14,1,-7,1
1700,0,1,-6,1,-6,1,3,1,3,1,-6,1,0,1,10,1,-5,1,-8,1,-15,1,-10,1
1701,3,1,-6,1,-9,1,1,1,6,1,-7,1,-2,1,4,1,-6,1,-10,1,-15,1,-11,1
1702,1,1,-5,1,-6,1,2,1,3,1,-5,1,-3,1,-2,1,-7,1,-11,1,-15,1,-12,1
1703,1,1,-7,1,-8,1,3,1,4,1,-7,1,-3,1,-3,1,-7,1,-10,1,-16,1,-10,1
1704,0,1,-8,1,-8,1,4,1,4,1,-8,1,-1,1,0,1,-5,1,-9,1,-14,1,-10,1
1705,0,1,-8,1,-8,1,4,1,4,1,-8,1,0,1,4,1,-6,1,-9,1,-13,1,-9,1
1706,0,1,-8,1,-8,1,4,1,4,1,-8,1,2,1,10,1,-6,1,-7,1,-13,1,-8,1
1707,4,1,-8,1,-12,1,2,1,8,1,-10,1,4,1,16,1,-5,1,-6,1,-14,1,-8,1
1708,3,1,-7,1,-10,1,2,1,6,1,-8,1,5,1,19,1,-6,1,-5,1,-14,1,-7,1
1709,1,1,-7,1,-8,1,3,1,4,1,-7,1,4,1,17,1,-5,1,-4,1,-13,1,-8,1
1710,1,1,-8,1,-9,1,3,1,5,1,-8,1,2,1,12,1,-5,1,-6,1,-13,1,-9,1
1711,0,1,-9,1,-9,1,4,1,4,1,-9,1,2,1,8,1,-3,1,-5,1,-12,1,-8,1
1712,1,1,-4,1,-5,1,1,1,3,1,-4,1,1,1,4,1,-3,1,-6,1,-12,1,-9,1
1713,0,1,-4,1,-4,1,2,1,2,1,-4,1,0,1,2,1,-4,1,-6,1,-11,1,-9,1
1714,2,1,-7,1,-9,1,2,1,5,1,-8,1,0,1,2,1,-3,1,-6,1,-11,1,-8,1
1715,3,1,-6,1,-9,1,1,1,6,1,-7,1,2,1,7,1,-4,1,-5,1,-13,1,-9,1
1716,2,1,-5,1,-7,1,1,1,4,1,-6,1,2,1,11,1,-5,1,-6,1,-14,1,-9,1
1717,1,1,-2,1,-3,1,0,1,2,1,-2,1,3,1,17,1,-4,1,-4,1,-12,1,-9,1
1718,2,1,-5,1,-7,1,1,1,4,1,-6,1,3,1,20,1,-4,1,-5,1,-13,1,-9,1
1719,2,1,-4,1,-6,1,1,1,4,1,-5,1,3,1,18,1,-4,1,-6,1,-13,1,-10,1
1720,2,1,-4,1,-6,1,1,1,4,1,-5,1,2,1,13,1,-4,1,-6,1,-13,1,-10,1
1721,2,1,-6,1,-8,1,2,1,5,1,-7,1,1,1,9,1,-2,1,-6,1,-13,1,-7,1
1722,2,1,-6,1,-8,1,2,1,5,1,-7,1,0,1,3,1,-2,1,-6,1,-12,1,-7,1
1723,3,1,-7,1,-10,1,2,1,6,1,-8,1,-1,1,0,1,-2,1,-6,1,-11,1,-8,1
1724,0,1,-5,1,-5,1,2,1,2,1,-5,1,0,1,2,1,-2,1,-5,1,-11,1,-6,1
1725,1,1,-5,1,-6,1,2,1,3,1,-5,1,0,1,6,1,-3,1,-5,1,-11,1,-5,1
1726,0,1,-5,1,-5,1,2,1,2,1,-5,1,1,1,12,1,-2,1,-4,1,-11,1,-5,1
1727,0,1,-4,1,-4,1,2,1,2,1,-4,1,4,1,19,1,-1,1,-2,1,-11,1,-6,1
1728,3,1,-4,1,-7,1,0,1,5,1,-5,1,4,1,22,1,-1,1,-2,1,-11,1,-5,1
1729,6,1,-3,1,-9,1,-1,1,7,1,-6,1,2,1,18,1,-3,1,-4,1,-11,1,-5,1
1730,3,1,-4,1,-7,1,0,1,5,1,-5,1,2,1,15,1,-1,1,-4,1,-10,1,-5,1
1731,2,1,-5,1,-7,1,1,1,4,1,-6,1,0,1,8,1,-2,1,-4,1,-11,1,-8,1
1732,6,1,-2,1,-8,1,-2,1,7,1,-5,1,-2,1,2,1,-4,1,-6,1,-13,1,-8,1
1733,6,1,1,1,-5,1,-3,1,6,1,-2,1,-3,1,0,1,-3,1,-5,1,-11,1,-8,1
1734,6,1,-5,1,-11,1,0,1,8,1,-8,1,-2,1,1,1,-1,1,-3,1,-10,1,-7,1
1735,5,1,-4,1,-9,1,0,1,7,1,-6,1,-2,1,5,1,-3,1,-4,1,-10,1,-5,1
1736,3,1,-3,1,-6,1,0,1,4,1,-4,1,-1,1,13,1,-3,1,-3,1,-10,1,-5,1
1737,2,1,-1,1,-3,1,0,1,2,1,-2,1,0,1,17,1,-3,1,-3,1,-10,1,-5,1
1738,2,1,3,1,1,1,-2,1,1,1,2,1,0,1,18,1,-4,1,-4,1,-12,1,-5,1
1739,6,1,1,1,-5,1,-3,1,6,1,-2,1,0,1,18,1,-2,1,-4,1,-11,1,-4,1
1740,7,1,-5,1,-12,1,-1,1,9,1,-8,1,-1,1,14,1,-1,1,-2,1,-10,1,-3,1
1741,8,1,-2,1,-10,1,-3,1,9,1,-6,1,-5,1,7,1,-3,1,-6,1,-13,1,-7,1
1742,10,1,-1,1,-11,1,-4,1,10,1,-6,1,-7,1,0,1,-4,1,-8,1,-12,1,-7,1
1743,7,1,-3,1,-10,1,-2,1,8,1,-6,1,-5,1,0,1,-2,1,-6,1,-10,1,-3,1
1744,5,1,-4,1,-9,1,0,1,7,1,-6,1,-4,1,1,1,-1,1,-5,1,-9,1,-3,1
1745,5,1,-2,1,-7,1,-1,1,6,1,-4,1,-3,1,6,1,-3,1,-3,1,-10,1,-4,1
1746,5,1,-1,1,-6,1,-2,1,5,1,-3,1,-2,1,12,1,-3,1,-2,1,-10,1,-4,1
1747,4,1,-2,1,-6,1,-1,1,5,1,-4,1,0,1,18,1,-2,1,-2,1,-9,1,-1,1
1748,4,1,-1,1,-5,1,-1,1,4,1,-3,1,-1,1,21,1,-1,1,-1,1,-9,1,0,1
1749,7,1,0,1,-7,1,-3,1,7,1,-3,1,-4,1,18,1,-3,1,-3,1,-10,1,-2,1
1750,8,1,0,1,-8,1,-4,1,8,1,-4,1,-5,1,14,1,-2,1,-4,1,-10,1,-3,1
1751,9,1,0,1,-9,1,-4,1,9,1,-4,1,-7,1,6,1,-4,1,-6,1,-12,1,-6,1
1752,7,1,0,1,-7,1,-3,1,7,1,-3,1,-9,1,1,1,-4,1,-7,1,-12,1,-5,1
1753,4,1,-1,1,-5,1,-1,1,4,1,-3,1,-7,1,-1,1,-2,1,-5,1,-10,1,-4,1
1754,-1,1,-1,1,0,1,1,1,-1,1,-1,1,-5,1,4,1,0,1,-1,1,-8,1,-1,1
1755,-1,1,0,1,1,1,0,1,-1,1,0,1,-5,1,8,1,0,1,0,1,-7,1,-1,1
1756,1,1,-2,1,-3,1,0,1,2,1,-2,1,-5,1,12,1,-2,1,-2,1,-9,1,-1,1
1757,2,1,-1,1,-3,1,0,1,2,1,-2,1,-4,1,16,1,-3,1,-1,1,-10,1,0,1
1758,4,1,0,1,-4,1,-2,1,4,1,-2,1,-4,1,18,1,-3,1,-1,1,-10,1,-1,1
1759,6,1,1,1,-5,1,-3,1,6,1,-2,1,-4,1,17,1,-3,1,-2,1,-10,1,-2,1
1760,7,1,2,1,-5,1,-4,1,6,1,-1,1,-7,1,11,1,-3,1,-3,1,-11,1,-2,1
1761,7,1,2,1,-5,1,-4,1,6,1,-1,1,-10,1,5,1,-4,1,-5,1,-11,1,-3,1
1762,6,1,3,1,-3,1,-4,1,5,1,0,1,-12,1,0,1,-4,1,-5,1,-11,1,-1,1
1763,6,1,2,1,-4,1,-4,1,5,1,-1,1,-13,1,-3,1,-5,1,-4,1,-11,1,-2,1
1764,4,1,3,1,-1,1,-3,1,3,1,1,1,-13,1,-3,1,-5,1,-6,1,-13,1,-1,1
1765,6,1,3,1,-3,1,-4,1,5,1,0,1,-11,1,2,1,-6,1,-4,1,-11,1,0,1
1766,6,1,1,1,-5,1,-3,1,6,1,-2,1,-9,1,9,1,-4,1,-2,1,-10,1,2,1
1767,7,1,3,1,-4,1,-5,1,6,1,0,1,-9,1,14,1,-4,1,-1,1,-9,1,4,1
1768,7,1,5,1,-2,1,-6,1,5,1,2,1,-9,1,14,1,-6,1,-3,1,-11,1,0,1
1769,6,1,6,1,0,1,-6,1,3,1,3,1,-11,1,13,1,-6,1,-3,1,-13,1,0,1
1770,2,1,6,1,4,1,-4,1,-1,1,5,1,-12,1,10,1,-4,1,-3,1,-10,1,2,1
1771,4,1,5,1,1,1,-4,1,2,1,3,1,-14,1,4,1,-3,1,-3,1,-9,1,2,1
1772,3,1,4,1,1,1,-3,1,1,1,3,1,-15,1,-2,1,-4,1,-4,1,-9,1,1,1
1773,3,1,4,1,1,1,-3,1,1,1,3,1,-16,1,-6,1,-6,1,-5,1,-9,1,1,1
1774,2,1,4,1,2,1,-3,1,0,1,3,1,-16,1,-5,1,-5,1,-5,1,-9,1,0,1
1775,3,1,5,1,2,1,-4,1,1,1,4,1,-17,1,-2,1,-6,1,-4,1,-10,1,2,1
1776,4,1,5,1,1,1,-4,1,2,1,3,1,-16,1,3,1,-5,1,-3,1,-9,1,2,1
1777,5,1,9,1,4,1,-7,1,1,1,7,1,-16,1,8,1,-7,1,-3,1,-11,1,3,1
1778,5,1,11,1,6,1,-8,1,0,1,9,1,-17,1,8,1,-9,1,-5,1,-12,1,3,1
1779,5,1,8,1,3,1,-6,1,1,1,6,1,-18,1,8,1,-9,1,-5,1,-11,1,4,1
1780,5,1,7,1,2,1,-6,1,2,1,5,1,-20,1,1,1,-11,1,-6,1,-10,1,3,1
1781,1,1,7,1,6,1,-4,1,-2,1,7,1,-22,1,-5,1,-10,1,-7,1,-11,1,3,1
1782,0,1,7,1,7,1,-3,1,-3,1,7,1,-25,1,-12,1,-12,1,-8,1,-11,1,2,1
1783,5,1,7,1,2,1,-6,1,2,1,5,1,-28,1,-17,1,-14,1,-10,1,-13,1,0,1
1784,6,1,8,1,2,1,-7,1,2,1,5,1,-27,1,-16,1,-14,1,-10,1,-13,1,1,1
1785,5,1,8,1,3,1,-6,1,1,1,6,1,-28,1,-14,1,-16,1,-9,1,-14,1,1,1
1786,2,1,8,1,6,1,-5,1,-2,1,7,1,-27,1,-8,1,-16,1,-8,1,-12,1,1,1
1787,1,1,6,1,5,1,-3,1,-2,1,6,1,-27,1,-4,1,-17,1,-8,1,-12,1,2,1
1788,0,1,8,1,8,1,-4,1,-4,1,8,1,-27,1,-2,1,-17,1,-7,1,-11,1,4,1
1789,-2,1,11,1,13,1,-4,1,-7,1,12,1,-28,1,-4,1,-16,1,-7,1,-10,1,4,1
1790,0,1,11,1,11,1,-5,1,-5,1,11,1,-31,1,-11,1,-18,1,-9,1,-11,1,4,1
1791,2,1,10,1,8,1,-6,1,-3,1,9,1,-35,1,-21,1,-22,1,-14,1,-14,1,1,1
1792,0,1,9,1,9,1,-4,1,-4,1,9,1,-38,1,-28,1,-23,1,-17,1,-14,1,1,1
1793,0,1,9,1,9,1,-4,1,-4,1,9,1,-39,1,-33,1,-25,1,-17,1,-14,1,2,1
1794,0,1,10,1,10,1,-5,1,-5,1,10,1,-40,1,-35,1,-28,1,-18,1,-17,1,1,1
1795,1,1,10,1,9,1,-5,1,-4,1,10,1,-40,1,-32,1,-29,1,-19,1,-15,1,2,1
1796,0,1,13,1,13,1,-6,1,-6,1,13,1,-40,1,-28,1,-30,1,-19,1,-15,1,2,1
1797,0,1,14,1,14,1,-7,1,-7,1,14,1,-41,1,-26,1,-34,1,-21,1,-17,1,2,1
1798,1,1,13,1,12,1,-7,1,-5,1,13,1,-41,1,-24,1,-34,1,-22,1,-16,1,5,1
1799,0,1,12,1,12,1,-6,1,-6,1,12,1,-43,1,-29,1,-36,1,-23,1,-17,1,3,1
1800,1,1,11,1,10,1,-6,1,-4,1,11,1,-45,1,-37,1,-38,1,-25,1,-19,1,3,1
1801,1,1,11,1,10,1,-6,1,-4,1,11,1,-47,1,-45,1,-41,1,-28,1,-20,1,2,1
1802,-1,1,10,1,11,1,-4,1,-6,1,10,1,-49,1,-51,1,-42,1,-30,1,-20,1,2,1
1803,-3,1,10,1,13,1,-3,1,-8,1,11,1,-50,1,-56,1,-43,1,-30,1,-20,1,2,1
1804,-4,1,12,1,16,1,-4,1,-10,1,14,1,-50,1,-57,1,-46,1,-31,1,-21,1,0,1
1805,-5,1,14,1,19,1,-4,1,-12,1,16,1,-51,1,-55,1,-48,1,-32,1,-22,1,1,1
1806,-5,1,15,1,20,1,-5,1,-12,1,17,1,-49,1,-50,1,-48,1,-31,1,-21,1,3,1
1807,-8,1,7,1,15,1,0,1,-11,1,11,1,-45,1,-43,1,-46,1,-28,1,-19,1,7,1
1808,-5,1,9,1,14,1,-2,1,-9,1,11,1,-45,1,-42,1,-48,1,-30,1,-21,1,3,1
1809,-3,1,10,1,13,1,-3,1,-8,1,11,1,-46,1,-43,1,-47,1,-31,1,-20,1,3,1
1810,-3,1,10,1,13,1,-3,1,-8,1,11,1,-46,1,-46,1,-45,1,-31,1,-20,1,3,1
1811,-2,1,11,1,13,1,-4,1,-7,1,12,1,-46,1,-50,1,-43,1,-31,1,-18,1,2,1
1812,0,1,11,1,11,1,-5,1,-5,1,11,1,-46,1,-54,1,-42,1,-31,1,-20,1,1,1
1813,-2,1,10,1,12,1,-4,1,-7,1,11,1,-44,1,-53,1,-39,1,-29,1,-18,1,3,1
1814,-3,1,9,1,12,1,-3,1,-7,1,10,1,-40,1,-47,1,-35,1,-25,1,-14,1,5,1
1815,-1,1,9,1,10,1,-4,1,-5,1,9,1,-37,1,-39,1,-32,1,-21,1,-14,1,6,1
1816,-2,1,8,1,10,1,-3,1,-6,1,9,1,-31,1,-29,1,-28,1,-18,1,-11,1,7,1
1817,1,1,7,1,6,1,-4,1,-2,1,7,1,-28,1,-19,1,-24,1,-15,1,-9,1,6,1
1818,5,1,10,1,5,1,-7,1,0,1,8,1,-26,1,-12,1,-22,1,-13,1,-10,1,6,1
1819,3,1,12,1,9,1,-7,1,-3,1,11,1,-23,1,-9,1,-18,1,-11,1,-7,1,6,1
1820,3,1,12,1,9,1,-7,1,-3,1,11,1,-21,1,-11,1,-14,1,-9,1,-6,1,6,1
1821,4,1,6,1,2,1,-5,1,1,1,4,1,-20,1,-12,1,-12,1,-8,1,-4,1,6,1
1822,5,1,9,1,4,1,-7,1,1,1,7,1,-19,1,-15,1,-11,1,-7,1,-4,1,3,1
1823,7,1,9,1,2,1,-8,1,3,1,6,1,-19,1,-17,1,-10,1,-7,1,-5,1,3,1
1824,7,1,6,1,-1,1,-6,1,4,1,3,1,-17,1,-14,1,-9,1,-5,1,-4,1,3,1
1825,8,1,5,1,-3,1,-6,1,6,1,1,1,-14,1,-8,1,-7,1,-3,1,-3,1,4,1
1826,6,1,5,1,-1,1,-5,1,4,1,2,1,-9,1,0,1,-6,1,-1,1,-1,1,4,1
1827,5,1,4,1,-1,1,-4,1,3,1,2,1,-6,1,8,1,-5,1,1,1,-1,1,5,1
1828,5,1,2,1,-3,1,-3,1,4,1,0,1,-4,1,11,1,-5,1,0,1,-3,1,5,1
1829,5,1,2,1,-3,1,-3,1,4,1,0,1,-4,1,10,1,-5,1,-1,1,-3,1,4,1
1830,3,1,1,1,-2,1,-2,1,3,1,0,1,-3,1,7,1,-4,1,-2,1,-3,1,3,1
1831,1,1,2,1,1,1,-1,1,0,1,2,1,-3,1,2,1,-3,1,-2,1,-3,1,3,1
1832,3,1,2,1,-1,1,-2,1,2,1,1,1,-4,1,-4,1,-4,1,-4,1,-4,1,1,1
1833,4,1,-1,1,-5,1,-1,1,4,1,-3,1,-5,1,-8,1,-5,1,-6,1,-5,1,0,1
1834,3,1,-3,1,-6,1,0,1,4,1,-4,1,-3,1,-5,1,-6,1,-5,1,-6,1,2,1
1835,4,1,-3,1,-7,1,0,1,5,1,-5,1,-2,1,-2,1,-7,1,-5,1,-7,1,0,1
1836,5,1,0,1,-5,1,-2,1,5,1,-2,1,0,1,5,1,-7,1,-4,1,-7,1,0,1
1837,3,1,1,1,-2,1,-2,1,3,1,0,1,1,1,11,1,-7,1,-4,1,-7,1,0,1
1838,4,1,-2,1,-6,1,-1,1,5,1,-4,1,1,1,12,1,-8,1,-5,1,-7,1,1,1
1839,4,1,-3,1,-7,1,0,1,5,1,-5,1,1,1,10,1,-8,1,-7,1,-6,1,0,1
1840,5,1,-3,1,-8,1,-1,1,6,1,-5,1,0,1,6,1,-7,1,-6,1,-6,1,0,1
1841,6,1,-1,1,-7,1,-2,1,6,1,-4,1,0,1,0,1,-8,1,-9,1,-8,1,0,1
1842,5,1,-3,1,-8,1,-1,1,6,1,-5,1,-1,1,-5,1,-8,1,-10,1,-7,1,-1,1
1843,5,1,-3,1,-8,1,-1,1,6,1,-5,1,-2,1,-8,1,-9,1,-10,1,-8,1,-1,1
1844,3,1,-4,1,-7,1,0,1,5,1,-5,1,-2,1,-7,1,-10,1,-10,1,-8,1,-1,1
1845,1,1,-7,1,-8,1,3,1,4,1,-7,1,1,1,-1,1,-8,1,-7,1,-7,1,-1,1
1846,3,1,-5,1,-8,1,1,1,5,1,-6,1,2,1,4,1,-9,1,-7,1,-8,1,1,1
1847,4,1,-6,1,-10,1,1,1,7,1,-8,1,4,1,10,1,-9,1,-7,1,-7,1,1,1
1848,2,1,-3,1,-5,1,0,1,3,1,-4,1,5,1,14,1,-8,1,-6,1,-7,1,0,1
1849,3,1,-3,1,-6,1,0,1,4,1,-4,1,2,1,11,1,-9,1,-8,1,-9,1,-1,1
1850,5,1,-3,1,-8,1,-1,1,6,1,-5,1,1,1,6,1,-10,1,-11,1,-10,1,-3,1
1851,6,1,-5,1,-11,1,0,1,8,1,-8,1,0,1,0,1,-10,1,-12,1,-11,1,-3,1
1852,8,1,-5,1,-13,1,-1,1,10,1,-9,1,-2,1,-6,1,-11,1,-13,1,-12,1,-5,1
1853,6,1,-6,1,-12,1,0,1,9,1,-9,1,-1,1,-7,1,-9,1,-12,1,-11,1,-6,1
1854,1,1,-6,1,-7,1,2,1,4,1,-6,1,1,1,-4,1,-9,1,-10,1,-9,1,-4,1
1855,2,1,-6,1,-8,1,2,1,5,1,-7,1,2,1,0,1,-9,1,-10,1,-9,1,-3,1
1856,1,1,-8,1,-9,1,3,1,5,1,-8,1,5,1,7,1,-7,1,-8,1,-9,1,-2,1
1857,2,1,-5,1,-7,1,1,1,4,1,-6,1,5,1,11,1,-8,1,-8,1,-10,1,-3,1
1858,6,1,-4,1,-10,1,-1,1,8,1,-7,1,4,1,12,1,-10,1,-12,1,-13,1,-6,1
1859,1,1,-4,1,-5,1,1,1,3,1,-4,1,4,1,13,1,-8,1,-9,1,-11,1,-3,1
1860,0,1,-4,1,-4,1,2,1,2,1,-4,1,3,1,8,1,-8,1,-10,1,-10,1,-3,1
1861,1,1,-4,1,-5,1,1,1,3,1,-4,1,1,1,3,1,-8,1,-11,1,-11,1,-3,1
1862,1,1,-4,1,-5,1,1,1,3,1,-4,1,0,1,-1,1,-9,1,-11,1,-11,1,-4,1
1863,3,1,-5,1,-8,1,1,1,5,1,-6,1,-1,1,-5,1,-9,1,-11,1,-11,1,-5,1
1864,0,1,-6,1,-6,1,3,1,3,1,-6,1,0,1,-3,1,-8,1,-10,1,-11,1,-5,1
1865,1,1,-7,1,-8,1,3,1,4,1,-7,1,0,1,2,1,-9,1,-10,1,-12,1,-5,1
1866,1,1,-5,1,-6,1,2,1,3,1,-5,1,1,1,6,1,-9,1,-10,1,-11,1,-4,1
1867,0,1,-5,1,-5,1,2,1,2,1,-5,1,4,1,13,1,-7,1,-7,1,-10,1,-3,1
1868,1,1,-5,1,-6,1,2,1,3,1,-5,1,5,1,17,1,-7,1,-7,1,-11,1,-3,1
