TS,I,If,II,IIf,III,IIIf,aVR,aVRf,aVL,aVLf,aVF,aVFf,V1,V1f,V2,V2f,V3,V3f,V4,V4f,V5,V5f,V6,V6f
1,-7,1,-2,1,5,1,4,1,-6,1,1,1,-6,1,-19,1,-12,1,-23,1,-17,1,-10,1
2,-7,1,-2,1,5,1,4,1,-6,1,1,1,-7,1,-19,1,-13,1,-23,1,-17,1,-10,1
3,-7,1,-2,1,5,1,4,1,-6,1,1,1,-7,1,-20,1,-13,1,-22,1,-18,1,-10,1
4,-7,1,-2,1,5,1,4,1,-6,1,1,1,-7,1,-19,1,-13,1,-21,1,-18,1,-9,1
5,-7,1,-2,1,5,1,4,1,-6,1,1,1,-7,1,-20,1,-13,1,-21,1,-18,1,-9,1
6,-7,1,-2,1,5,1,4,1,-6,1,1,1,-7,1,-21,1,-13,1,-21,1,-19,1,-10,1
7,-8,1,-2,1,6,1,5,1,-7,1,2,1,-7,1,-21,1,-13,1,-21,1,-19,1,-10,1
8,-7,1,-1,1,6,1,4,1,-7,1,2,1,-7,1,-20,1,-13,1,-20,1,-19,1,-11,1
9,-7,1,-1,1,6,1,4,1,-7,1,2,1,-7,1,-20,1,-13,1,-20,1,-19,1,-10,1
10,-7,1,0,1,7,1,3,1,-7,1,3,1,-7,1,-20,1,-13,1,-20,1,-19,1,-10,1
11,-7,1,0,1,7,1,3,1,-7,1,3,1,-7,1,-20,1,-13,1,-20,1,-19,1,-10,1
12,-7,1,1,1,8,1,3,1,-7,1,4,1,-7,1,-20,1,-13,1,-20,1,-19,1,-10,1
13,-7,1,1,1,8,1,3,1,-7,1,4,1,-7,1,-20,1,-13,1,-20,1,-18,1,-10,1
14,-6,1,0,1,6,1,3,1,-6,1,3,1,-6,1,-19,1,-13,1,-20,1,-18,1,-10,1
15,-6,1,0,1,6,1,3,1,-6,1,3,1,-6,1,-18,1,-13,1,-19,1,-18,1,-9,1
16,-5,1,0,1,5,1,2,1,-5,1,2,1,-5,1,-17,1,-12,1,-19,1,-18,1,-9,1
17,-5,1,0,1,5,1,2,1,-5,1,2,1,-4,1,-17,1,-11,1,-18,1,-17,1,-9,1
18,-4,1,0,1,4,1,2,1,-4,1,2,1,-3,1,-15,1,-10,1,-18,1,-17,1,-8,1
19,-4,1,1,1,5,1,1,1,-4,1,3,1,-3,1,-15,1,-10,1,-18,1,-17,1,-8,1
20,-4,1,2,1,6,1,1,1,-5,1,4,1,-3,1,-15,1,-10,1,-17,1,-16,1,-8,1
21,-4,1,2,1,6,1,1,1,-5,1,4,1,-3,1,-15,1,-9,1,-17,1,-16,1,-8,1
22,-4,1,3,1,7,1,0,1,-5,1,5,1,-3,1,-15,1,-9,1,-16,1,-16,1,-8,1
23,-4,1,3,1,7,1,0,1,-5,1,5,1,-3,1,-16,1,-9,1,-17,1,-16,1,-8,1
24,-3,1,3,1,6,1,0,1,-4,1,4,1,-3,1,-15,1,-8,1,-16,1,-15,1,-8,1
25,-3,1,4,1,7,1,0,1,-5,1,5,1,-2,1,-15,1,-8,1,-15,1,-14,1,-7,1
26,-3,1,4,1,7,1,0,1,-5,1,5,1,-2,1,-14,1,-8,1,-15,1,-14,1,-7,1
27,-2,1,5,1,7,1,-1,1,-4,1,6,1,-2,1,-14,1,-7,1,-14,1,-14,1,-6,1
28,-2,1,5,1,7,1,-1,1,-4,1,6,1,-1,1,-13,1,-6,1,-14,1,-13,1,-6,1
29,-1,1,6,1,7,1,-2,1,-4,1,6,1,-1,1,-12,1,-6,1,-14,1,-13,1,-6,1
30,-1,1,6,1,7,1,-2,1,-4,1,6,1,-1,1,-10,1,-7,1,-14,1,-13,1,-6,1
31,-1,1,6,1,7,1,-2,1,-4,1,6,1,0,1,-9,1,-6,1,-13,1,-13,1,-6,1
32,-1,1,6,1,7,1,-2,1,-4,1,6,1,0,1,-9,1,-6,1,-13,1,-12,1,-6,1
33,-1,1,6,1,7,1,-2,1,-4,1,6,1,0,1,-9,1,-6,1,-12,1,-12,1,-5,1
34,0,1,5,1,5,1,-2,1,-2,1,5,1,0,1,-8,1,-5,1,-11,1,-11,1,-4,1
35,0,1,6,1,6,1,-3,1,-3,1,6,1,1,1,-8,1,-5,1,-11,1,-11,1,-4,1
36,1,1,6,1,5,1,-3,1,-2,1,6,1,1,1,-7,1,-4,1,-11,1,-10,1,-3,1
37,2,1,7,1,5,1,-4,1,-1,1,6,1,1,1,-7,1,-3,1,-10,1,-10,1,-2,1
38,3,1,8,1,5,1,-5,1,-1,1,7,1,0,1,-5,1,-1,1,-9,1,-9,1,-2,1
39,4,1,9,1,5,1,-6,1,0,1,7,1,0,1,-3,1,0,1,-8,1,-8,1,-1,1
40,5,1,10,1,5,1,-7,1,0,1,8,1,-1,1,-2,1,0,1,-7,1,-8,1,-1,1
41,5,1,10,1,5,1,-7,1,0,1,8,1,-2,1,-1,1,1,1,-6,1,-7,1,0,1
42,6,1,10,1,4,1,-8,1,1,1,7,1,-3,1,-1,1,1,1,-6,1,-6,1,0,1
43,7,1,11,1,4,1,-9,1,2,1,8,1,-3,1,-2,1,1,1,-5,1,-6,1,0,1
44,7,1,11,1,4,1,-9,1,2,1,8,1,-4,1,-2,1,1,1,-5,1,-5,1,1,1
45,8,1,11,1,3,1,-9,1,3,1,7,1,-5,1,-2,1,1,1,-5,1,-5,1,2,1
46,8,1,10,1,2,1,-9,1,3,1,6,1,-6,1,-3,1,0,1,-6,1,-6,1,1,1
47,8,1,9,1,1,1,-8,1,4,1,5,1,-7,1,-4,1,-1,1,-7,1,-7,1,0,1
48,7,1,8,1,1,1,-7,1,3,1,5,1,-8,1,-4,1,-2,1,-8,1,-7,1,0,1
49,6,1,7,1,1,1,-6,1,3,1,4,1,-8,1,-6,1,-2,1,-9,1,-8,1,-1,1
50,6,1,6,1,0,1,-6,1,3,1,3,1,-9,1,-7,1,-4,1,-10,1,-9,1,-2,1
51,5,1,5,1,0,1,-5,1,3,1,3,1,-9,1,-8,1,-5,1,-11,1,-10,1,-3,1
52,5,1,5,1,0,1,-5,1,3,1,3,1,-10,1,-10,1,-5,1,-11,1,-10,1,-4,1
53,6,1,4,1,-2,1,-5,1,4,1,1,1,-10,1,-12,1,-6,1,-12,1,-11,1,-5,1
54,6,1,3,1,-3,1,-4,1,5,1,0,1,-11,1,-14,1,-7,1,-13,1,-11,1,-5,1
55,5,1,3,1,-2,1,-4,1,4,1,1,1,-11,1,-15,1,-8,1,-13,1,-12,1,-5,1
56,4,1,2,1,-2,1,-3,1,3,1,0,1,-12,1,-16,1,-10,1,-14,1,-13,1,-6,1
57,4,1,1,1,-3,1,-2,1,4,1,-1,1,-12,1,-17,1,-11,1,-15,1,-13,1,-7,1
58,3,1,0,1,-3,1,-1,1,3,1,-1,1,-13,1,-17,1,-11,1,-16,1,-14,1,-7,1
59,3,1,0,1,-3,1,-1,1,3,1,-1,1,-13,1,-17,1,-12,1,-17,1,-14,1,-7,1
60,3,1,-1,1,-4,1,-1,1,3,1,-2,1,-13,1,-18,1,-13,1,-18,1,-15,1,-8,1
61,1,1,-1,1,-2,1,0,1,1,1,-1,1,-12,1,-19,1,-14,1,-18,1,-16,1,-7,1
62,0,1,-2,1,-2,1,1,1,1,1,-2,1,-11,1,-19,1,-14,1,-18,1,-16,1,-7,1
63,-1,1,-2,1,-1,1,1,1,0,1,-2,1,-10,1,-20,1,-14,1,-19,1,-17,1,-8,1
64,-3,1,-2,1,1,1,2,1,-2,1,-1,1,-10,1,-20,1,-14,1,-19,1,-17,1,-8,1
65,-4,1,-3,1,1,1,3,1,-3,1,-1,1,-10,1,-20,1,-14,1,-20,1,-17,1,-9,1
66,-5,1,-3,1,2,1,4,1,-4,1,-1,1,-9,1,-21,1,-15,1,-20,1,-17,1,-10,1
67,-6,1,-4,1,2,1,5,1,-4,1,-1,1,-9,1,-21,1,-16,1,-21,1,-18,1,-10,1
68,-7,1,-4,1,3,1,5,1,-5,1,-1,1,-9,1,-21,1,-16,1,-21,1,-18,1,-10,1
69,-7,1,-4,1,3,1,5,1,-5,1,-1,1,-9,1,-22,1,-15,1,-21,1,-18,1,-10,1
70,-7,1,-4,1,3,1,5,1,-5,1,-1,1,-9,1,-22,1,-15,1,-22,1,-19,1,-11,1
71,-7,1,-5,1,2,1,6,1,-5,1,-2,1,-10,1,-22,1,-15,1,-22,1,-20,1,-11,1
72,-7,1,-5,1,2,1,6,1,-5,1,-2,1,-10,1,-22,1,-15,1,-22,1,-20,1,-11,1
73,-7,1,-5,1,2,1,6,1,-5,1,-2,1,-10,1,-23,1,-16,1,-22,1,-20,1,-11,1
74,-7,1,-6,1,1,1,6,1,-4,1,-3,1,-10,1,-24,1,-16,1,-23,1,-20,1,-12,1
75,-7,1,-5,1,2,1,6,1,-5,1,-2,1,-10,1,-24,1,-16,1,-23,1,-19,1,-11,1
76,-7,1,-5,1,2,1,6,1,-5,1,-2,1,-9,1,-25,1,-17,1,-23,1,-19,1,-11,1
77,-8,1,-5,1,3,1,6,1,-6,1,-1,1,-9,1,-24,1,-17,1,-22,1,-19,1,-11,1
78,-8,1,-5,1,3,1,6,1,-6,1,-1,1,-9,1,-24,1,-17,1,-22,1,-19,1,-11,1
79,-8,1,-5,1,3,1,6,1,-6,1,-1,1,-9,1,-25,1,-17,1,-22,1,-19,1,-11,1
80,-8,1,-5,1,3,1,6,1,-6,1,-1,1,-10,1,-24,1,-17,1,-23,1,-20,1,-11,1
81,-8,1,-5,1,3,1,6,1,-6,1,-1,1,-11,1,-24,1,-17,1,-22,1,-20,1,-10,1
82,-9,1,-5,1,4,1,7,1,-7,1,-1,1,-11,1,-24,1,-16,1,-22,1,-20,1,-10,1
83,-9,1,-4,1,5,1,6,1,-7,1,0,1,-11,1,-24,1,-16,1,-22,1,-19,1,-10,1
84,-9,1,-4,1,5,1,6,1,-7,1,0,1,-10,1,-24,1,-16,1,-22,1,-19,1,-10,1
85,-9,1,-4,1,5,1,6,1,-7,1,0,1,-10,1,-24,1,-17,1,-22,1,-19,1,-10,1
86,-9,1,-3,1,6,1,6,1,-8,1,1,1,-10,1,-24,1,-16,1,-21,1,-19,1,-10,1
87,-8,1,-3,1,5,1,5,1,-7,1,1,1,-10,1,-23,1,-16,1,-21,1,-19,1,-10,1
88,-8,1,-4,1,4,1,6,1,-6,1,0,1,-10,1,-22,1,-16,1,-21,1,-18,1,-10,1
89,-9,1,-4,1,5,1,6,1,-7,1,0,1,-10,1,-22,1,-16,1,-21,1,-18,1,-10,1
90,-9,1,-4,1,5,1,6,1,-7,1,0,1,-10,1,-21,1,-15,1,-21,1,-18,1,-10,1
91,-9,1,-3,1,6,1,6,1,-8,1,1,1,-9,1,-20,1,-15,1,-21,1,-17,1,-9,1
92,-10,1,-2,1,8,1,6,1,-9,1,3,1,-9,1,-20,1,-13,1,-20,1,-17,1,-8,1
93,-10,1,0,1,10,1,5,1,-10,1,5,1,-7,1,-18,1,-11,1,-18,1,-16,1,-7,1
94,-11,1,2,1,13,1,4,1,-12,1,7,1,-6,1,-13,1,-7,1,-16,1,-13,1,-5,1
95,-10,1,5,1,15,1,2,1,-12,1,10,1,-3,1,-6,1,-1,1,-11,1,-10,1,-2,1
96,-9,1,9,1,18,1,0,1,-13,1,13,1,-1,1,3,1,7,1,-5,1,-6,1,1,1
97,-7,1,11,1,18,1,-2,1,-12,1,14,1,0,1,14,1,16,1,1,1,0,1,5,1
98,-4,1,13,1,17,1,-4,1,-10,1,15,1,0,1,27,1,27,1,10,1,6,1,9,1
99,2,1,16,1,14,1,-9,1,-6,1,15,1,0,1,44,1,40,1,21,1,14,1,14,1
100,12,1,20,1,8,1,-16,1,2,1,14,1,0,1,66,1,56,1,36,1,26,1,22,1
101,26,1,26,1,0,1,-26,1,13,1,13,1,-1,1,92,1,79,1,59,1,44,1,36,1
102,43,1,35,1,-8,1,-39,1,26,1,14,1,-5,1,117,1,104,1,87,1,67,1,55,1
103,62,1,47,1,-15,1,-54,1,39,1,16,1,-10,1,135,1,130,1,117,1,93,1,76,1
104,80,1,58,1,-22,1,-69,1,51,1,18,1,-16,1,141,1,150,1,145,1,119,1,98,1
105,94,1,68,1,-26,1,-81,1,60,1,21,1,-21,1,139,1,167,1,170,1,143,1,119,1
106,109,1,75,1,-34,1,-92,1,72,1,21,1,-27,1,136,1,181,1,192,1,164,1,137,1
107,122,1,82,1,-40,1,-102,1,81,1,21,1,-34,1,128,1,192,1,212,1,183,1,152,1
108,135,1,87,1,-48,1,-111,1,92,1,20,1,-41,1,114,1,201,1,231,1,202,1,167,1
109,149,1,87,1,-62,1,-118,1,106,1,13,1,-49,1,97,1,203,1,244,1,214,1,176,1
110,160,1,80,1,-80,1,-120,1,120,1,0,1,-55,1,76,1,196,1,245,1,215,1,175,1
111,167,1,66,1,-101,1,-116,1,134,1,-17,1,-60,1,52,1,178,1,231,1,201,1,163,1
112,166,1,52,1,-114,1,-109,1,140,1,-31,1,-62,1,20,1,149,1,205,1,176,1,144,1
113,155,1,38,1,-117,1,-96,1,136,1,-39,1,-62,1,-23,1,108,1,167,1,143,1,120,1
114,134,1,23,1,-111,1,-78,1,123,1,-44,1,-57,1,-72,1,59,1,115,1,100,1,86,1
115,106,1,6,1,-100,1,-56,1,103,1,-47,1,-50,1,-119,1,6,1,56,1,50,1,48,1
116,70,1,-9,1,-79,1,-30,1,74,1,-44,1,-42,1,-166,1,-46,1,-1,1,4,1,13,1
117,33,1,-20,1,-53,1,-6,1,43,1,-36,1,-35,1,-211,1,-94,1,-54,1,-35,1,-16,1
118,-1,1,-26,1,-25,1,13,1,12,1,-26,1,-29,1,-246,1,-132,1,-97,1,-66,1,-40,1
119,-29,1,-28,1,1,1,28,1,-15,1,-14,1,-26,1,-270,1,-155,1,-125,1,-86,1,-54,1
120,-49,1,-26,1,23,1,37,1,-36,1,-2,1,-25,1,-282,1,-165,1,-139,1,-96,1,-62,1
121,-61,1,-23,1,38,1,42,1,-50,1,7,1,-25,1,-286,1,-168,1,-142,1,-100,1,-64,1
122,-68,1,-23,1,45,1,45,1,-57,1,11,1,-27,1,-282,1,-166,1,-140,1,-100,1,-64,1
123,-70,1,-25,1,45,1,47,1,-58,1,10,1,-30,1,-274,1,-163,1,-135,1,-99,1,-62,1
124,-69,1,-27,1,42,1,48,1,-56,1,7,1,-33,1,-258,1,-157,1,-129,1,-96,1,-61,1
125,-65,1,-29,1,36,1,47,1,-51,1,3,1,-37,1,-238,1,-150,1,-121,1,-90,1,-58,1
126,-59,1,-29,1,30,1,44,1,-45,1,0,1,-39,1,-214,1,-140,1,-111,1,-83,1,-55,1
127,-51,1,-28,1,23,1,39,1,-37,1,-3,1,-40,1,-184,1,-125,1,-101,1,-74,1,-49,1
128,-43,1,-25,1,18,1,34,1,-31,1,-4,1,-38,1,-153,1,-106,1,-88,1,-64,1,-43,1
129,-35,1,-22,1,13,1,28,1,-24,1,-5,1,-34,1,-124,1,-86,1,-75,1,-55,1,-36,1
130,-28,1,-18,1,10,1,23,1,-19,1,-4,1,-29,1,-98,1,-67,1,-63,1,-46,1,-30,1
131,-21,1,-14,1,7,1,17,1,-14,1,-4,1,-25,1,-78,1,-50,1,-50,1,-38,1,-24,1
132,-15,1,-10,1,5,1,12,1,-10,1,-3,1,-21,1,-62,1,-36,1,-38,1,-30,1,-18,1
133,-10,1,-6,1,4,1,8,1,-7,1,-1,1,-18,1,-50,1,-26,1,-29,1,-24,1,-13,1
134,-7,1,-2,1,5,1,4,1,-6,1,1,1,-15,1,-41,1,-18,1,-21,1,-18,1,-8,1
135,-3,1,0,1,3,1,1,1,-3,1,1,1,-13,1,-33,1,-14,1,-15,1,-13,1,-4,1
136,-1,1,2,1,3,1,0,1,-2,1,2,1,-13,1,-25,1,-11,1,-12,1,-10,1,-3,1
137,-1,1,3,1,4,1,-1,1,-2,1,3,1,-12,1,-17,1,-8,1,-10,1,-7,1,-1,1
138,0,1,2,1,2,1,-1,1,-1,1,2,1,-11,1,-9,1,-5,1,-9,1,-7,1,-1,1
139,0,1,1,1,1,1,0,1,0,1,1,1,-11,1,-4,1,-3,1,-9,1,-7,1,-1,1
140,1,1,0,1,-1,1,0,1,1,1,0,1,-10,1,0,1,0,1,-9,1,-7,1,-1,1
141,1,1,0,1,-1,1,0,1,1,1,0,1,-9,1,2,1,1,1,-7,1,-7,1,-1,1
142,2,1,-1,1,-3,1,0,1,2,1,-2,1,-7,1,3,1,3,1,-6,1,-7,1,-1,1
143,2,1,0,1,-2,1,-1,1,2,1,-1,1,-7,1,3,1,4,1,-4,1,-7,1,0,1
144,3,1,0,1,-3,1,-1,1,3,1,-1,1,-7,1,3,1,5,1,-3,1,-6,1,0,1
145,3,1,1,1,-2,1,-2,1,3,1,0,1,-7,1,4,1,6,1,-3,1,-5,1,0,1
146,3,1,1,1,-2,1,-2,1,3,1,0,1,-7,1,5,1,6,1,-2,1,-4,1,0,1
147,4,1,1,1,-3,1,-2,1,4,1,-1,1,-7,1,8,1,7,1,-2,1,-4,1,0,1
148,4,1,1,1,-3,1,-2,1,4,1,-1,1,-7,1,10,1,7,1,-1,1,-4,1,1,1
149,4,1,1,1,-3,1,-2,1,4,1,-1,1,-7,1,11,1,8,1,-1,1,-3,1,1,1
150,5,1,2,1,-3,1,-3,1,4,1,0,1,-7,1,12,1,8,1,0,1,-3,1,2,1
151,5,1,2,1,-3,1,-3,1,4,1,0,1,-7,1,12,1,9,1,0,1,-2,1,2,1
152,5,1,2,1,-3,1,-3,1,4,1,0,1,-7,1,13,1,9,1,1,1,-2,1,2,1
153,5,1,2,1,-3,1,-3,1,4,1,0,1,-7,1,13,1,10,1,1,1,-3,1,2,1
154,6,1,2,1,-4,1,-4,1,5,1,-1,1,-8,1,14,1,10,1,2,1,-2,1,2,1
155,6,1,2,1,-4,1,-4,1,5,1,-1,1,-7,1,16,1,11,1,3,1,-1,1,3,1
156,7,1,3,1,-4,1,-5,1,6,1,0,1,-8,1,17,1,12,1,3,1,0,1,3,1
157,7,1,3,1,-4,1,-5,1,6,1,0,1,-8,1,19,1,12,1,4,1,0,1,3,1
158,8,1,3,1,-5,1,-5,1,7,1,-1,1,-7,1,20,1,13,1,4,1,1,1,4,1
159,8,1,3,1,-5,1,-5,1,7,1,-1,1,-7,1,21,1,14,1,5,1,1,1,5,1
160,8,1,4,1,-4,1,-6,1,6,1,0,1,-7,1,21,1,14,1,4,1,1,1,5,1
161,9,1,4,1,-5,1,-6,1,7,1,0,1,-7,1,21,1,14,1,5,1,1,1,6,1
162,9,1,5,1,-4,1,-7,1,7,1,1,1,-7,1,22,1,14,1,5,1,2,1,7,1
163,10,1,5,1,-5,1,-7,1,8,1,0,1,-8,1,22,1,14,1,6,1,2,1,7,1
164,11,1,4,1,-7,1,-7,1,9,1,-1,1,-8,1,22,1,15,1,6,1,2,1,7,1
165,11,1,4,1,-7,1,-7,1,9,1,-1,1,-9,1,24,1,15,1,7,1,3,1,7,1
166,11,1,4,1,-7,1,-7,1,9,1,-1,1,-9,1,25,1,16,1,7,1,3,1,7,1
167,11,1,4,1,-7,1,-7,1,9,1,-1,1,-10,1,26,1,17,1,8,1,4,1,7,1
168,12,1,5,1,-7,1,-8,1,10,1,-1,1,-10,1,27,1,18,1,9,1,4,1,8,1
169,13,1,6,1,-7,1,-9,1,10,1,0,1,-10,1,28,1,18,1,9,1,5,1,8,1
170,13,1,6,1,-7,1,-9,1,10,1,0,1,-10,1,29,1,18,1,9,1,5,1,8,1
171,14,1,7,1,-7,1,-10,1,11,1,0,1,-9,1,30,1,19,1,9,1,5,1,9,1
172,14,1,7,1,-7,1,-10,1,11,1,0,1,-9,1,31,1,20,1,10,1,5,1,9,1
173,15,1,7,1,-8,1,-11,1,12,1,0,1,-10,1,31,1,20,1,11,1,6,1,10,1
174,15,1,7,1,-8,1,-11,1,12,1,0,1,-11,1,32,1,21,1,12,1,6,1,10,1
175,16,1,6,1,-10,1,-11,1,13,1,-2,1,-11,1,33,1,22,1,13,1,7,1,10,1
176,16,1,6,1,-10,1,-11,1,13,1,-2,1,-12,1,34,1,22,1,14,1,7,1,11,1
177,16,1,6,1,-10,1,-11,1,13,1,-2,1,-11,1,35,1,23,1,14,1,7,1,11,1
178,17,1,6,1,-11,1,-11,1,14,1,-2,1,-11,1,37,1,24,1,15,1,8,1,11,1
179,17,1,7,1,-10,1,-12,1,14,1,-1,1,-11,1,38,1,24,1,15,1,9,1,11,1
180,18,1,7,1,-11,1,-12,1,15,1,-2,1,-10,1,39,1,25,1,17,1,10,1,12,1
181,19,1,8,1,-11,1,-13,1,15,1,-1,1,-10,1,41,1,26,1,18,1,11,1,12,1
182,20,1,8,1,-12,1,-14,1,16,1,-2,1,-10,1,42,1,27,1,19,1,12,1,13,1
183,21,1,9,1,-12,1,-15,1,17,1,-1,1,-11,1,43,1,28,1,19,1,12,1,13,1
184,22,1,9,1,-13,1,-15,1,18,1,-2,1,-12,1,44,1,29,1,19,1,13,1,13,1
185,23,1,9,1,-14,1,-16,1,19,1,-2,1,-12,1,46,1,30,1,21,1,14,1,14,1
186,23,1,10,1,-13,1,-16,1,18,1,-1,1,-12,1,47,1,30,1,22,1,15,1,14,1
187,24,1,10,1,-14,1,-17,1,19,1,-2,1,-12,1,48,1,31,1,23,1,15,1,15,1
188,25,1,10,1,-15,1,-17,1,20,1,-2,1,-13,1,49,1,32,1,24,1,16,1,16,1
189,25,1,11,1,-14,1,-18,1,20,1,-1,1,-13,1,50,1,32,1,25,1,17,1,17,1
190,26,1,11,1,-15,1,-18,1,21,1,-2,1,-14,1,51,1,33,1,26,1,17,1,17,1
191,28,1,12,1,-16,1,-20,1,22,1,-2,1,-13,1,53,1,34,1,27,1,18,1,18,1
192,29,1,12,1,-17,1,-20,1,23,1,-2,1,-13,1,54,1,35,1,27,1,19,1,18,1
193,30,1,13,1,-17,1,-21,1,24,1,-2,1,-13,1,55,1,36,1,28,1,19,1,19,1
194,32,1,14,1,-18,1,-23,1,25,1,-2,1,-14,1,56,1,37,1,29,1,20,1,20,1
195,32,1,15,1,-17,1,-23,1,25,1,-1,1,-13,1,58,1,38,1,30,1,21,1,21,1
196,34,1,15,1,-19,1,-24,1,27,1,-2,1,-13,1,60,1,39,1,31,1,22,1,22,1
197,35,1,16,1,-19,1,-25,1,27,1,-1,1,-14,1,62,1,40,1,32,1,23,1,22,1
198,36,1,16,1,-20,1,-26,1,28,1,-2,1,-14,1,64,1,41,1,33,1,24,1,22,1
199,37,1,16,1,-21,1,-26,1,29,1,-2,1,-15,1,65,1,41,1,33,1,25,1,22,1
200,38,1,17,1,-21,1,-27,1,30,1,-2,1,-15,1,66,1,42,1,34,1,26,1,23,1
201,38,1,18,1,-20,1,-28,1,29,1,-1,1,-16,1,67,1,43,1,35,1,27,1,24,1
202,39,1,18,1,-21,1,-28,1,30,1,-1,1,-17,1,69,1,44,1,36,1,28,1,25,1
203,41,1,18,1,-23,1,-29,1,32,1,-2,1,-18,1,69,1,45,1,38,1,29,1,25,1
204,42,1,19,1,-23,1,-30,1,33,1,-2,1,-19,1,71,1,46,1,40,1,30,1,27,1
205,44,1,19,1,-25,1,-31,1,35,1,-3,1,-20,1,73,1,48,1,41,1,31,1,28,1
206,45,1,20,1,-25,1,-32,1,35,1,-2,1,-20,1,74,1,49,1,43,1,32,1,29,1
207,46,1,20,1,-26,1,-33,1,36,1,-3,1,-20,1,75,1,49,1,44,1,33,1,30,1
208,48,1,21,1,-27,1,-34,1,38,1,-3,1,-20,1,77,1,51,1,45,1,34,1,31,1
209,50,1,21,1,-29,1,-35,1,40,1,-4,1,-20,1,79,1,53,1,45,1,34,1,31,1
210,51,1,22,1,-29,1,-36,1,40,1,-3,1,-21,1,80,1,54,1,46,1,35,1,32,1
211,52,1,23,1,-29,1,-37,1,41,1,-3,1,-21,1,82,1,55,1,47,1,36,1,33,1
212,54,1,23,1,-31,1,-38,1,43,1,-4,1,-21,1,83,1,56,1,49,1,37,1,34,1
213,55,1,24,1,-31,1,-39,1,43,1,-3,1,-21,1,84,1,57,1,51,1,38,1,35,1
214,56,1,25,1,-31,1,-40,1,44,1,-3,1,-22,1,84,1,57,1,52,1,38,1,36,1
215,56,1,25,1,-31,1,-40,1,44,1,-3,1,-23,1,85,1,58,1,53,1,39,1,37,1
216,57,1,25,1,-32,1,-41,1,45,1,-3,1,-23,1,86,1,59,1,53,1,40,1,37,1
217,58,1,26,1,-32,1,-42,1,45,1,-3,1,-24,1,87,1,60,1,54,1,40,1,38,1
218,58,1,26,1,-32,1,-42,1,45,1,-3,1,-23,1,88,1,61,1,54,1,40,1,37,1
219,59,1,27,1,-32,1,-43,1,46,1,-2,1,-23,1,89,1,61,1,54,1,40,1,37,1
220,60,1,27,1,-33,1,-43,1,47,1,-3,1,-23,1,89,1,61,1,54,1,41,1,37,1
221,61,1,28,1,-33,1,-44,1,47,1,-2,1,-23,1,89,1,61,1,54,1,41,1,38,1
222,62,1,28,1,-34,1,-45,1,48,1,-3,1,-23,1,90,1,61,1,55,1,41,1,38,1
223,63,1,29,1,-34,1,-46,1,49,1,-2,1,-24,1,89,1,61,1,55,1,41,1,38,1
224,63,1,28,1,-35,1,-45,1,49,1,-3,1,-24,1,89,1,60,1,55,1,41,1,38,1
225,63,1,27,1,-36,1,-45,1,50,1,-4,1,-24,1,89,1,60,1,54,1,41,1,38,1
226,62,1,26,1,-36,1,-44,1,49,1,-5,1,-24,1,88,1,59,1,54,1,40,1,38,1
227,62,1,26,1,-36,1,-44,1,49,1,-5,1,-24,1,88,1,58,1,53,1,40,1,37,1
228,62,1,25,1,-37,1,-43,1,50,1,-6,1,-24,1,87,1,58,1,52,1,40,1,36,1
229,62,1,25,1,-37,1,-43,1,50,1,-6,1,-24,1,86,1,56,1,51,1,39,1,35,1
230,62,1,25,1,-37,1,-43,1,50,1,-6,1,-24,1,85,1,56,1,50,1,39,1,35,1
231,62,1,25,1,-37,1,-43,1,50,1,-6,1,-25,1,84,1,55,1,50,1,38,1,34,1
232,62,1,24,1,-38,1,-43,1,50,1,-7,1,-24,1,82,1,55,1,49,1,37,1,34,1
233,61,1,24,1,-37,1,-42,1,49,1,-6,1,-25,1,80,1,54,1,48,1,36,1,33,1
234,60,1,23,1,-37,1,-41,1,49,1,-7,1,-24,1,79,1,53,1,48,1,35,1,33,1
235,58,1,22,1,-36,1,-40,1,47,1,-7,1,-24,1,77,1,51,1,46,1,34,1,32,1
236,57,1,22,1,-35,1,-39,1,46,1,-6,1,-24,1,76,1,49,1,44,1,33,1,31,1
237,55,1,21,1,-34,1,-38,1,45,1,-6,1,-23,1,74,1,47,1,42,1,31,1,30,1
238,53,1,21,1,-32,1,-37,1,43,1,-5,1,-22,1,72,1,46,1,41,1,30,1,29,1
239,51,1,21,1,-30,1,-36,1,41,1,-4,1,-22,1,70,1,44,1,39,1,28,1,29,1
240,50,1,20,1,-30,1,-35,1,40,1,-5,1,-21,1,67,1,42,1,37,1,26,1,27,1
241,49,1,20,1,-29,1,-34,1,39,1,-4,1,-20,1,64,1,40,1,35,1,25,1,26,1
242,48,1,19,1,-29,1,-33,1,39,1,-5,1,-20,1,62,1,38,1,33,1,23,1,24,1
243,46,1,18,1,-28,1,-32,1,37,1,-5,1,-19,1,59,1,36,1,31,1,22,1,23,1
244,44,1,17,1,-27,1,-30,1,36,1,-5,1,-18,1,57,1,35,1,30,1,21,1,23,1
245,42,1,15,1,-27,1,-28,1,35,1,-6,1,-18,1,55,1,33,1,28,1,20,1,22,1
246,39,1,15,1,-24,1,-27,1,32,1,-4,1,-17,1,52,1,31,1,26,1,18,1,21,1
247,37,1,14,1,-23,1,-25,1,30,1,-4,1,-17,1,49,1,29,1,24,1,17,1,20,1
248,34,1,13,1,-21,1,-23,1,28,1,-4,1,-16,1,46,1,28,1,22,1,17,1,19,1
249,32,1,13,1,-19,1,-22,1,26,1,-3,1,-15,1,43,1,25,1,20,1,15,1,17,1
250,29,1,12,1,-17,1,-20,1,23,1,-2,1,-15,1,40,1,23,1,18,1,13,1,16,1
251,28,1,12,1,-16,1,-20,1,22,1,-2,1,-14,1,37,1,21,1,16,1,11,1,15,1
252,26,1,12,1,-14,1,-19,1,20,1,-1,1,-13,1,35,1,19,1,14,1,9,1,13,1
253,24,1,11,1,-13,1,-17,1,19,1,-1,1,-13,1,32,1,18,1,13,1,8,1,12,1
254,21,1,10,1,-11,1,-15,1,16,1,0,1,-12,1,29,1,18,1,12,1,7,1,11,1
255,18,1,9,1,-9,1,-13,1,14,1,0,1,-12,1,27,1,16,1,11,1,6,1,10,1
256,16,1,8,1,-8,1,-12,1,12,1,0,1,-11,1,24,1,15,1,9,1,4,1,9,1
257,14,1,7,1,-7,1,-10,1,11,1,0,1,-10,1,21,1,13,1,8,1,3,1,8,1
258,12,1,5,1,-7,1,-8,1,10,1,-1,1,-8,1,18,1,11,1,6,1,1,1,7,1
259,10,1,5,1,-5,1,-7,1,8,1,0,1,-8,1,16,1,9,1,4,1,0,1,6,1
260,9,1,5,1,-4,1,-7,1,7,1,1,1,-7,1,14,1,7,1,2,1,-1,1,4,1
261,7,1,5,1,-2,1,-6,1,5,1,2,1,-7,1,13,1,6,1,0,1,-2,1,3,1
262,6,1,5,1,-1,1,-5,1,4,1,2,1,-7,1,11,1,5,1,-1,1,-3,1,2,1
263,5,1,5,1,0,1,-5,1,3,1,3,1,-8,1,9,1,4,1,-2,1,-4,1,0,1
264,3,1,4,1,1,1,-3,1,1,1,3,1,-7,1,7,1,4,1,-3,1,-5,1,0,1
265,2,1,2,1,0,1,-2,1,1,1,1,1,-7,1,5,1,3,1,-3,1,-6,1,0,1
266,1,1,1,1,0,1,-1,1,1,1,1,1,-6,1,3,1,3,1,-4,1,-7,1,-1,1
267,0,1,0,1,0,1,0,1,0,1,0,1,-6,1,1,1,1,1,-5,1,-7,1,-1,1
268,0,1,-1,1,-1,1,0,1,0,1,-1,1,-5,1,0,1,0,1,-5,1,-8,1,-1,1
269,-1,1,-1,1,0,1,1,1,-1,1,-1,1,-5,1,0,1,0,1,-6,1,-8,1,-1,1
270,-2,1,-1,1,1,1,1,1,-2,1,0,1,-5,1,-1,1,-1,1,-7,1,-9,1,-2,1
271,-2,1,-1,1,1,1,1,1,-2,1,0,1,-5,1,-2,1,-2,1,-8,1,-10,1,-2,1
272,-3,1,-2,1,1,1,2,1,-2,1,-1,1,-4,1,-3,1,-3,1,-8,1,-10,1,-3,1
273,-3,1,-2,1,1,1,2,1,-2,1,-1,1,-5,1,-5,1,-3,1,-9,1,-11,1,-3,1
274,-4,1,-3,1,1,1,3,1,-3,1,-1,1,-5,1,-6,1,-4,1,-10,1,-11,1,-4,1
275,-5,1,-3,1,2,1,4,1,-4,1,-1,1,-5,1,-7,1,-5,1,-11,1,-11,1,-4,1
276,-6,1,-4,1,2,1,5,1,-4,1,-1,1,-5,1,-8,1,-5,1,-11,1,-12,1,-5,1
277,-7,1,-4,1,3,1,5,1,-5,1,-1,1,-6,1,-9,1,-6,1,-12,1,-13,1,-6,1
278,-7,1,-5,1,2,1,6,1,-5,1,-2,1,-5,1,-9,1,-6,1,-12,1,-13,1,-6,1
279,-7,1,-5,1,2,1,6,1,-5,1,-2,1,-5,1,-11,1,-7,1,-13,1,-13,1,-6,1
280,-7,1,-5,1,2,1,6,1,-5,1,-2,1,-5,1,-11,1,-8,1,-13,1,-14,1,-7,1
281,-6,1,-5,1,1,1,5,1,-4,1,-2,1,-4,1,-11,1,-8,1,-13,1,-14,1,-7,1
282,-6,1,-5,1,1,1,5,1,-4,1,-2,1,-4,1,-11,1,-9,1,-13,1,-14,1,-6,1
283,-7,1,-4,1,3,1,5,1,-5,1,-1,1,-5,1,-11,1,-10,1,-14,1,-15,1,-6,1
284,-7,1,-5,1,2,1,6,1,-5,1,-2,1,-5,1,-12,1,-10,1,-15,1,-14,1,-6,1
285,-8,1,-5,1,3,1,6,1,-6,1,-1,1,-5,1,-11,1,-10,1,-15,1,-14,1,-6,1
286,-8,1,-5,1,3,1,6,1,-6,1,-1,1,-5,1,-12,1,-10,1,-16,1,-14,1,-6,1
287,-7,1,-5,1,2,1,6,1,-5,1,-2,1,-6,1,-12,1,-11,1,-16,1,-14,1,-6,1
288,-7,1,-5,1,2,1,6,1,-5,1,-2,1,-6,1,-13,1,-11,1,-16,1,-14,1,-7,1
289,-7,1,-4,1,3,1,5,1,-5,1,-1,1,-6,1,-13,1,-12,1,-16,1,-14,1,-7,1
290,-7,1,-4,1,3,1,5,1,-5,1,-1,1,-6,1,-13,1,-12,1,-16,1,-14,1,-8,1
291,-8,1,-4,1,4,1,6,1,-6,1,0,1,-6,1,-13,1,-12,1,-17,1,-15,1,-8,1
292,-8,1,-4,1,4,1,6,1,-6,1,0,1,-6,1,-13,1,-11,1,-17,1,-15,1,-8,1
293,-8,1,-4,1,4,1,6,1,-6,1,0,1,-6,1,-14,1,-11,1,-17,1,-15,1,-9,1
294,-8,1,-5,1,3,1,6,1,-6,1,-1,1,-6,1,-15,1,-11,1,-17,1,-15,1,-9,1
295,-8,1,-5,1,3,1,6,1,-6,1,-1,1,-6,1,-15,1,-11,1,-17,1,-16,1,-9,1
296,-9,1,-6,1,3,1,7,1,-6,1,-2,1,-6,1,-14,1,-11,1,-17,1,-15,1,-8,1
297,-9,1,-6,1,3,1,7,1,-6,1,-2,1,-6,1,-14,1,-11,1,-16,1,-15,1,-8,1
298,-9,1,-6,1,3,1,7,1,-6,1,-2,1,-5,1,-14,1,-11,1,-16,1,-15,1,-7,1
299,-9,1,-6,1,3,1,7,1,-6,1,-2,1,-5,1,-14,1,-11,1,-15,1,-15,1,-7,1
300,-9,1,-6,1,3,1,7,1,-6,1,-2,1,-5,1,-14,1,-11,1,-16,1,-15,1,-7,1
301,-8,1,-5,1,3,1,6,1,-6,1,-1,1,-5,1,-13,1,-11,1,-16,1,-15,1,-8,1
302,-8,1,-5,1,3,1,6,1,-6,1,-1,1,-4,1,-12,1,-11,1,-16,1,-15,1,-8,1
303,-8,1,-5,1,3,1,6,1,-6,1,-1,1,-5,1,-12,1,-11,1,-16,1,-15,1,-8,1
304,-8,1,-5,1,3,1,6,1,-6,1,-1,1,-4,1,-12,1,-10,1,-16,1,-15,1,-9,1
305,-8,1,-6,1,2,1,7,1,-5,1,-2,1,-4,1,-11,1,-10,1,-16,1,-14,1,-9,1
306,-9,1,-6,1,3,1,7,1,-6,1,-2,1,-5,1,-11,1,-9,1,-16,1,-14,1,-9,1
307,-9,1,-5,1,4,1,7,1,-7,1,-1,1,-5,1,-11,1,-9,1,-16,1,-14,1,-8,1
308,-9,1,-5,1,4,1,7,1,-7,1,-1,1,-4,1,-11,1,-9,1,-15,1,-14,1,-8,1
309,-8,1,-4,1,4,1,6,1,-6,1,0,1,-4,1,-11,1,-9,1,-15,1,-14,1,-9,1
310,-8,1,-4,1,4,1,6,1,-6,1,0,1,-4,1,-11,1,-10,1,-15,1,-14,1,-9,1
311,-7,1,-3,1,4,1,5,1,-6,1,0,1,-4,1,-10,1,-8,1,-15,1,-15,1,-9,1
312,-7,1,-3,1,4,1,5,1,-6,1,0,1,-3,1,-10,1,-8,1,-15,1,-14,1,-8,1
313,-7,1,-4,1,3,1,5,1,-5,1,-1,1,-4,1,-10,1,-8,1,-15,1,-14,1,-8,1
314,-6,1,-4,1,2,1,5,1,-4,1,-1,1,-3,1,-9,1,-8,1,-15,1,-14,1,-7,1
315,-6,1,-4,1,2,1,5,1,-4,1,-1,1,-3,1,-8,1,-7,1,-15,1,-13,1,-7,1
316,-6,1,-4,1,2,1,5,1,-4,1,-1,1,-3,1,-8,1,-7,1,-15,1,-13,1,-7,1
317,-7,1,-4,1,3,1,5,1,-5,1,-1,1,-3,1,-7,1,-7,1,-15,1,-13,1,-7,1
318,-7,1,-4,1,3,1,5,1,-5,1,-1,1,-3,1,-7,1,-6,1,-14,1,-13,1,-7,1
319,-7,1,-3,1,4,1,5,1,-6,1,0,1,-4,1,-7,1,-6,1,-14,1,-13,1,-7,1
320,-7,1,-3,1,4,1,5,1,-6,1,0,1,-4,1,-7,1,-6,1,-14,1,-13,1,-7,1
321,-7,1,-3,1,4,1,5,1,-6,1,0,1,-4,1,-7,1,-6,1,-14,1,-13,1,-7,1
322,-6,1,-2,1,4,1,4,1,-5,1,1,1,-4,1,-7,1,-6,1,-14,1,-13,1,-7,1
323,-6,1,-2,1,4,1,4,1,-5,1,1,1,-4,1,-7,1,-7,1,-15,1,-14,1,-7,1
324,-6,1,-3,1,3,1,4,1,-5,1,0,1,-4,1,-7,1,-7,1,-14,1,-13,1,-7,1
325,-6,1,-3,1,3,1,4,1,-5,1,0,1,-4,1,-6,1,-6,1,-14,1,-13,1,-8,1
326,-6,1,-4,1,2,1,5,1,-4,1,-1,1,-4,1,-5,1,-6,1,-15,1,-13,1,-8,1
327,-6,1,-4,1,2,1,5,1,-4,1,-1,1,-4,1,-5,1,-6,1,-15,1,-13,1,-8,1
328,-6,1,-5,1,1,1,5,1,-4,1,-2,1,-4,1,-4,1,-5,1,-14,1,-13,1,-8,1
329,-5,1,-4,1,1,1,4,1,-3,1,-2,1,-4,1,-4,1,-6,1,-14,1,-13,1,-8,1
330,-4,1,-3,1,1,1,3,1,-3,1,-1,1,-4,1,-4,1,-6,1,-13,1,-13,1,-8,1
331,-4,1,-3,1,1,1,3,1,-3,1,-1,1,-4,1,-4,1,-5,1,-13,1,-14,1,-8,1
332,-4,1,-4,1,0,1,4,1,-2,1,-2,1,-4,1,-3,1,-5,1,-13,1,-14,1,-7,1
333,-4,1,-4,1,0,1,4,1,-2,1,-2,1,-5,1,-4,1,-5,1,-14,1,-14,1,-7,1
334,-4,1,-4,1,0,1,4,1,-2,1,-2,1,-5,1,-4,1,-5,1,-13,1,-13,1,-7,1
335,-4,1,-5,1,-1,1,4,1,-2,1,-3,1,-5,1,-4,1,-5,1,-13,1,-13,1,-6,1
336,-5,1,-5,1,0,1,5,1,-3,1,-3,1,-5,1,-4,1,-5,1,-13,1,-13,1,-6,1
337,-5,1,-5,1,0,1,5,1,-3,1,-3,1,-5,1,-4,1,-6,1,-13,1,-12,1,-7,1
338,-5,1,-5,1,0,1,5,1,-3,1,-3,1,-5,1,-5,1,-6,1,-13,1,-12,1,-7,1
339,-5,1,-4,1,1,1,4,1,-3,1,-2,1,-4,1,-5,1,-6,1,-13,1,-12,1,-7,1
340,-5,1,-4,1,1,1,4,1,-3,1,-2,1,-4,1,-5,1,-6,1,-13,1,-13,1,-8,1
341,-5,1,-4,1,1,1,4,1,-3,1,-2,1,-4,1,-5,1,-6,1,-13,1,-13,1,-9,1
342,-5,1,-4,1,1,1,4,1,-3,1,-2,1,-5,1,-5,1,-6,1,-13,1,-14,1,-8,1
343,-5,1,-3,1,2,1,4,1,-4,1,-1,1,-5,1,-5,1,-6,1,-14,1,-14,1,-8,1
344,-5,1,-3,1,2,1,4,1,-4,1,-1,1,-5,1,-5,1,-5,1,-14,1,-13,1,-8,1
345,-6,1,-3,1,3,1,4,1,-5,1,0,1,-5,1,-5,1,-5,1,-14,1,-13,1,-7,1
346,-6,1,-3,1,3,1,4,1,-5,1,0,1,-5,1,-5,1,-6,1,-14,1,-13,1,-7,1
347,-6,1,-2,1,4,1,4,1,-5,1,1,1,-5,1,-6,1,-6,1,-14,1,-13,1,-7,1
348,-6,1,-2,1,4,1,4,1,-5,1,1,1,-4,1,-7,1,-7,1,-14,1,-13,1,-7,1
349,-6,1,-2,1,4,1,4,1,-5,1,1,1,-4,1,-7,1,-7,1,-14,1,-13,1,-7,1
350,-6,1,-1,1,5,1,3,1,-6,1,2,1,-4,1,-8,1,-8,1,-14,1,-13,1,-7,1
351,-5,1,-1,1,4,1,3,1,-5,1,1,1,-4,1,-7,1,-8,1,-14,1,-14,1,-7,1
352,-5,1,-1,1,4,1,3,1,-5,1,1,1,-5,1,-7,1,-7,1,-14,1,-14,1,-7,1
353,-5,1,-1,1,4,1,3,1,-5,1,1,1,-5,1,-8,1,-7,1,-14,1,-15,1,-7,1
354,-5,1,-2,1,3,1,3,1,-4,1,0,1,-5,1,-8,1,-6,1,-14,1,-15,1,-7,1
355,-5,1,-2,1,3,1,3,1,-4,1,0,1,-5,1,-8,1,-6,1,-14,1,-15,1,-7,1
356,-6,1,-2,1,4,1,4,1,-5,1,1,1,-5,1,-9,1,-7,1,-15,1,-15,1,-7,1
357,-6,1,-3,1,3,1,4,1,-5,1,0,1,-5,1,-10,1,-7,1,-15,1,-15,1,-7,1
358,-7,1,-3,1,4,1,5,1,-6,1,0,1,-4,1,-10,1,-8,1,-15,1,-15,1,-7,1
359,-7,1,-3,1,4,1,5,1,-6,1,0,1,-4,1,-10,1,-8,1,-15,1,-15,1,-7,1
360,-7,1,-3,1,4,1,5,1,-6,1,0,1,-4,1,-11,1,-9,1,-15,1,-16,1,-8,1
361,-7,1,-3,1,4,1,5,1,-6,1,0,1,-4,1,-10,1,-9,1,-15,1,-16,1,-8,1
362,-7,1,-3,1,4,1,5,1,-6,1,0,1,-4,1,-10,1,-9,1,-15,1,-16,1,-8,1
363,-7,1,-3,1,4,1,5,1,-6,1,0,1,-5,1,-11,1,-10,1,-15,1,-17,1,-9,1
364,-7,1,-4,1,3,1,5,1,-5,1,-1,1,-5,1,-11,1,-10,1,-15,1,-17,1,-9,1
365,-7,1,-4,1,3,1,5,1,-5,1,-1,1,-5,1,-11,1,-10,1,-15,1,-17,1,-9,1
366,-8,1,-4,1,4,1,6,1,-6,1,0,1,-5,1,-12,1,-10,1,-16,1,-16,1,-9,1
367,-8,1,-4,1,4,1,6,1,-6,1,0,1,-6,1,-12,1,-11,1,-16,1,-16,1,-9,1
368,-8,1,-4,1,4,1,6,1,-6,1,0,1,-6,1,-13,1,-11,1,-16,1,-16,1,-9,1
369,-7,1,-3,1,4,1,5,1,-6,1,0,1,-6,1,-14,1,-12,1,-16,1,-16,1,-9,1
370,-7,1,-3,1,4,1,5,1,-6,1,0,1,-7,1,-15,1,-12,1,-16,1,-17,1,-9,1
371,-8,1,-3,1,5,1,5,1,-7,1,1,1,-6,1,-15,1,-12,1,-16,1,-17,1,-9,1
372,-7,1,-2,1,5,1,4,1,-6,1,1,1,-5,1,-14,1,-12,1,-16,1,-17,1,-9,1
373,-7,1,-2,1,5,1,4,1,-6,1,1,1,-5,1,-15,1,-12,1,-16,1,-17,1,-8,1
374,-8,1,-3,1,5,1,5,1,-7,1,1,1,-5,1,-15,1,-12,1,-16,1,-17,1,-8,1
375,-9,1,-3,1,6,1,6,1,-8,1,1,1,-5,1,-14,1,-12,1,-16,1,-17,1,-8,1
376,-9,1,-4,1,5,1,6,1,-7,1,0,1,-5,1,-14,1,-13,1,-17,1,-17,1,-8,1
377,-9,1,-4,1,5,1,6,1,-7,1,0,1,-5,1,-14,1,-14,1,-17,1,-17,1,-8,1
378,-9,1,-4,1,5,1,6,1,-7,1,0,1,-5,1,-14,1,-14,1,-16,1,-17,1,-7,1
379,-9,1,-5,1,4,1,7,1,-7,1,-1,1,-5,1,-15,1,-14,1,-17,1,-17,1,-8,1
380,-8,1,-4,1,4,1,6,1,-6,1,0,1,-6,1,-16,1,-14,1,-17,1,-16,1,-8,1
381,-8,1,-4,1,4,1,6,1,-6,1,0,1,-6,1,-17,1,-14,1,-18,1,-16,1,-9,1
382,-8,1,-4,1,4,1,6,1,-6,1,0,1,-6,1,-17,1,-14,1,-18,1,-16,1,-9,1
383,-7,1,-4,1,3,1,5,1,-5,1,-1,1,-7,1,-17,1,-14,1,-19,1,-17,1,-9,1
384,-7,1,-4,1,3,1,5,1,-5,1,-1,1,-7,1,-17,1,-14,1,-18,1,-17,1,-9,1
385,-8,1,-5,1,3,1,6,1,-6,1,-1,1,-7,1,-16,1,-14,1,-18,1,-17,1,-8,1
386,-9,1,-5,1,4,1,7,1,-7,1,-1,1,-7,1,-16,1,-14,1,-18,1,-16,1,-8,1
387,-9,1,-5,1,4,1,7,1,-7,1,-1,1,-5,1,-16,1,-14,1,-18,1,-16,1,-9,1
388,-8,1,-5,1,3,1,6,1,-6,1,-1,1,-4,1,-16,1,-14,1,-18,1,-16,1,-9,1
389,-8,1,-4,1,4,1,6,1,-6,1,0,1,-4,1,-16,1,-14,1,-18,1,-16,1,-9,1
390,-8,1,-4,1,4,1,6,1,-6,1,0,1,-5,1,-17,1,-15,1,-18,1,-17,1,-10,1
391,-9,1,-4,1,5,1,6,1,-7,1,0,1,-5,1,-17,1,-14,1,-17,1,-17,1,-9,1
392,-9,1,-4,1,5,1,6,1,-7,1,0,1,-6,1,-17,1,-14,1,-17,1,-17,1,-9,1
393,-10,1,-5,1,5,1,7,1,-8,1,0,1,-7,1,-18,1,-14,1,-18,1,-17,1,-9,1
394,-10,1,-5,1,5,1,7,1,-8,1,0,1,-7,1,-18,1,-14,1,-18,1,-17,1,-8,1
395,-10,1,-6,1,4,1,8,1,-7,1,-1,1,-7,1,-18,1,-14,1,-19,1,-17,1,-8,1
396,-10,1,-6,1,4,1,8,1,-7,1,-1,1,-7,1,-18,1,-14,1,-19,1,-17,1,-8,1
397,-9,1,-6,1,3,1,7,1,-6,1,-2,1,-6,1,-19,1,-14,1,-20,1,-17,1,-8,1
398,-9,1,-6,1,3,1,7,1,-6,1,-2,1,-6,1,-19,1,-14,1,-19,1,-16,1,-8,1
399,-9,1,-6,1,3,1,7,1,-6,1,-2,1,-6,1,-19,1,-14,1,-19,1,-17,1,-8,1
400,-9,1,-6,1,3,1,7,1,-6,1,-2,1,-6,1,-20,1,-15,1,-19,1,-18,1,-8,1
401,-9,1,-6,1,3,1,7,1,-6,1,-2,1,-6,1,-19,1,-15,1,-19,1,-18,1,-8,1
402,-9,1,-6,1,3,1,7,1,-6,1,-2,1,-6,1,-19,1,-15,1,-19,1,-18,1,-8,1
403,-9,1,-5,1,4,1,7,1,-7,1,-1,1,-6,1,-19,1,-16,1,-19,1,-19,1,-8,1
404,-9,1,-5,1,4,1,7,1,-7,1,-1,1,-6,1,-19,1,-15,1,-19,1,-19,1,-8,1
405,-9,1,-6,1,3,1,7,1,-6,1,-2,1,-6,1,-19,1,-15,1,-19,1,-18,1,-7,1
406,-10,1,-6,1,4,1,8,1,-7,1,-1,1,-7,1,-19,1,-15,1,-18,1,-18,1,-7,1
407,-9,1,-5,1,4,1,7,1,-7,1,-1,1,-7,1,-20,1,-14,1,-18,1,-18,1,-7,1
408,-9,1,-5,1,4,1,7,1,-7,1,-1,1,-7,1,-20,1,-14,1,-18,1,-19,1,-7,1
409,-8,1,-5,1,3,1,6,1,-6,1,-1,1,-8,1,-20,1,-13,1,-17,1,-19,1,-8,1
410,-8,1,-5,1,3,1,6,1,-6,1,-1,1,-8,1,-20,1,-13,1,-17,1,-19,1,-8,1
411,-8,1,-4,1,4,1,6,1,-6,1,0,1,-7,1,-19,1,-13,1,-17,1,-19,1,-8,1
412,-9,1,-5,1,4,1,7,1,-7,1,-1,1,-7,1,-19,1,-13,1,-18,1,-19,1,-7,1
413,-9,1,-5,1,4,1,7,1,-7,1,-1,1,-7,1,-19,1,-14,1,-18,1,-19,1,-7,1
414,-9,1,-5,1,4,1,7,1,-7,1,-1,1,-7,1,-19,1,-14,1,-18,1,-18,1,-6,1
415,-9,1,-5,1,4,1,7,1,-7,1,-1,1,-8,1,-19,1,-13,1,-18,1,-18,1,-6,1
416,-9,1,-5,1,4,1,7,1,-7,1,-1,1,-8,1,-19,1,-13,1,-18,1,-18,1,-6,1
417,-9,1,-5,1,4,1,7,1,-7,1,-1,1,-8,1,-20,1,-13,1,-18,1,-18,1,-6,1
418,-9,1,-4,1,5,1,6,1,-7,1,0,1,-8,1,-19,1,-13,1,-17,1,-18,1,-7,1
419,-9,1,-4,1,5,1,6,1,-7,1,0,1,-8,1,-20,1,-13,1,-17,1,-18,1,-7,1
420,-9,1,-4,1,5,1,6,1,-7,1,0,1,-7,1,-21,1,-13,1,-17,1,-19,1,-8,1
421,-9,1,-4,1,5,1,6,1,-7,1,0,1,-7,1,-20,1,-13,1,-17,1,-19,1,-8,1
422,-9,1,-4,1,5,1,6,1,-7,1,0,1,-7,1,-20,1,-13,1,-17,1,-19,1,-7,1
423,-9,1,-4,1,5,1,6,1,-7,1,0,1,-6,1,-20,1,-13,1,-17,1,-19,1,-7,1
424,-9,1,-4,1,5,1,6,1,-7,1,0,1,-7,1,-19,1,-14,1,-18,1,-19,1,-7,1
425,-9,1,-5,1,4,1,7,1,-7,1,-1,1,-7,1,-19,1,-14,1,-18,1,-18,1,-7,1
426,-9,1,-5,1,4,1,7,1,-7,1,-1,1,-8,1,-18,1,-14,1,-18,1,-18,1,-7,1
427,-8,1,-5,1,3,1,6,1,-6,1,-1,1,-8,1,-18,1,-14,1,-18,1,-18,1,-7,1
428,-8,1,-5,1,3,1,6,1,-6,1,-1,1,-8,1,-18,1,-14,1,-18,1,-18,1,-7,1
429,-9,1,-5,1,4,1,7,1,-7,1,-1,1,-8,1,-18,1,-14,1,-18,1,-18,1,-7,1
430,-9,1,-5,1,4,1,7,1,-7,1,-1,1,-8,1,-18,1,-14,1,-18,1,-18,1,-7,1
431,-9,1,-5,1,4,1,7,1,-7,1,-1,1,-7,1,-17,1,-13,1,-17,1,-18,1,-7,1
432,-9,1,-6,1,3,1,7,1,-6,1,-2,1,-7,1,-17,1,-13,1,-17,1,-18,1,-7,1
433,-9,1,-6,1,3,1,7,1,-6,1,-2,1,-7,1,-18,1,-13,1,-17,1,-18,1,-7,1
434,-9,1,-6,1,3,1,7,1,-6,1,-2,1,-7,1,-18,1,-13,1,-17,1,-18,1,-7,1
435,-9,1,-6,1,3,1,7,1,-6,1,-2,1,-7,1,-19,1,-14,1,-17,1,-18,1,-6,1
436,-10,1,-6,1,4,1,8,1,-7,1,-1,1,-7,1,-19,1,-14,1,-18,1,-18,1,-6,1
437,-10,1,-6,1,4,1,8,1,-7,1,-1,1,-7,1,-20,1,-14,1,-17,1,-18,1,-6,1
438,-10,1,-5,1,5,1,7,1,-8,1,0,1,-6,1,-20,1,-14,1,-17,1,-18,1,-6,1
439,-11,1,-5,1,6,1,8,1,-9,1,0,1,-6,1,-20,1,-14,1,-17,1,-18,1,-6,1
440,-10,1,-4,1,6,1,7,1,-8,1,1,1,-6,1,-20,1,-14,1,-17,1,-18,1,-6,1
441,-10,1,-4,1,6,1,7,1,-8,1,1,1,-6,1,-20,1,-14,1,-17,1,-18,1,-6,1
442,-9,1,-4,1,5,1,6,1,-7,1,0,1,-6,1,-19,1,-14,1,-17,1,-18,1,-5,1
443,-9,1,-5,1,4,1,7,1,-7,1,-1,1,-6,1,-20,1,-14,1,-18,1,-18,1,-5,1
444,-9,1,-5,1,4,1,7,1,-7,1,-1,1,-6,1,-19,1,-13,1,-18,1,-18,1,-5,1
445,-9,1,-5,1,4,1,7,1,-7,1,-1,1,-6,1,-19,1,-13,1,-17,1,-17,1,-4,1
446,-9,1,-6,1,3,1,7,1,-6,1,-2,1,-6,1,-19,1,-13,1,-17,1,-17,1,-4,1
447,-9,1,-6,1,3,1,7,1,-6,1,-2,1,-6,1,-20,1,-13,1,-16,1,-16,1,-4,1
448,-8,1,-6,1,2,1,7,1,-5,1,-2,1,-5,1,-19,1,-12,1,-15,1,-16,1,-4,1
449,-8,1,-5,1,3,1,6,1,-6,1,-1,1,-5,1,-19,1,-12,1,-15,1,-16,1,-5,1
450,-6,1,-4,1,2,1,5,1,-4,1,-1,1,-5,1,-18,1,-11,1,-15,1,-16,1,-6,1
451,-6,1,-3,1,3,1,4,1,-5,1,0,1,-4,1,-18,1,-11,1,-15,1,-15,1,-6,1
452,-5,1,-2,1,3,1,3,1,-4,1,0,1,-4,1,-18,1,-10,1,-14,1,-15,1,-6,1
453,-5,1,-1,1,4,1,3,1,-5,1,1,1,-3,1,-18,1,-10,1,-14,1,-15,1,-5,1
454,-5,1,-1,1,4,1,3,1,-5,1,1,1,-3,1,-17,1,-10,1,-14,1,-15,1,-5,1
455,-6,1,-1,1,5,1,3,1,-6,1,2,1,-3,1,-17,1,-10,1,-14,1,-14,1,-4,1
456,-6,1,-1,1,5,1,3,1,-6,1,2,1,-2,1,-16,1,-10,1,-14,1,-14,1,-4,1
457,-6,1,-1,1,5,1,3,1,-6,1,2,1,-2,1,-16,1,-10,1,-15,1,-14,1,-4,1
458,-5,1,-1,1,4,1,3,1,-5,1,1,1,-1,1,-15,1,-9,1,-14,1,-13,1,-3,1
459,-5,1,0,1,5,1,2,1,-5,1,2,1,-1,1,-15,1,-9,1,-14,1,-13,1,-3,1
460,-4,1,0,1,4,1,2,1,-4,1,2,1,-1,1,-14,1,-8,1,-13,1,-13,1,-3,1
461,-3,1,1,1,4,1,1,1,-3,1,2,1,-1,1,-14,1,-7,1,-12,1,-13,1,-3,1
462,-3,1,2,1,5,1,0,1,-4,1,3,1,0,1,-13,1,-7,1,-11,1,-13,1,-3,1
463,-2,1,2,1,4,1,0,1,-3,1,3,1,-1,1,-13,1,-7,1,-11,1,-13,1,-3,1
464,-2,1,2,1,4,1,0,1,-3,1,3,1,0,1,-13,1,-6,1,-10,1,-12,1,-2,1
465,-2,1,2,1,4,1,0,1,-3,1,3,1,0,1,-12,1,-6,1,-10,1,-11,1,0,1
466,-2,1,3,1,5,1,0,1,-3,1,4,1,0,1,-12,1,-5,1,-10,1,-10,1,0,1
467,-1,1,4,1,5,1,-1,1,-3,1,4,1,0,1,-11,1,-5,1,-9,1,-9,1,1,1
468,0,1,3,1,3,1,-1,1,-1,1,3,1,-1,1,-10,1,-4,1,-9,1,-9,1,2,1
469,1,1,4,1,3,1,-2,1,-1,1,4,1,-2,1,-9,1,-4,1,-8,1,-8,1,3,1
470,2,1,5,1,3,1,-3,1,0,1,4,1,-2,1,-7,1,-3,1,-7,1,-7,1,3,1
471,4,1,6,1,2,1,-5,1,1,1,4,1,-3,1,-6,1,-1,1,-6,1,-7,1,4,1
472,5,1,7,1,2,1,-6,1,2,1,5,1,-4,1,-5,1,-1,1,-5,1,-7,1,4,1
473,5,1,7,1,2,1,-6,1,2,1,5,1,-4,1,-5,1,0,1,-4,1,-7,1,4,1
474,6,1,7,1,1,1,-6,1,3,1,4,1,-5,1,-5,1,0,1,-4,1,-6,1,4,1
475,6,1,8,1,2,1,-7,1,2,1,5,1,-5,1,-5,1,2,1,-3,1,-5,1,5,1
476,6,1,8,1,2,1,-7,1,2,1,5,1,-6,1,-5,1,2,1,-3,1,-5,1,5,1
477,6,1,8,1,2,1,-7,1,2,1,5,1,-8,1,-6,1,1,1,-4,1,-6,1,4,1
478,6,1,7,1,1,1,-6,1,3,1,4,1,-9,1,-8,1,0,1,-5,1,-6,1,4,1
479,5,1,6,1,1,1,-5,1,2,1,4,1,-10,1,-9,1,-1,1,-6,1,-7,1,3,1
480,5,1,5,1,0,1,-5,1,3,1,3,1,-11,1,-10,1,-3,1,-7,1,-8,1,3,1
481,4,1,3,1,-1,1,-3,1,3,1,1,1,-12,1,-11,1,-4,1,-8,1,-9,1,3,1
482,4,1,2,1,-2,1,-3,1,3,1,0,1,-12,1,-13,1,-5,1,-8,1,-10,1,2,1
483,4,1,1,1,-3,1,-2,1,4,1,-1,1,-11,1,-14,1,-6,1,-10,1,-11,1,1,1
484,4,1,0,1,-4,1,-2,1,4,1,-2,1,-12,1,-15,1,-7,1,-10,1,-11,1,0,1
485,3,1,-1,1,-4,1,-1,1,3,1,-2,1,-12,1,-16,1,-8,1,-11,1,-12,1,0,1
486,3,1,-1,1,-4,1,-1,1,3,1,-2,1,-13,1,-17,1,-9,1,-11,1,-12,1,-1,1
487,2,1,-2,1,-4,1,0,1,3,1,-3,1,-13,1,-19,1,-10,1,-12,1,-12,1,-1,1
488,2,1,-2,1,-4,1,0,1,3,1,-3,1,-13,1,-20,1,-11,1,-13,1,-13,1,-2,1
489,1,1,-2,1,-3,1,0,1,2,1,-2,1,-13,1,-21,1,-11,1,-13,1,-13,1,-2,1
490,1,1,-3,1,-4,1,1,1,2,1,-3,1,-13,1,-22,1,-12,1,-14,1,-14,1,-2,1
491,0,1,-3,1,-3,1,1,1,1,1,-3,1,-13,1,-23,1,-12,1,-15,1,-14,1,-2,1
492,-1,1,-4,1,-3,1,2,1,1,1,-4,1,-13,1,-24,1,-13,1,-15,1,-14,1,-3,1
493,-2,1,-4,1,-2,1,3,1,0,1,-3,1,-12,1,-24,1,-14,1,-16,1,-14,1,-3,1
494,-4,1,-5,1,-1,1,4,1,-2,1,-3,1,-12,1,-24,1,-15,1,-17,1,-15,1,-4,1
495,-5,1,-5,1,0,1,5,1,-3,1,-3,1,-12,1,-23,1,-16,1,-17,1,-16,1,-4,1
496,-6,1,-6,1,0,1,6,1,-3,1,-3,1,-11,1,-24,1,-16,1,-17,1,-17,1,-5,1
497,-8,1,-7,1,1,1,7,1,-5,1,-3,1,-11,1,-24,1,-17,1,-17,1,-18,1,-5,1
498,-9,1,-8,1,1,1,8,1,-5,1,-4,1,-9,1,-23,1,-17,1,-17,1,-18,1,-5,1
499,-9,1,-8,1,1,1,8,1,-5,1,-4,1,-9,1,-23,1,-17,1,-18,1,-18,1,-6,1
500,-9,1,-8,1,1,1,8,1,-5,1,-4,1,-9,1,-23,1,-17,1,-18,1,-18,1,-6,1
501,-10,1,-8,1,2,1,9,1,-6,1,-3,1,-9,1,-23,1,-17,1,-18,1,-18,1,-6,1
502,-10,1,-9,1,1,1,9,1,-6,1,-4,1,-9,1,-24,1,-17,1,-19,1,-18,1,-6,1
503,-10,1,-9,1,1,1,9,1,-6,1,-4,1,-10,1,-25,1,-18,1,-19,1,-18,1,-6,1
504,-11,1,-9,1,2,1,10,1,-7,1,-4,1,-11,1,-25,1,-18,1,-19,1,-19,1,-7,1
505,-12,1,-10,1,2,1,11,1,-7,1,-4,1,-11,1,-25,1,-18,1,-19,1,-19,1,-7,1
506,-12,1,-10,1,2,1,11,1,-7,1,-4,1,-11,1,-26,1,-19,1,-19,1,-18,1,-7,1
507,-13,1,-10,1,3,1,11,1,-8,1,-4,1,-11,1,-26,1,-19,1,-19,1,-19,1,-7,1
508,-13,1,-10,1,3,1,11,1,-8,1,-4,1,-10,1,-26,1,-19,1,-19,1,-18,1,-7,1
509,-13,1,-9,1,4,1,11,1,-9,1,-3,1,-9,1,-26,1,-18,1,-19,1,-19,1,-7,1
510,-13,1,-9,1,4,1,11,1,-9,1,-3,1,-9,1,-26,1,-18,1,-19,1,-19,1,-7,1
511,-12,1,-9,1,3,1,10,1,-8,1,-3,1,-9,1,-27,1,-18,1,-19,1,-19,1,-7,1
512,-12,1,-8,1,4,1,10,1,-8,1,-2,1,-9,1,-27,1,-18,1,-19,1,-18,1,-6,1
513,-12,1,-8,1,4,1,10,1,-8,1,-2,1,-10,1,-27,1,-18,1,-19,1,-18,1,-6,1
514,-11,1,-8,1,3,1,9,1,-7,1,-3,1,-10,1,-27,1,-18,1,-19,1,-18,1,-7,1
515,-11,1,-9,1,2,1,10,1,-7,1,-4,1,-10,1,-27,1,-17,1,-19,1,-18,1,-7,1
516,-12,1,-9,1,3,1,10,1,-8,1,-3,1,-10,1,-26,1,-17,1,-19,1,-18,1,-7,1
517,-12,1,-9,1,3,1,10,1,-8,1,-3,1,-10,1,-26,1,-17,1,-19,1,-18,1,-7,1
518,-12,1,-9,1,3,1,10,1,-8,1,-3,1,-10,1,-26,1,-17,1,-19,1,-17,1,-6,1
519,-12,1,-8,1,4,1,10,1,-8,1,-2,1,-10,1,-26,1,-16,1,-18,1,-17,1,-6,1
520,-12,1,-8,1,4,1,10,1,-8,1,-2,1,-11,1,-26,1,-17,1,-18,1,-18,1,-6,1
521,-12,1,-8,1,4,1,10,1,-8,1,-2,1,-10,1,-25,1,-17,1,-18,1,-18,1,-6,1
522,-12,1,-8,1,4,1,10,1,-8,1,-2,1,-10,1,-25,1,-16,1,-17,1,-18,1,-6,1
523,-13,1,-7,1,6,1,10,1,-10,1,-1,1,-9,1,-24,1,-15,1,-17,1,-18,1,-6,1
524,-14,1,-6,1,8,1,10,1,-11,1,1,1,-7,1,-22,1,-13,1,-15,1,-16,1,-5,1
525,-15,1,-4,1,11,1,9,1,-13,1,3,1,-5,1,-18,1,-9,1,-13,1,-14,1,-3,1
526,-15,1,-1,1,14,1,8,1,-15,1,6,1,-3,1,-11,1,-4,1,-10,1,-10,1,0,1
527,-13,1,3,1,16,1,5,1,-14,1,9,1,-1,1,-1,1,3,1,-4,1,-6,1,2,1
528,-11,1,7,1,18,1,2,1,-14,1,12,1,0,1,8,1,12,1,2,1,-1,1,6,1
529,-9,1,10,1,19,1,0,1,-14,1,14,1,2,1,20,1,21,1,10,1,4,1,11,1
530,-4,1,13,1,17,1,-4,1,-10,1,15,1,2,1,34,1,33,1,20,1,10,1,15,1
531,4,1,17,1,13,1,-10,1,-4,1,15,1,2,1,52,1,47,1,33,1,19,1,22,1
532,17,1,22,1,5,1,-19,1,6,1,14,1,0,1,76,1,66,1,52,1,34,1,32,1
533,33,1,30,1,-3,1,-31,1,18,1,14,1,-2,1,101,1,89,1,76,1,54,1,47,1
534,52,1,40,1,-12,1,-46,1,32,1,14,1,-6,1,121,1,113,1,104,1,78,1,67,1
535,70,1,51,1,-19,1,-60,1,45,1,16,1,-12,1,132,1,136,1,131,1,103,1,88,1
536,88,1,61,1,-27,1,-74,1,58,1,17,1,-20,1,134,1,153,1,156,1,128,1,109,1
537,103,1,70,1,-33,1,-86,1,68,1,19,1,-26,1,133,1,167,1,178,1,149,1,127,1
538,117,1,77,1,-40,1,-97,1,79,1,19,1,-32,1,128,1,180,1,200,1,169,1,144,1
539,131,1,83,1,-48,1,-107,1,90,1,18,1,-39,1,117,1,190,1,218,1,186,1,158,1
540,146,1,88,1,-58,1,-117,1,102,1,15,1,-48,1,100,1,194,1,234,1,200,1,170,1
541,161,1,84,1,-77,1,-122,1,119,1,4,1,-55,1,81,1,190,1,240,1,205,1,174,1
542,172,1,72,1,-100,1,-122,1,136,1,-14,1,-61,1,58,1,176,1,231,1,197,1,165,1
543,176,1,57,1,-119,1,-116,1,148,1,-31,1,-65,1,30,1,151,1,207,1,176,1,148,1
544,171,1,43,1,-128,1,-107,1,150,1,-42,1,-67,1,-9,1,115,1,173,1,148,1,127,1
545,154,1,29,1,-125,1,-91,1,140,1,-48,1,-65,1,-56,1,69,1,126,1,110,1,97,1
546,128,1,12,1,-116,1,-70,1,122,1,-52,1,-59,1,-104,1,17,1,69,1,62,1,61,1
547,95,1,-4,1,-99,1,-45,1,97,1,-51,1,-51,1,-150,1,-33,1,14,1,16,1,25,1
548,57,1,-17,1,-74,1,-20,1,65,1,-45,1,-44,1,-196,1,-81,1,-36,1,-24,1,-5,1
549,19,1,-26,1,-45,1,3,1,32,1,-35,1,-37,1,-236,1,-121,1,-79,1,-58,1,-29,1
550,-14,1,-30,1,-16,1,22,1,1,1,-23,1,-33,1,-267,1,-149,1,-111,1,-82,1,-47,1
551,-41,1,-31,1,10,1,36,1,-26,1,-11,1,-31,1,-283,1,-163,1,-129,1,-96,1,-56,1
552,-58,1,-30,1,28,1,44,1,-43,1,-1,1,-28,1,-289,1,-167,1,-136,1,-100,1,-60,1
553,-68,1,-29,1,39,1,48,1,-54,1,5,1,-28,1,-287,1,-167,1,-138,1,-101,1,-60,1
554,-72,1,-31,1,41,1,51,1,-57,1,5,1,-29,1,-279,1,-165,1,-136,1,-100,1,-59,1
555,-73,1,-33,1,40,1,53,1,-57,1,3,1,-30,1,-266,1,-161,1,-132,1,-97,1,-58,1
556,-71,1,-34,1,37,1,52,1,-54,1,1,1,-34,1,-247,1,-155,1,-125,1,-93,1,-55,1
557,-65,1,-33,1,32,1,49,1,-49,1,-1,1,-36,1,-223,1,-145,1,-116,1,-88,1,-52,1
558,-57,1,-32,1,25,1,44,1,-41,1,-4,1,-37,1,-195,1,-130,1,-102,1,-79,1,-46,1
559,-49,1,-30,1,19,1,39,1,-34,1,-6,1,-36,1,-166,1,-113,1,-88,1,-70,1,-40,1
560,-40,1,-26,1,14,1,33,1,-27,1,-6,1,-33,1,-137,1,-94,1,-73,1,-60,1,-34,1
561,-34,1,-23,1,11,1,28,1,-23,1,-6,1,-28,1,-111,1,-75,1,-61,1,-51,1,-29,1
562,-28,1,-19,1,9,1,23,1,-19,1,-5,1,-24,1,-90,1,-59,1,-49,1,-41,1,-23,1
563,-22,1,-14,1,8,1,18,1,-15,1,-3,1,-20,1,-71,1,-44,1,-39,1,-33,1,-17,1
564,-17,1,-10,1,7,1,13,1,-12,1,-2,1,-17,1,-56,1,-32,1,-31,1,-26,1,-12,1
565,-12,1,-6,1,6,1,9,1,-9,1,0,1,-14,1,-45,1,-24,1,-24,1,-20,1,-6,1
566,-8,1,-2,1,6,1,5,1,-7,1,2,1,-11,1,-35,1,-18,1,-18,1,-15,1,-2,1
567,-5,1,0,1,5,1,2,1,-5,1,2,1,-10,1,-27,1,-14,1,-14,1,-12,1,0,1
568,-3,1,0,1,3,1,1,1,-3,1,1,1,-9,1,-20,1,-11,1,-10,1,-10,1,2,1
569,-2,1,-1,1,1,1,1,1,-2,1,0,1,-9,1,-14,1,-8,1,-8,1,-9,1,3,1
570,-2,1,-1,1,1,1,1,1,-2,1,0,1,-8,1,-9,1,-5,1,-6,1,-8,1,3,1
571,-2,1,-2,1,0,1,2,1,-1,1,-1,1,-7,1,-5,1,-3,1,-5,1,-8,1,3,1
572,-2,1,-2,1,0,1,2,1,-1,1,-1,1,-6,1,-3,1,0,1,-4,1,-7,1,3,1
573,-1,1,-2,1,-1,1,1,1,0,1,-2,1,-5,1,-2,1,1,1,-4,1,-7,1,4,1
574,-1,1,-2,1,-1,1,1,1,0,1,-2,1,-4,1,0,1,2,1,-3,1,-6,1,4,1
575,-1,1,-2,1,-1,1,1,1,0,1,-2,1,-3,1,0,1,3,1,-3,1,-6,1,4,1
576,-2,1,-2,1,0,1,2,1,-1,1,-1,1,-3,1,2,1,2,1,-2,1,-5,1,4,1
577,-1,1,-2,1,-1,1,1,1,0,1,-2,1,-3,1,3,1,2,1,-1,1,-5,1,4,1
578,-1,1,-2,1,-1,1,1,1,0,1,-2,1,-3,1,5,1,2,1,0,1,-4,1,4,1
579,0,1,-1,1,-1,1,0,1,0,1,-1,1,-3,1,7,1,3,1,0,1,-4,1,4,1
580,0,1,-1,1,-1,1,0,1,0,1,-1,1,-3,1,8,1,4,1,0,1,-4,1,4,1
581,1,1,-1,1,-2,1,0,1,1,1,-1,1,-4,1,8,1,4,1,0,1,-4,1,4,1
582,1,1,-1,1,-2,1,0,1,1,1,-1,1,-4,1,9,1,6,1,0,1,-4,1,5,1
583,1,1,0,1,-1,1,0,1,1,1,0,1,-5,1,9,1,6,1,0,1,-4,1,6,1
584,2,1,0,1,-2,1,-1,1,2,1,-1,1,-5,1,10,1,6,1,1,1,-4,1,6,1
585,2,1,0,1,-2,1,-1,1,2,1,-1,1,-5,1,11,1,7,1,1,1,-3,1,7,1
586,3,1,1,1,-2,1,-2,1,3,1,0,1,-5,1,12,1,7,1,2,1,-3,1,8,1
587,4,1,1,1,-3,1,-2,1,4,1,-1,1,-5,1,13,1,7,1,2,1,-2,1,8,1
588,4,1,2,1,-2,1,-3,1,3,1,0,1,-6,1,13,1,7,1,2,1,-2,1,8,1
589,5,1,2,1,-3,1,-3,1,4,1,0,1,-5,1,14,1,8,1,3,1,-1,1,7,1
590,5,1,2,1,-3,1,-3,1,4,1,0,1,-5,1,15,1,8,1,3,1,-1,1,7,1
591,5,1,2,1,-3,1,-3,1,4,1,0,1,-5,1,16,1,9,1,4,1,0,1,8,1
592,6,1,2,1,-4,1,-4,1,5,1,-1,1,-6,1,17,1,11,1,5,1,0,1,8,1
593,6,1,3,1,-3,1,-4,1,5,1,0,1,-7,1,18,1,11,1,5,1,0,1,8,1
594,7,1,3,1,-4,1,-5,1,6,1,0,1,-7,1,19,1,13,1,5,1,1,1,9,1
595,7,1,2,1,-5,1,-4,1,6,1,-1,1,-7,1,20,1,14,1,6,1,1,1,9,1
596,7,1,2,1,-5,1,-4,1,6,1,-1,1,-7,1,21,1,14,1,7,1,1,1,10,1
597,8,1,2,1,-6,1,-5,1,7,1,-2,1,-7,1,22,1,14,1,8,1,2,1,10,1
598,9,1,2,1,-7,1,-5,1,8,1,-2,1,-7,1,23,1,14,1,9,1,2,1,11,1
599,10,1,2,1,-8,1,-6,1,9,1,-3,1,-7,1,23,1,14,1,9,1,2,1,11,1
600,11,1,3,1,-8,1,-7,1,10,1,-2,1,-7,1,23,1,14,1,10,1,3,1,12,1
601,11,1,4,1,-7,1,-7,1,9,1,-1,1,-7,1,23,1,15,1,10,1,4,1,12,1
602,12,1,4,1,-8,1,-8,1,10,1,-2,1,-7,1,24,1,16,1,11,1,5,1,13,1
603,12,1,5,1,-7,1,-8,1,10,1,-1,1,-8,1,25,1,16,1,11,1,5,1,13,1
604,12,1,5,1,-7,1,-8,1,10,1,-1,1,-9,1,26,1,17,1,11,1,6,1,13,1
605,12,1,5,1,-7,1,-8,1,10,1,-1,1,-9,1,27,1,18,1,12,1,6,1,14,1
606,12,1,6,1,-6,1,-9,1,9,1,0,1,-9,1,28,1,19,1,13,1,7,1,14,1
607,13,1,7,1,-6,1,-10,1,10,1,1,1,-10,1,29,1,20,1,14,1,7,1,14,1
608,13,1,7,1,-6,1,-10,1,10,1,1,1,-9,1,30,1,21,1,15,1,8,1,15,1
609,13,1,7,1,-6,1,-10,1,10,1,1,1,-9,1,31,1,22,1,16,1,9,1,16,1
610,15,1,7,1,-8,1,-11,1,12,1,0,1,-10,1,31,1,22,1,16,1,9,1,16,1
611,15,1,7,1,-8,1,-11,1,12,1,0,1,-10,1,33,1,22,1,17,1,10,1,16,1
612,16,1,7,1,-9,1,-11,1,13,1,-1,1,-10,1,35,1,23,1,17,1,11,1,17,1
613,17,1,7,1,-10,1,-12,1,14,1,-1,1,-11,1,36,1,24,1,18,1,11,1,17,1
614,18,1,7,1,-11,1,-12,1,15,1,-2,1,-10,1,38,1,25,1,19,1,12,1,18,1
615,19,1,6,1,-13,1,-12,1,16,1,-3,1,-9,1,40,1,26,1,19,1,12,1,19,1
616,19,1,6,1,-13,1,-12,1,16,1,-3,1,-9,1,41,1,27,1,19,1,13,1,20,1
617,20,1,6,1,-14,1,-13,1,17,1,-4,1,-10,1,41,1,27,1,20,1,13,1,20,1
618,20,1,6,1,-14,1,-13,1,17,1,-4,1,-10,1,42,1,28,1,20,1,14,1,20,1
619,21,1,6,1,-15,1,-13,1,18,1,-4,1,-10,1,43,1,29,1,21,1,14,1,20,1
620,22,1,7,1,-15,1,-14,1,19,1,-4,1,-10,1,43,1,29,1,22,1,14,1,21,1
621,24,1,8,1,-16,1,-16,1,20,1,-4,1,-10,1,44,1,30,1,22,1,14,1,21,1
622,24,1,8,1,-16,1,-16,1,20,1,-4,1,-10,1,46,1,31,1,23,1,16,1,22,1
623,25,1,9,1,-16,1,-17,1,21,1,-3,1,-9,1,48,1,32,1,25,1,17,1,23,1
624,26,1,10,1,-16,1,-18,1,21,1,-3,1,-9,1,51,1,33,1,26,1,19,1,24,1
625,27,1,9,1,-18,1,-18,1,23,1,-4,1,-9,1,53,1,34,1,28,1,20,1,25,1
626,28,1,10,1,-18,1,-19,1,23,1,-4,1,-10,1,55,1,35,1,29,1,21,1,26,1
627,29,1,10,1,-19,1,-19,1,24,1,-4,1,-11,1,56,1,35,1,30,1,21,1,26,1
628,31,1,11,1,-20,1,-21,1,26,1,-4,1,-12,1,57,1,37,1,31,1,22,1,26,1
629,33,1,11,1,-22,1,-22,1,28,1,-5,1,-12,1,58,1,38,1,33,1,23,1,27,1
630,35,1,13,1,-22,1,-24,1,29,1,-4,1,-13,1,58,1,39,1,34,1,23,1,27,1
631,37,1,14,1,-23,1,-25,1,30,1,-4,1,-14,1,60,1,40,1,34,1,24,1,28,1
632,38,1,14,1,-24,1,-26,1,31,1,-5,1,-14,1,61,1,42,1,35,1,25,1,29,1
633,38,1,14,1,-24,1,-26,1,31,1,-5,1,-14,1,62,1,43,1,36,1,26,1,30,1
634,39,1,15,1,-24,1,-27,1,32,1,-4,1,-15,1,64,1,43,1,36,1,27,1,31,1
635,40,1,16,1,-24,1,-28,1,32,1,-4,1,-16,1,66,1,43,1,38,1,28,1,32,1
636,41,1,16,1,-25,1,-28,1,33,1,-4,1,-16,1,68,1,44,1,39,1,29,1,32,1
637,41,1,17,1,-24,1,-29,1,33,1,-3,1,-17,1,68,1,44,1,40,1,29,1,32,1
638,42,1,17,1,-25,1,-29,1,34,1,-4,1,-17,1,68,1,45,1,41,1,29,1,32,1
639,44,1,18,1,-26,1,-31,1,35,1,-4,1,-17,1,70,1,46,1,42,1,30,1,33,1
640,46,1,18,1,-28,1,-32,1,37,1,-5,1,-18,1,70,1,46,1,43,1,31,1,33,1
641,48,1,18,1,-30,1,-33,1,39,1,-6,1,-18,1,72,1,47,1,44,1,32,1,34,1
642,49,1,19,1,-30,1,-34,1,40,1,-5,1,-19,1,74,1,48,1,45,1,33,1,35,1
643,51,1,19,1,-32,1,-35,1,42,1,-6,1,-20,1,75,1,49,1,46,1,33,1,36,1
644,52,1,20,1,-32,1,-36,1,42,1,-6,1,-21,1,76,1,49,1,46,1,33,1,37,1
645,52,1,20,1,-32,1,-36,1,42,1,-6,1,-21,1,77,1,50,1,47,1,34,1,38,1
646,53,1,20,1,-33,1,-36,1,43,1,-6,1,-21,1,78,1,51,1,47,1,34,1,38,1
647,54,1,20,1,-34,1,-37,1,44,1,-7,1,-22,1,79,1,51,1,47,1,34,1,38,1
648,55,1,21,1,-34,1,-38,1,45,1,-6,1,-21,1,80,1,52,1,47,1,35,1,38,1
649,56,1,22,1,-34,1,-39,1,45,1,-6,1,-21,1,80,1,53,1,47,1,36,1,39,1
650,58,1,23,1,-35,1,-40,1,47,1,-6,1,-22,1,81,1,53,1,48,1,37,1,39,1
651,59,1,23,1,-36,1,-41,1,48,1,-6,1,-23,1,82,1,54,1,49,1,38,1,39,1
652,59,1,23,1,-36,1,-41,1,48,1,-6,1,-23,1,82,1,54,1,50,1,38,1,39,1
653,59,1,23,1,-36,1,-41,1,48,1,-6,1,-23,1,82,1,53,1,51,1,38,1,40,1
654,60,1,23,1,-37,1,-41,1,49,1,-7,1,-24,1,82,1,53,1,51,1,38,1,40,1
655,61,1,22,1,-39,1,-41,1,50,1,-8,1,-24,1,82,1,54,1,52,1,38,1,40,1
656,62,1,22,1,-40,1,-42,1,51,1,-9,1,-24,1,82,1,55,1,52,1,38,1,40,1
657,62,1,22,1,-40,1,-42,1,51,1,-9,1,-23,1,82,1,54,1,51,1,37,1,40,1
658,61,1,22,1,-39,1,-41,1,50,1,-8,1,-22,1,81,1,54,1,50,1,37,1,39,1
659,60,1,22,1,-38,1,-41,1,49,1,-8,1,-22,1,81,1,53,1,50,1,37,1,38,1
660,60,1,22,1,-38,1,-41,1,49,1,-8,1,-22,1,79,1,52,1,48,1,37,1,38,1
661,60,1,22,1,-38,1,-41,1,49,1,-8,1,-22,1,78,1,51,1,47,1,37,1,38,1
662,59,1,21,1,-38,1,-40,1,49,1,-8,1,-22,1,77,1,50,1,47,1,37,1,38,1
663,59,1,20,1,-39,1,-39,1,49,1,-9,1,-22,1,77,1,49,1,46,1,36,1,37,1
664,59,1,19,1,-40,1,-39,1,50,1,-10,1,-22,1,76,1,48,1,46,1,36,1,37,1
665,58,1,18,1,-40,1,-38,1,49,1,-11,1,-22,1,76,1,48,1,46,1,35,1,37,1
666,57,1,18,1,-39,1,-37,1,48,1,-10,1,-21,1,75,1,47,1,45,1,34,1,37,1
667,57,1,18,1,-39,1,-37,1,48,1,-10,1,-22,1,74,1,46,1,44,1,32,1,36,1
668,56,1,17,1,-39,1,-36,1,48,1,-11,1,-21,1,73,1,45,1,43,1,31,1,36,1
669,54,1,16,1,-38,1,-35,1,46,1,-11,1,-21,1,71,1,43,1,41,1,30,1,35,1
670,52,1,16,1,-36,1,-34,1,44,1,-10,1,-20,1,69,1,42,1,40,1,28,1,33,1
671,50,1,16,1,-34,1,-33,1,42,1,-9,1,-18,1,67,1,41,1,39,1,27,1,31,1
672,48,1,15,1,-33,1,-31,1,41,1,-9,1,-17,1,65,1,41,1,38,1,26,1,30,1
673,47,1,14,1,-33,1,-30,1,40,1,-9,1,-16,1,62,1,39,1,36,1,25,1,28,1
674,46,1,13,1,-33,1,-29,1,40,1,-10,1,-15,1,60,1,37,1,35,1,23,1,27,1
675,43,1,12,1,-31,1,-27,1,37,1,-9,1,-13,1,58,1,35,1,33,1,21,1,26,1
676,41,1,11,1,-30,1,-26,1,36,1,-9,1,-12,1,55,1,32,1,31,1,20,1,25,1
677,38,1,11,1,-27,1,-24,1,33,1,-8,1,-12,1,52,1,30,1,29,1,18,1,24,1
678,36,1,11,1,-25,1,-23,1,31,1,-7,1,-11,1,50,1,28,1,27,1,17,1,23,1
679,33,1,10,1,-23,1,-21,1,28,1,-6,1,-11,1,47,1,27,1,25,1,15,1,21,1
680,31,1,10,1,-21,1,-20,1,26,1,-5,1,-10,1,44,1,25,1,23,1,14,1,20,1
681,30,1,9,1,-21,1,-19,1,26,1,-6,1,-9,1,41,1,25,1,21,1,13,1,18,1
682,28,1,9,1,-19,1,-18,1,24,1,-5,1,-8,1,39,1,24,1,19,1,11,1,17,1
683,26,1,8,1,-18,1,-17,1,22,1,-5,1,-7,1,37,1,22,1,17,1,9,1,15,1
684,23,1,7,1,-16,1,-15,1,20,1,-4,1,-6,1,34,1,21,1,16,1,8,1,14,1
685,21,1,6,1,-15,1,-13,1,18,1,-4,1,-5,1,32,1,19,1,15,1,7,1,13,1
686,20,1,6,1,-14,1,-13,1,17,1,-4,1,-5,1,30,1,17,1,14,1,5,1,13,1
687,18,1,5,1,-13,1,-11,1,16,1,-4,1,-4,1,28,1,15,1,12,1,3,1,12,1
688,16,1,4,1,-12,1,-10,1,14,1,-4,1,-2,1,26,1,14,1,10,1,2,1,12,1
689,13,1,4,1,-9,1,-8,1,11,1,-2,1,-2,1,24,1,12,1,9,1,1,1,11,1
690,10,1,4,1,-6,1,-7,1,8,1,-1,1,-2,1,21,1,11,1,7,1,0,1,10,1
691,9,1,3,1,-6,1,-6,1,8,1,-1,1,-1,1,19,1,10,1,6,1,0,1,9,1
692,6,1,2,1,-4,1,-4,1,5,1,-1,1,0,1,18,1,10,1,5,1,0,1,8,1
693,4,1,1,1,-3,1,-2,1,4,1,-1,1,0,1,15,1,8,1,4,1,-1,1,7,1
694,2,1,0,1,-2,1,-1,1,2,1,-1,1,0,1,13,1,7,1,2,1,-2,1,6,1
695,1,1,-1,1,-2,1,0,1,1,1,-1,1,1,1,10,1,5,1,0,1,-3,1,6,1
696,1,1,-1,1,-2,1,0,1,1,1,-1,1,1,1,8,1,4,1,0,1,-5,1,5,1
697,0,1,-1,1,-1,1,0,1,0,1,-1,1,1,1,7,1,3,1,-2,1,-6,1,5,1
698,-1,1,-2,1,-1,1,1,1,0,1,-2,1,1,1,5,1,2,1,-2,1,-6,1,5,1
699,-2,1,-3,1,-1,1,2,1,-1,1,-2,1,1,1,3,1,1,1,-4,1,-6,1,4,1
700,-2,1,-3,1,-1,1,2,1,-1,1,-2,1,1,1,2,1,0,1,-5,1,-7,1,3,1
701,-3,1,-3,1,0,1,3,1,-2,1,-2,1,2,1,2,1,0,1,-5,1,-8,1,3,1
702,-4,1,-3,1,1,1,3,1,-3,1,-1,1,2,1,1,1,0,1,-6,1,-8,1,2,1
703,-5,1,-3,1,2,1,4,1,-4,1,-1,1,2,1,0,1,0,1,-7,1,-9,1,2,1
704,-7,1,-4,1,3,1,5,1,-5,1,-1,1,2,1,-2,1,-1,1,-7,1,-9,1,1,1
705,-7,1,-4,1,3,1,5,1,-5,1,-1,1,3,1,-3,1,-1,1,-7,1,-9,1,1,1
706,-7,1,-5,1,2,1,6,1,-5,1,-2,1,3,1,-4,1,-2,1,-7,1,-9,1,1,1
707,-8,1,-6,1,2,1,7,1,-5,1,-2,1,3,1,-6,1,-4,1,-8,1,-10,1,0,1
708,-8,1,-6,1,2,1,7,1,-5,1,-2,1,3,1,-7,1,-6,1,-9,1,-10,1,-1,1
709,-9,1,-6,1,3,1,7,1,-6,1,-2,1,3,1,-7,1,-6,1,-10,1,-10,1,-2,1
710,-9,1,-6,1,3,1,7,1,-6,1,-2,1,2,1,-8,1,-7,1,-10,1,-11,1,-3,1
711,-9,1,-6,1,3,1,7,1,-6,1,-2,1,2,1,-9,1,-7,1,-11,1,-11,1,-3,1
712,-10,1,-6,1,4,1,8,1,-7,1,-1,1,1,1,-10,1,-7,1,-11,1,-12,1,-3,1
713,-10,1,-6,1,4,1,8,1,-7,1,-1,1,1,1,-11,1,-7,1,-12,1,-13,1,-3,1
714,-10,1,-6,1,4,1,8,1,-7,1,-1,1,1,1,-11,1,-6,1,-13,1,-13,1,-2,1
715,-10,1,-7,1,3,1,8,1,-7,1,-2,1,1,1,-11,1,-6,1,-13,1,-13,1,-2,1
716,-9,1,-7,1,2,1,8,1,-6,1,-3,1,0,1,-11,1,-7,1,-13,1,-13,1,-2,1
717,-9,1,-7,1,2,1,8,1,-6,1,-3,1,0,1,-11,1,-8,1,-14,1,-13,1,-3,1
718,-9,1,-8,1,1,1,8,1,-5,1,-4,1,0,1,-10,1,-9,1,-13,1,-13,1,-3,1
719,-10,1,-8,1,2,1,9,1,-6,1,-3,1,1,1,-10,1,-9,1,-13,1,-14,1,-3,1
720,-10,1,-8,1,2,1,9,1,-6,1,-3,1,1,1,-10,1,-10,1,-14,1,-14,1,-4,1
721,-10,1,-8,1,2,1,9,1,-6,1,-3,1,1,1,-11,1,-10,1,-14,1,-14,1,-4,1
722,-11,1,-8,1,3,1,9,1,-7,1,-3,1,1,1,-11,1,-10,1,-14,1,-14,1,-4,1
723,-11,1,-7,1,4,1,9,1,-8,1,-2,1,0,1,-12,1,-10,1,-15,1,-15,1,-5,1
724,-11,1,-7,1,4,1,9,1,-8,1,-2,1,0,1,-13,1,-9,1,-14,1,-14,1,-4,1
725,-11,1,-7,1,4,1,9,1,-8,1,-2,1,0,1,-12,1,-8,1,-14,1,-14,1,-3,1
726,-11,1,-7,1,4,1,9,1,-8,1,-2,1,-1,1,-12,1,-8,1,-14,1,-14,1,-3,1
727,-11,1,-8,1,3,1,9,1,-7,1,-3,1,0,1,-12,1,-9,1,-14,1,-15,1,-4,1
728,-11,1,-8,1,3,1,9,1,-7,1,-3,1,0,1,-12,1,-10,1,-14,1,-14,1,-4,1
729,-11,1,-8,1,3,1,9,1,-7,1,-3,1,1,1,-12,1,-10,1,-14,1,-14,1,-5,1
730,-10,1,-8,1,2,1,9,1,-6,1,-3,1,1,1,-11,1,-10,1,-14,1,-15,1,-5,1
731,-10,1,-8,1,2,1,9,1,-6,1,-3,1,1,1,-10,1,-9,1,-14,1,-15,1,-5,1
732,-9,1,-9,1,0,1,9,1,-5,1,-5,1,1,1,-9,1,-9,1,-13,1,-15,1,-5,1
733,-10,1,-9,1,1,1,9,1,-6,1,-4,1,0,1,-10,1,-9,1,-14,1,-15,1,-5,1
734,-10,1,-9,1,1,1,9,1,-6,1,-4,1,0,1,-10,1,-9,1,-14,1,-15,1,-5,1
735,-10,1,-9,1,1,1,9,1,-6,1,-4,1,1,1,-9,1,-8,1,-14,1,-15,1,-5,1
736,-10,1,-9,1,1,1,9,1,-6,1,-4,1,1,1,-9,1,-8,1,-13,1,-15,1,-6,1
737,-10,1,-9,1,1,1,9,1,-6,1,-4,1,1,1,-9,1,-8,1,-13,1,-15,1,-6,1
738,-9,1,-9,1,0,1,9,1,-5,1,-5,1,2,1,-9,1,-8,1,-13,1,-15,1,-6,1
739,-9,1,-9,1,0,1,9,1,-5,1,-5,1,2,1,-9,1,-8,1,-13,1,-15,1,-6,1
740,-9,1,-9,1,0,1,9,1,-5,1,-5,1,1,1,-8,1,-8,1,-12,1,-15,1,-5,1
741,-9,1,-9,1,0,1,9,1,-5,1,-5,1,1,1,-7,1,-8,1,-12,1,-16,1,-5,1
742,-9,1,-8,1,1,1,8,1,-5,1,-4,1,1,1,-6,1,-7,1,-12,1,-16,1,-5,1
743,-9,1,-8,1,1,1,8,1,-5,1,-4,1,0,1,-6,1,-7,1,-12,1,-16,1,-5,1
744,-9,1,-7,1,2,1,8,1,-6,1,-3,1,0,1,-5,1,-7,1,-11,1,-16,1,-5,1
745,-9,1,-7,1,2,1,8,1,-6,1,-3,1,1,1,-5,1,-6,1,-11,1,-16,1,-5,1
746,-9,1,-7,1,2,1,8,1,-6,1,-3,1,0,1,-5,1,-7,1,-12,1,-16,1,-5,1
747,-9,1,-7,1,2,1,8,1,-6,1,-3,1,0,1,-6,1,-7,1,-12,1,-16,1,-6,1
748,-9,1,-7,1,2,1,8,1,-6,1,-3,1,0,1,-6,1,-6,1,-12,1,-16,1,-5,1
749,-8,1,-7,1,1,1,7,1,-5,1,-3,1,1,1,-5,1,-5,1,-12,1,-16,1,-5,1
750,-8,1,-7,1,1,1,7,1,-5,1,-3,1,1,1,-5,1,-6,1,-12,1,-16,1,-5,1
751,-8,1,-7,1,1,1,7,1,-5,1,-3,1,1,1,-5,1,-6,1,-12,1,-17,1,-5,1
752,-8,1,-7,1,1,1,7,1,-5,1,-3,1,1,1,-5,1,-6,1,-12,1,-17,1,-5,1
753,-8,1,-6,1,2,1,7,1,-5,1,-2,1,1,1,-4,1,-6,1,-12,1,-17,1,-5,1
754,-8,1,-6,1,2,1,7,1,-5,1,-2,1,0,1,-4,1,-7,1,-12,1,-17,1,-6,1
755,-8,1,-7,1,1,1,7,1,-5,1,-3,1,0,1,-3,1,-7,1,-12,1,-17,1,-6,1
756,-8,1,-7,1,1,1,7,1,-5,1,-3,1,0,1,-3,1,-7,1,-12,1,-17,1,-6,1
757,-8,1,-7,1,1,1,7,1,-5,1,-3,1,0,1,-2,1,-6,1,-11,1,-17,1,-6,1
758,-8,1,-6,1,2,1,7,1,-5,1,-2,1,0,1,-1,1,-5,1,-11,1,-17,1,-5,1
759,-8,1,-6,1,2,1,7,1,-5,1,-2,1,1,1,-1,1,-5,1,-11,1,-17,1,-5,1
760,-7,1,-5,1,2,1,6,1,-5,1,-2,1,1,1,-1,1,-5,1,-12,1,-17,1,-5,1
761,-7,1,-5,1,2,1,6,1,-5,1,-2,1,2,1,-1,1,-5,1,-12,1,-16,1,-5,1
762,-6,1,-5,1,1,1,5,1,-4,1,-2,1,2,1,-1,1,-5,1,-12,1,-16,1,-5,1
763,-6,1,-5,1,1,1,5,1,-4,1,-2,1,2,1,-1,1,-6,1,-12,1,-16,1,-5,1
764,-6,1,-6,1,0,1,6,1,-3,1,-3,1,2,1,-2,1,-5,1,-12,1,-16,1,-6,1
765,-7,1,-7,1,0,1,7,1,-4,1,-4,1,2,1,-2,1,-5,1,-12,1,-17,1,-6,1
766,-7,1,-7,1,0,1,7,1,-4,1,-4,1,1,1,-1,1,-5,1,-12,1,-17,1,-7,1
767,-7,1,-7,1,0,1,7,1,-4,1,-4,1,1,1,-1,1,-5,1,-12,1,-17,1,-7,1
768,-7,1,-7,1,0,1,7,1,-4,1,-4,1,2,1,-1,1,-5,1,-12,1,-16,1,-7,1
769,-7,1,-7,1,0,1,7,1,-4,1,-4,1,1,1,-2,1,-5,1,-12,1,-16,1,-7,1
770,-7,1,-7,1,0,1,7,1,-4,1,-4,1,1,1,-2,1,-5,1,-12,1,-16,1,-7,1
771,-6,1,-6,1,0,1,6,1,-3,1,-3,1,1,1,-1,1,-5,1,-12,1,-16,1,-6,1
772,-6,1,-6,1,0,1,6,1,-3,1,-3,1,2,1,-1,1,-5,1,-12,1,-15,1,-6,1
773,-7,1,-6,1,1,1,6,1,-4,1,-3,1,2,1,-2,1,-5,1,-12,1,-16,1,-6,1
774,-7,1,-6,1,1,1,6,1,-4,1,-3,1,2,1,-2,1,-5,1,-12,1,-16,1,-6,1
775,-8,1,-6,1,2,1,7,1,-5,1,-2,1,1,1,-2,1,-5,1,-12,1,-16,1,-6,1
776,-8,1,-6,1,2,1,7,1,-5,1,-2,1,1,1,-3,1,-5,1,-11,1,-16,1,-7,1
777,-9,1,-6,1,3,1,7,1,-6,1,-2,1,1,1,-3,1,-5,1,-11,1,-16,1,-7,1
778,-9,1,-6,1,3,1,7,1,-6,1,-2,1,1,1,-3,1,-4,1,-10,1,-16,1,-6,1
779,-8,1,-6,1,2,1,7,1,-5,1,-2,1,1,1,-3,1,-5,1,-10,1,-16,1,-6,1
780,-8,1,-6,1,2,1,7,1,-5,1,-2,1,1,1,-3,1,-5,1,-11,1,-17,1,-6,1
781,-8,1,-6,1,2,1,7,1,-5,1,-2,1,1,1,-4,1,-6,1,-11,1,-17,1,-7,1
782,-8,1,-6,1,2,1,7,1,-5,1,-2,1,0,1,-3,1,-6,1,-12,1,-17,1,-7,1
783,-7,1,-6,1,1,1,6,1,-4,1,-3,1,0,1,-3,1,-6,1,-12,1,-17,1,-7,1
784,-7,1,-6,1,1,1,6,1,-4,1,-3,1,-1,1,-4,1,-6,1,-13,1,-17,1,-8,1
785,-8,1,-6,1,2,1,7,1,-5,1,-2,1,-1,1,-4,1,-6,1,-13,1,-18,1,-8,1
786,-9,1,-6,1,3,1,7,1,-6,1,-2,1,-1,1,-4,1,-7,1,-13,1,-18,1,-8,1
787,-9,1,-6,1,3,1,7,1,-6,1,-2,1,-2,1,-5,1,-7,1,-14,1,-19,1,-8,1
788,-9,1,-6,1,3,1,7,1,-6,1,-2,1,-2,1,-5,1,-7,1,-13,1,-19,1,-8,1
789,-8,1,-5,1,3,1,6,1,-6,1,-1,1,-1,1,-6,1,-7,1,-13,1,-19,1,-7,1
790,-8,1,-5,1,3,1,6,1,-6,1,-1,1,-1,1,-6,1,-8,1,-13,1,-19,1,-7,1
791,-8,1,-5,1,3,1,6,1,-6,1,-1,1,-1,1,-6,1,-8,1,-13,1,-18,1,-7,1
792,-8,1,-5,1,3,1,6,1,-6,1,-1,1,-1,1,-6,1,-8,1,-13,1,-18,1,-7,1
793,-9,1,-5,1,4,1,7,1,-7,1,-1,1,-1,1,-7,1,-9,1,-13,1,-19,1,-8,1
794,-10,1,-6,1,4,1,8,1,-7,1,-1,1,-2,1,-8,1,-9,1,-14,1,-19,1,-8,1
795,-10,1,-7,1,3,1,8,1,-7,1,-2,1,-1,1,-8,1,-8,1,-13,1,-18,1,-7,1
796,-9,1,-6,1,3,1,7,1,-6,1,-2,1,-1,1,-8,1,-8,1,-14,1,-18,1,-8,1
797,-9,1,-6,1,3,1,7,1,-6,1,-2,1,-1,1,-8,1,-8,1,-14,1,-18,1,-8,1
798,-9,1,-7,1,2,1,8,1,-6,1,-3,1,-1,1,-8,1,-9,1,-14,1,-18,1,-9,1
799,-9,1,-7,1,2,1,8,1,-6,1,-3,1,-1,1,-9,1,-8,1,-14,1,-18,1,-9,1
800,-9,1,-7,1,2,1,8,1,-6,1,-3,1,-1,1,-10,1,-9,1,-15,1,-19,1,-9,1
801,-9,1,-7,1,2,1,8,1,-6,1,-3,1,-1,1,-10,1,-10,1,-15,1,-19,1,-9,1
802,-9,1,-7,1,2,1,8,1,-6,1,-3,1,-1,1,-10,1,-10,1,-15,1,-20,1,-9,1
803,-9,1,-8,1,1,1,8,1,-5,1,-4,1,-1,1,-11,1,-11,1,-15,1,-21,1,-9,1
804,-9,1,-8,1,1,1,8,1,-5,1,-4,1,-2,1,-11,1,-11,1,-14,1,-21,1,-9,1
805,-9,1,-8,1,1,1,8,1,-5,1,-4,1,-2,1,-11,1,-11,1,-14,1,-21,1,-8,1
806,-9,1,-9,1,0,1,9,1,-5,1,-5,1,-2,1,-11,1,-11,1,-14,1,-21,1,-8,1
807,-10,1,-9,1,1,1,9,1,-6,1,-4,1,-2,1,-11,1,-11,1,-15,1,-21,1,-9,1
808,-10,1,-9,1,1,1,9,1,-6,1,-4,1,-1,1,-11,1,-11,1,-15,1,-21,1,-9,1
809,-9,1,-9,1,0,1,9,1,-5,1,-5,1,-1,1,-12,1,-12,1,-15,1,-21,1,-10,1
810,-9,1,-9,1,0,1,9,1,-5,1,-5,1,-1,1,-12,1,-12,1,-15,1,-21,1,-10,1
811,-9,1,-9,1,0,1,9,1,-5,1,-5,1,-1,1,-13,1,-11,1,-15,1,-22,1,-10,1
812,-9,1,-8,1,1,1,8,1,-5,1,-4,1,-1,1,-13,1,-11,1,-15,1,-22,1,-10,1
813,-9,1,-8,1,1,1,8,1,-5,1,-4,1,-2,1,-13,1,-12,1,-15,1,-22,1,-9,1
814,-9,1,-8,1,1,1,8,1,-5,1,-4,1,-2,1,-13,1,-12,1,-14,1,-22,1,-9,1
815,-10,1,-8,1,2,1,9,1,-6,1,-3,1,-2,1,-13,1,-11,1,-14,1,-22,1,-9,1
816,-10,1,-8,1,2,1,9,1,-6,1,-3,1,-2,1,-13,1,-11,1,-14,1,-21,1,-9,1
817,-10,1,-8,1,2,1,9,1,-6,1,-3,1,-2,1,-14,1,-11,1,-14,1,-22,1,-9,1
818,-10,1,-8,1,2,1,9,1,-6,1,-3,1,-2,1,-14,1,-11,1,-14,1,-22,1,-9,1
819,-9,1,-7,1,2,1,8,1,-6,1,-3,1,-2,1,-14,1,-11,1,-14,1,-21,1,-9,1
820,-9,1,-7,1,2,1,8,1,-6,1,-3,1,-4,1,-15,1,-12,1,-15,1,-22,1,-10,1
821,-9,1,-7,1,2,1,8,1,-6,1,-3,1,-3,1,-15,1,-12,1,-15,1,-22,1,-9,1
822,-9,1,-7,1,2,1,8,1,-6,1,-3,1,-2,1,-15,1,-12,1,-15,1,-22,1,-9,1
823,-9,1,-7,1,2,1,8,1,-6,1,-3,1,-1,1,-15,1,-12,1,-15,1,-22,1,-8,1
824,-9,1,-7,1,2,1,8,1,-6,1,-3,1,-1,1,-15,1,-12,1,-15,1,-22,1,-8,1
825,-9,1,-7,1,2,1,8,1,-6,1,-3,1,-1,1,-15,1,-12,1,-15,1,-22,1,-8,1
826,-9,1,-7,1,2,1,8,1,-6,1,-3,1,-1,1,-16,1,-11,1,-15,1,-21,1,-8,1
827,-10,1,-7,1,3,1,8,1,-7,1,-2,1,-1,1,-16,1,-11,1,-15,1,-21,1,-8,1
828,-10,1,-7,1,3,1,8,1,-7,1,-2,1,-1,1,-17,1,-11,1,-15,1,-21,1,-8,1
829,-10,1,-7,1,3,1,8,1,-7,1,-2,1,-1,1,-17,1,-11,1,-15,1,-22,1,-8,1
830,-10,1,-8,1,2,1,9,1,-6,1,-3,1,-2,1,-17,1,-12,1,-15,1,-22,1,-8,1
831,-10,1,-8,1,2,1,9,1,-6,1,-3,1,-2,1,-17,1,-12,1,-15,1,-22,1,-8,1
832,-9,1,-9,1,0,1,9,1,-5,1,-5,1,-2,1,-17,1,-13,1,-16,1,-22,1,-8,1
833,-9,1,-9,1,0,1,9,1,-5,1,-5,1,-3,1,-17,1,-14,1,-17,1,-22,1,-8,1
834,-9,1,-9,1,0,1,9,1,-5,1,-5,1,-3,1,-17,1,-14,1,-17,1,-23,1,-8,1
835,-10,1,-9,1,1,1,9,1,-6,1,-4,1,-4,1,-17,1,-14,1,-17,1,-22,1,-8,1
836,-12,1,-9,1,3,1,10,1,-8,1,-3,1,-4,1,-17,1,-14,1,-17,1,-22,1,-8,1
837,-12,1,-9,1,3,1,10,1,-8,1,-3,1,-5,1,-17,1,-14,1,-18,1,-22,1,-9,1
838,-12,1,-9,1,3,1,10,1,-8,1,-3,1,-5,1,-17,1,-14,1,-18,1,-21,1,-9,1
839,-12,1,-8,1,4,1,10,1,-8,1,-2,1,-6,1,-17,1,-15,1,-19,1,-21,1,-10,1
840,-12,1,-7,1,5,1,9,1,-9,1,-1,1,-6,1,-18,1,-15,1,-19,1,-21,1,-10,1
841,-11,1,-7,1,4,1,9,1,-8,1,-2,1,-6,1,-17,1,-14,1,-18,1,-20,1,-9,1
842,-11,1,-6,1,5,1,8,1,-8,1,-1,1,-6,1,-17,1,-14,1,-18,1,-20,1,-8,1
843,-11,1,-6,1,5,1,8,1,-8,1,-1,1,-7,1,-17,1,-14,1,-18,1,-20,1,-8,1
844,-11,1,-7,1,4,1,9,1,-8,1,-2,1,-7,1,-17,1,-14,1,-17,1,-19,1,-8,1
845,-11,1,-8,1,3,1,9,1,-7,1,-3,1,-7,1,-17,1,-13,1,-17,1,-19,1,-7,1
846,-11,1,-8,1,3,1,9,1,-7,1,-3,1,-8,1,-18,1,-13,1,-17,1,-19,1,-7,1
847,-12,1,-7,1,5,1,9,1,-9,1,-1,1,-7,1,-18,1,-13,1,-17,1,-19,1,-8,1
848,-12,1,-7,1,5,1,9,1,-9,1,-1,1,-7,1,-19,1,-13,1,-17,1,-19,1,-8,1
849,-13,1,-8,1,5,1,10,1,-9,1,-2,1,-7,1,-19,1,-13,1,-17,1,-19,1,-9,1
850,-12,1,-7,1,5,1,9,1,-9,1,-1,1,-7,1,-20,1,-14,1,-17,1,-19,1,-10,1
851,-12,1,-7,1,5,1,9,1,-9,1,-1,1,-7,1,-20,1,-14,1,-17,1,-18,1,-10,1
852,-11,1,-7,1,4,1,9,1,-8,1,-2,1,-7,1,-19,1,-14,1,-17,1,-18,1,-10,1
853,-11,1,-7,1,4,1,9,1,-8,1,-2,1,-7,1,-19,1,-14,1,-17,1,-18,1,-10,1
854,-11,1,-7,1,4,1,9,1,-8,1,-2,1,-7,1,-19,1,-14,1,-17,1,-18,1,-10,1
855,-10,1,-7,1,3,1,8,1,-7,1,-2,1,-7,1,-18,1,-14,1,-17,1,-18,1,-10,1
856,-10,1,-7,1,3,1,8,1,-7,1,-2,1,-8,1,-18,1,-14,1,-17,1,-18,1,-10,1
857,-10,1,-7,1,3,1,8,1,-7,1,-2,1,-9,1,-17,1,-14,1,-17,1,-19,1,-10,1
858,-10,1,-7,1,3,1,8,1,-7,1,-2,1,-8,1,-17,1,-13,1,-17,1,-20,1,-10,1
859,-10,1,-7,1,3,1,8,1,-7,1,-2,1,-8,1,-17,1,-13,1,-17,1,-21,1,-10,1
860,-10,1,-7,1,3,1,8,1,-7,1,-2,1,-8,1,-17,1,-13,1,-18,1,-21,1,-11,1
861,-10,1,-7,1,3,1,8,1,-7,1,-2,1,-8,1,-17,1,-14,1,-17,1,-21,1,-11,1
862,-10,1,-7,1,3,1,8,1,-7,1,-2,1,-9,1,-18,1,-14,1,-17,1,-21,1,-11,1
863,-10,1,-7,1,3,1,8,1,-7,1,-2,1,-9,1,-18,1,-14,1,-16,1,-21,1,-11,1
864,-10,1,-7,1,3,1,8,1,-7,1,-2,1,-9,1,-18,1,-14,1,-16,1,-21,1,-11,1
865,-10,1,-7,1,3,1,8,1,-7,1,-2,1,-9,1,-18,1,-14,1,-16,1,-20,1,-10,1
866,-10,1,-8,1,2,1,9,1,-6,1,-3,1,-9,1,-18,1,-14,1,-16,1,-20,1,-10,1
867,-10,1,-8,1,2,1,9,1,-6,1,-3,1,-9,1,-18,1,-14,1,-16,1,-20,1,-9,1
868,-10,1,-8,1,2,1,9,1,-6,1,-3,1,-9,1,-18,1,-13,1,-16,1,-20,1,-9,1
869,-10,1,-8,1,2,1,9,1,-6,1,-3,1,-9,1,-18,1,-13,1,-16,1,-19,1,-9,1
870,-11,1,-8,1,3,1,9,1,-7,1,-3,1,-9,1,-18,1,-14,1,-16,1,-19,1,-9,1
871,-11,1,-8,1,3,1,9,1,-7,1,-3,1,-8,1,-18,1,-14,1,-16,1,-19,1,-9,1
872,-11,1,-8,1,3,1,9,1,-7,1,-3,1,-8,1,-18,1,-14,1,-16,1,-19,1,-9,1
873,-11,1,-8,1,3,1,9,1,-7,1,-3,1,-7,1,-19,1,-14,1,-17,1,-19,1,-10,1
874,-11,1,-7,1,4,1,9,1,-8,1,-2,1,-8,1,-19,1,-14,1,-16,1,-19,1,-10,1
875,-11,1,-7,1,4,1,9,1,-8,1,-2,1,-7,1,-19,1,-13,1,-16,1,-18,1,-10,1
876,-11,1,-7,1,4,1,9,1,-8,1,-2,1,-7,1,-19,1,-13,1,-16,1,-18,1,-10,1
877,-10,1,-7,1,3,1,8,1,-7,1,-2,1,-7,1,-19,1,-13,1,-16,1,-19,1,-10,1
878,-10,1,-7,1,3,1,8,1,-7,1,-2,1,-6,1,-19,1,-13,1,-15,1,-19,1,-10,1
879,-9,1,-6,1,3,1,7,1,-6,1,-2,1,-6,1,-19,1,-13,1,-15,1,-19,1,-10,1
880,-8,1,-5,1,3,1,6,1,-6,1,-1,1,-6,1,-18,1,-13,1,-16,1,-18,1,-10,1
881,-8,1,-5,1,3,1,6,1,-6,1,-1,1,-6,1,-17,1,-12,1,-16,1,-18,1,-10,1
882,-9,1,-4,1,5,1,6,1,-7,1,0,1,-5,1,-17,1,-12,1,-16,1,-18,1,-9,1
883,-9,1,-4,1,5,1,6,1,-7,1,0,1,-5,1,-17,1,-12,1,-16,1,-18,1,-9,1
884,-8,1,-4,1,4,1,6,1,-6,1,0,1,-6,1,-17,1,-12,1,-15,1,-18,1,-9,1
885,-8,1,-3,1,5,1,5,1,-7,1,1,1,-5,1,-16,1,-10,1,-13,1,-17,1,-8,1
886,-7,1,-2,1,5,1,4,1,-6,1,1,1,-5,1,-15,1,-9,1,-12,1,-16,1,-7,1
887,-7,1,-1,1,6,1,4,1,-7,1,2,1,-4,1,-14,1,-8,1,-11,1,-15,1,-7,1
888,-7,1,-1,1,6,1,4,1,-7,1,2,1,-3,1,-13,1,-7,1,-10,1,-15,1,-6,1
889,-6,1,-1,1,5,1,3,1,-6,1,2,1,-3,1,-12,1,-7,1,-10,1,-14,1,-6,1
890,-6,1,-1,1,5,1,3,1,-6,1,2,1,-3,1,-12,1,-7,1,-10,1,-14,1,-5,1
891,-5,1,-1,1,4,1,3,1,-5,1,1,1,-2,1,-12,1,-7,1,-11,1,-14,1,-5,1
892,-5,1,0,1,5,1,2,1,-5,1,2,1,-2,1,-11,1,-6,1,-10,1,-13,1,-5,1
893,-4,1,0,1,4,1,2,1,-4,1,2,1,-2,1,-11,1,-6,1,-10,1,-13,1,-5,1
894,-4,1,0,1,4,1,2,1,-4,1,2,1,-1,1,-11,1,-5,1,-9,1,-12,1,-4,1
895,-4,1,0,1,4,1,2,1,-4,1,2,1,-1,1,-10,1,-5,1,-9,1,-12,1,-4,1
896,-4,1,0,1,4,1,2,1,-4,1,2,1,-2,1,-10,1,-5,1,-9,1,-12,1,-3,1
897,-4,1,0,1,4,1,2,1,-4,1,2,1,-1,1,-10,1,-5,1,-9,1,-12,1,-3,1
898,-3,1,1,1,4,1,1,1,-3,1,2,1,0,1,-8,1,-4,1,-8,1,-11,1,-2,1
899,-2,1,2,1,4,1,0,1,-3,1,3,1,-1,1,-7,1,-3,1,-7,1,-10,1,-1,1
900,0,1,1,1,1,1,0,1,0,1,1,1,-1,1,-6,1,-2,1,-6,1,-9,1,0,1
901,1,1,2,1,1,1,-1,1,0,1,2,1,-2,1,-5,1,-1,1,-5,1,-8,1,0,1
902,2,1,3,1,1,1,-2,1,1,1,2,1,-3,1,-4,1,0,1,-4,1,-7,1,1,1
903,2,1,4,1,2,1,-3,1,0,1,3,1,-4,1,-3,1,1,1,-4,1,-7,1,1,1
904,3,1,5,1,2,1,-4,1,1,1,4,1,-5,1,-3,1,1,1,-4,1,-7,1,1,1
905,3,1,5,1,2,1,-4,1,1,1,4,1,-5,1,-2,1,2,1,-3,1,-6,1,1,1
906,3,1,6,1,3,1,-4,1,0,1,5,1,-5,1,-1,1,1,1,-3,1,-6,1,1,1
907,4,1,7,1,3,1,-5,1,1,1,5,1,-5,1,-1,1,1,1,-2,1,-6,1,2,1
908,5,1,7,1,2,1,-6,1,2,1,5,1,-6,1,-1,1,2,1,-2,1,-5,1,2,1
909,5,1,5,1,0,1,-5,1,3,1,3,1,-7,1,-1,1,1,1,-2,1,-6,1,2,1
910,5,1,5,1,0,1,-5,1,3,1,3,1,-9,1,-4,1,0,1,-3,1,-7,1,1,1
911,4,1,4,1,0,1,-4,1,2,1,2,1,-11,1,-6,1,-1,1,-4,1,-7,1,0,1
912,3,1,2,1,-1,1,-2,1,2,1,1,1,-13,1,-7,1,-2,1,-5,1,-8,1,-1,1
913,3,1,1,1,-2,1,-2,1,3,1,0,1,-13,1,-8,1,-4,1,-7,1,-9,1,-2,1
914,2,1,0,1,-2,1,-1,1,2,1,-1,1,-13,1,-9,1,-5,1,-8,1,-10,1,-2,1
915,1,1,-1,1,-2,1,0,1,1,1,-1,1,-14,1,-10,1,-6,1,-8,1,-10,1,-2,1
916,1,1,-2,1,-3,1,0,1,2,1,-2,1,-14,1,-10,1,-7,1,-8,1,-11,1,-2,1
917,2,1,-3,1,-5,1,0,1,3,1,-4,1,-15,1,-11,1,-8,1,-9,1,-12,1,-3,1
918,1,1,-3,1,-4,1,1,1,2,1,-3,1,-15,1,-13,1,-10,1,-10,1,-13,1,-4,1
919,1,1,-4,1,-5,1,1,1,3,1,-4,1,-15,1,-14,1,-11,1,-11,1,-14,1,-4,1
920,0,1,-5,1,-5,1,2,1,2,1,-5,1,-15,1,-16,1,-12,1,-13,1,-15,1,-6,1
921,1,1,-5,1,-6,1,2,1,3,1,-5,1,-14,1,-17,1,-13,1,-14,1,-16,1,-7,1
922,0,1,-5,1,-5,1,2,1,2,1,-5,1,-14,1,-18,1,-14,1,-15,1,-17,1,-7,1
923,-1,1,-5,1,-4,1,3,1,1,1,-5,1,-14,1,-19,1,-14,1,-15,1,-17,1,-8,1
924,-2,1,-5,1,-3,1,3,1,0,1,-4,1,-14,1,-19,1,-14,1,-15,1,-17,1,-7,1
925,-4,1,-6,1,-2,1,5,1,-1,1,-4,1,-14,1,-19,1,-14,1,-15,1,-17,1,-7,1
926,-5,1,-6,1,-1,1,5,1,-2,1,-4,1,-13,1,-20,1,-15,1,-15,1,-17,1,-8,1
927,-6,1,-7,1,-1,1,6,1,-3,1,-4,1,-13,1,-21,1,-15,1,-15,1,-19,1,-8,1
928,-7,1,-7,1,0,1,7,1,-4,1,-4,1,-12,1,-21,1,-16,1,-16,1,-20,1,-9,1
929,-8,1,-8,1,0,1,8,1,-4,1,-4,1,-12,1,-20,1,-16,1,-16,1,-20,1,-9,1
930,-9,1,-8,1,1,1,8,1,-5,1,-4,1,-12,1,-21,1,-16,1,-17,1,-20,1,-10,1
931,-9,1,-8,1,1,1,8,1,-5,1,-4,1,-12,1,-21,1,-16,1,-18,1,-20,1,-10,1
932,-10,1,-9,1,1,1,9,1,-6,1,-4,1,-12,1,-22,1,-16,1,-19,1,-21,1,-11,1
933,-11,1,-9,1,2,1,10,1,-7,1,-4,1,-12,1,-22,1,-17,1,-20,1,-21,1,-12,1
934,-11,1,-9,1,2,1,10,1,-7,1,-4,1,-12,1,-22,1,-17,1,-21,1,-22,1,-12,1
935,-11,1,-10,1,1,1,10,1,-6,1,-5,1,-13,1,-22,1,-17,1,-21,1,-22,1,-13,1
936,-11,1,-10,1,1,1,10,1,-6,1,-5,1,-13,1,-22,1,-18,1,-21,1,-22,1,-13,1
937,-11,1,-11,1,0,1,11,1,-6,1,-6,1,-13,1,-22,1,-18,1,-21,1,-22,1,-13,1
938,-10,1,-11,1,-1,1,10,1,-5,1,-6,1,-13,1,-22,1,-18,1,-21,1,-21,1,-13,1
939,-10,1,-11,1,-1,1,10,1,-5,1,-6,1,-13,1,-23,1,-18,1,-21,1,-21,1,-12,1
940,-10,1,-11,1,-1,1,10,1,-5,1,-6,1,-13,1,-23,1,-18,1,-22,1,-22,1,-13,1
941,-10,1,-11,1,-1,1,10,1,-5,1,-6,1,-13,1,-23,1,-18,1,-22,1,-22,1,-12,1
942,-11,1,-11,1,0,1,11,1,-6,1,-6,1,-13,1,-22,1,-18,1,-21,1,-22,1,-12,1
943,-11,1,-11,1,0,1,11,1,-6,1,-6,1,-13,1,-22,1,-18,1,-20,1,-22,1,-12,1
944,-11,1,-10,1,1,1,10,1,-6,1,-5,1,-12,1,-21,1,-17,1,-19,1,-22,1,-12,1
945,-11,1,-10,1,1,1,10,1,-6,1,-5,1,-11,1,-21,1,-17,1,-19,1,-22,1,-11,1
946,-11,1,-10,1,1,1,10,1,-6,1,-5,1,-12,1,-21,1,-17,1,-18,1,-22,1,-11,1
947,-11,1,-10,1,1,1,10,1,-6,1,-5,1,-12,1,-21,1,-17,1,-19,1,-22,1,-12,1
948,-11,1,-10,1,1,1,10,1,-6,1,-5,1,-12,1,-21,1,-16,1,-19,1,-21,1,-12,1
949,-11,1,-9,1,2,1,10,1,-7,1,-4,1,-12,1,-21,1,-16,1,-19,1,-21,1,-12,1
950,-11,1,-9,1,2,1,10,1,-7,1,-4,1,-12,1,-22,1,-16,1,-20,1,-21,1,-12,1
951,-11,1,-9,1,2,1,10,1,-7,1,-4,1,-12,1,-22,1,-17,1,-21,1,-21,1,-12,1
952,-10,1,-9,1,1,1,9,1,-6,1,-4,1,-12,1,-22,1,-17,1,-21,1,-21,1,-11,1
953,-10,1,-8,1,2,1,9,1,-6,1,-3,1,-11,1,-22,1,-16,1,-21,1,-21,1,-10,1
954,-10,1,-8,1,2,1,9,1,-6,1,-3,1,-11,1,-21,1,-16,1,-20,1,-21,1,-9,1
955,-11,1,-7,1,4,1,9,1,-8,1,-2,1,-10,1,-20,1,-15,1,-19,1,-20,1,-9,1
956,-13,1,-5,1,8,1,9,1,-11,1,1,1,-10,1,-18,1,-13,1,-18,1,-19,1,-8,1
957,-13,1,-2,1,11,1,7,1,-12,1,4,1,-8,1,-15,1,-9,1,-15,1,-17,1,-6,1
958,-13,1,2,1,15,1,5,1,-14,1,8,1,-6,1,-7,1,-3,1,-9,1,-14,1,-4,1
959,-11,1,6,1,17,1,2,1,-14,1,11,1,-4,1,1,1,6,1,-3,1,-10,1,-1,1
960,-9,1,9,1,18,1,0,1,-13,1,13,1,-3,1,10,1,14,1,3,1,-5,1,2,1
961,-6,1,11,1,17,1,-2,1,-11,1,14,1,-2,1,22,1,25,1,12,1,1,1,7,1
962,0,1,13,1,13,1,-6,1,-6,1,13,1,-2,1,37,1,36,1,22,1,10,1,12,1
963,10,1,16,1,6,1,-13,1,2,1,11,1,-2,1,58,1,51,1,36,1,21,1,20,1
964,25,1,20,1,-5,1,-22,1,15,1,8,1,-4,1,84,1,72,1,57,1,39,1,33,1
965,43,1,28,1,-15,1,-35,1,29,1,7,1,-9,1,110,1,97,1,84,1,62,1,51,1
966,63,1,38,1,-25,1,-50,1,44,1,7,1,-15,1,132,1,123,1,113,1,87,1,71,1
967,83,1,49,1,-34,1,-66,1,59,1,8,1,-23,1,140,1,143,1,140,1,112,1,93,1
968,100,1,59,1,-41,1,-79,1,71,1,9,1,-30,1,139,1,159,1,165,1,134,1,112,1
969,114,1,68,1,-46,1,-91,1,80,1,11,1,-36,1,137,1,173,1,187,1,153,1,129,1
970,128,1,75,1,-53,1,-101,1,91,1,11,1,-43,1,131,1,184,1,207,1,172,1,144,1
971,141,1,82,1,-59,1,-111,1,100,1,12,1,-50,1,119,1,193,1,226,1,189,1,159,1
972,155,1,82,1,-73,1,-118,1,114,1,5,1,-57,1,103,1,195,1,239,1,201,1,168,1
973,167,1,75,1,-92,1,-121,1,130,1,-8,1,-63,1,84,1,189,1,239,1,201,1,167,1
974,174,1,60,1,-114,1,-117,1,144,1,-27,1,-66,1,60,1,171,1,224,1,187,1,155,1
975,173,1,44,1,-129,1,-108,1,151,1,-42,1,-67,1,30,1,143,1,197,1,164,1,136,1
976,162,1,29,1,-133,1,-95,1,148,1,-52,1,-66,1,-13,1,105,1,158,1,132,1,113,1
977,140,1,14,1,-126,1,-77,1,133,1,-56,1,-60,1,-60,1,57,1,108,1,90,1,80,1
978,108,1,-2,1,-110,1,-53,1,109,1,-56,1,-50,1,-107,1,6,1,50,1,42,1,43,1
979,71,1,-15,1,-86,1,-28,1,78,1,-50,1,-40,1,-155,1,-43,1,-4,1,-3,1,10,1
980,30,1,-24,1,-54,1,-3,1,42,1,-39,1,-31,1,-200,1,-90,1,-55,1,-43,1,-20,1
981,-7,1,-29,1,-22,1,18,1,7,1,-26,1,-23,1,-237,1,-127,1,-95,1,-73,1,-42,1
982,-37,1,-31,1,6,1,34,1,-22,1,-13,1,-19,1,-261,1,-150,1,-121,1,-93,1,-57,1
983,-58,1,-31,1,27,1,44,1,-43,1,-2,1,-16,1,-273,1,-160,1,-134,1,-103,1,-65,1
984,-70,1,-29,1,41,1,49,1,-56,1,6,1,-16,1,-278,1,-163,1,-138,1,-106,1,-67,1
985,-76,1,-29,1,47,1,52,1,-62,1,9,1,-17,1,-277,1,-161,1,-136,1,-104,1,-65,1
986,-77,1,-30,1,47,1,53,1,-62,1,8,1,-19,1,-269,1,-158,1,-134,1,-101,1,-64,1
987,-76,1,-32,1,44,1,54,1,-60,1,6,1,-23,1,-256,1,-155,1,-131,1,-99,1,-63,1
988,-71,1,-33,1,38,1,52,1,-55,1,2,1,-27,1,-239,1,-149,1,-125,1,-95,1,-60,1
989,-65,1,-31,1,34,1,48,1,-50,1,1,1,-32,1,-216,1,-140,1,-117,1,-89,1,-57,1
990,-57,1,-29,1,28,1,43,1,-43,1,-1,1,-34,1,-189,1,-127,1,-106,1,-83,1,-52,1
991,-50,1,-27,1,23,1,38,1,-37,1,-2,1,-34,1,-159,1,-110,1,-93,1,-74,1,-46,1
992,-42,1,-24,1,18,1,33,1,-30,1,-3,1,-31,1,-131,1,-92,1,-78,1,-65,1,-40,1
993,-35,1,-21,1,14,1,28,1,-25,1,-4,1,-26,1,-105,1,-73,1,-64,1,-56,1,-33,1
994,-29,1,-18,1,11,1,23,1,-20,1,-4,1,-22,1,-83,1,-57,1,-51,1,-47,1,-27,1
995,-22,1,-15,1,7,1,18,1,-15,1,-4,1,-18,1,-66,1,-43,1,-40,1,-38,1,-21,1
996,-15,1,-12,1,3,1,13,1,-9,1,-5,1,-16,1,-53,1,-32,1,-31,1,-30,1,-16,1
997,-10,1,-8,1,2,1,9,1,-6,1,-3,1,-14,1,-42,1,-24,1,-24,1,-24,1,-11,1
998,-6,1,-5,1,1,1,5,1,-4,1,-2,1,-12,1,-33,1,-17,1,-19,1,-19,1,-8,1
999,-3,1,-2,1,1,1,2,1,-2,1,-1,1,-12,1,-25,1,-13,1,-15,1,-16,1,-5,1
1000,-1,1,-1,1,0,1,1,1,-1,1,-1,1,-12,1,-18,1,-10,1,-13,1,-15,1,-4,1
1001,-1,1,-1,1,0,1,1,1,-1,1,-1,1,-12,1,-11,1,-7,1,-11,1,-14,1,-3,1
1002,-1,1,-1,1,0,1,1,1,-1,1,-1,1,-11,1,-5,1,-4,1,-9,1,-13,1,-2,1
1003,-1,1,-1,1,0,1,1,1,-1,1,-1,1,-11,1,-1,1,-1,1,-7,1,-13,1,-2,1
1004,-2,1,-1,1,1,1,1,1,-2,1,0,1,-11,1,0,1,0,1,-6,1,-13,1,-1,1
1005,-1,1,-1,1,0,1,1,1,-1,1,-1,1,-10,1,1,1,1,1,-5,1,-12,1,-1,1
1006,-1,1,0,1,1,1,0,1,-1,1,0,1,-9,1,2,1,2,1,-5,1,-11,1,-1,1
1007,0,1,0,1,0,1,0,1,0,1,0,1,-9,1,2,1,2,1,-5,1,-11,1,-1,1
1008,1,1,0,1,-1,1,0,1,1,1,0,1,-9,1,3,1,3,1,-4,1,-9,1,0,1
1009,3,1,1,1,-2,1,-2,1,3,1,0,1,-9,1,4,1,4,1,-4,1,-9,1,0,1
1010,3,1,0,1,-3,1,-1,1,3,1,-1,1,-8,1,6,1,4,1,-3,1,-8,1,1,1
1011,3,1,0,1,-3,1,-1,1,3,1,-1,1,-8,1,8,1,5,1,-2,1,-7,1,2,1
1012,4,1,0,1,-4,1,-2,1,4,1,-2,1,-9,1,10,1,6,1,-1,1,-6,1,2,1
1013,4,1,0,1,-4,1,-2,1,4,1,-2,1,-10,1,12,1,7,1,0,1,-6,1,2,1
1014,5,1,0,1,-5,1,-2,1,5,1,-2,1,-10,1,13,1,8,1,0,1,-6,1,2,1
1015,5,1,0,1,-5,1,-2,1,5,1,-2,1,-10,1,14,1,8,1,0,1,-5,1,2,1
1016,5,1,0,1,-5,1,-2,1,5,1,-2,1,-10,1,14,1,8,1,0,1,-5,1,2,1
1017,6,1,0,1,-6,1,-3,1,6,1,-3,1,-10,1,15,1,9,1,1,1,-5,1,2,1
1018,7,1,1,1,-6,1,-4,1,7,1,-2,1,-9,1,16,1,9,1,2,1,-5,1,3,1
1019,7,1,1,1,-6,1,-4,1,7,1,-2,1,-9,1,17,1,10,1,2,1,-4,1,4,1
1020,8,1,1,1,-7,1,-4,1,8,1,-3,1,-10,1,17,1,10,1,2,1,-4,1,3,1
1021,8,1,1,1,-7,1,-4,1,8,1,-3,1,-10,1,17,1,10,1,2,1,-4,1,4,1
1022,8,1,2,1,-6,1,-5,1,7,1,-2,1,-10,1,19,1,12,1,2,1,-4,1,4,1
1023,9,1,2,1,-7,1,-5,1,8,1,-2,1,-10,1,20,1,12,1,3,1,-3,1,4,1
1024,9,1,2,1,-7,1,-5,1,8,1,-2,1,-10,1,21,1,13,1,3,1,-3,1,4,1
1025,10,1,2,1,-8,1,-6,1,9,1,-3,1,-9,1,22,1,13,1,4,1,-2,1,4,1
1026,10,1,3,1,-7,1,-6,1,9,1,-2,1,-9,1,24,1,14,1,4,1,-1,1,4,1
1027,11,1,3,1,-8,1,-7,1,10,1,-2,1,-10,1,24,1,14,1,5,1,-1,1,4,1
1028,12,1,3,1,-9,1,-7,1,11,1,-3,1,-9,1,25,1,15,1,6,1,0,1,5,1
1029,11,1,3,1,-8,1,-7,1,10,1,-2,1,-9,1,26,1,16,1,7,1,0,1,6,1
1030,12,1,4,1,-8,1,-8,1,10,1,-2,1,-10,1,27,1,16,1,8,1,1,1,7,1
1031,13,1,4,1,-9,1,-8,1,11,1,-2,1,-10,1,27,1,17,1,9,1,2,1,8,1
1032,14,1,4,1,-10,1,-9,1,12,1,-3,1,-11,1,28,1,19,1,10,1,2,1,9,1
1033,14,1,4,1,-10,1,-9,1,12,1,-3,1,-10,1,29,1,20,1,11,1,3,1,9,1
1034,15,1,4,1,-11,1,-9,1,13,1,-3,1,-11,1,30,1,20,1,11,1,4,1,9,1
1035,16,1,4,1,-12,1,-10,1,14,1,-4,1,-11,1,30,1,21,1,12,1,4,1,10,1
1036,16,1,4,1,-12,1,-10,1,14,1,-4,1,-11,1,31,1,22,1,12,1,5,1,10,1
1037,17,1,5,1,-12,1,-11,1,15,1,-3,1,-11,1,32,1,22,1,13,1,5,1,10,1
1038,17,1,5,1,-12,1,-11,1,15,1,-3,1,-11,1,33,1,23,1,14,1,6,1,11,1
1039,17,1,5,1,-12,1,-11,1,15,1,-3,1,-11,1,35,1,24,1,15,1,7,1,11,1
1040,18,1,6,1,-12,1,-12,1,15,1,-3,1,-12,1,36,1,24,1,15,1,7,1,11,1
1041,19,1,7,1,-12,1,-13,1,16,1,-2,1,-13,1,37,1,25,1,16,1,8,1,11,1
1042,20,1,6,1,-14,1,-13,1,17,1,-4,1,-13,1,38,1,26,1,17,1,9,1,12,1
1043,21,1,7,1,-14,1,-14,1,18,1,-3,1,-13,1,38,1,27,1,18,1,10,1,13,1
1044,21,1,6,1,-15,1,-13,1,18,1,-4,1,-13,1,39,1,28,1,19,1,10,1,13,1
1045,22,1,6,1,-16,1,-14,1,19,1,-5,1,-13,1,40,1,28,1,20,1,10,1,14,1
1046,23,1,6,1,-17,1,-14,1,20,1,-5,1,-13,1,41,1,29,1,20,1,11,1,15,1
1047,23,1,6,1,-17,1,-14,1,20,1,-5,1,-13,1,42,1,31,1,21,1,11,1,16,1
1048,23,1,6,1,-17,1,-14,1,20,1,-5,1,-13,1,44,1,31,1,22,1,12,1,16,1
1049,24,1,7,1,-17,1,-15,1,21,1,-5,1,-14,1,46,1,32,1,23,1,12,1,16,1
1050,25,1,8,1,-17,1,-16,1,21,1,-4,1,-14,1,47,1,32,1,24,1,13,1,16,1
1051,26,1,8,1,-18,1,-17,1,22,1,-5,1,-15,1,48,1,33,1,24,1,14,1,16,1
1052,28,1,9,1,-19,1,-18,1,24,1,-5,1,-15,1,49,1,33,1,25,1,14,1,17,1
1053,29,1,9,1,-20,1,-19,1,25,1,-5,1,-16,1,49,1,34,1,25,1,14,1,18,1
1054,30,1,10,1,-20,1,-20,1,25,1,-5,1,-15,1,50,1,35,1,26,1,14,1,19,1
1055,30,1,10,1,-20,1,-20,1,25,1,-5,1,-15,1,52,1,36,1,27,1,16,1,20,1
1056,31,1,10,1,-21,1,-20,1,26,1,-5,1,-15,1,53,1,36,1,28,1,17,1,20,1
1057,32,1,11,1,-21,1,-21,1,27,1,-5,1,-16,1,54,1,37,1,29,1,17,1,20,1
1058,33,1,12,1,-21,1,-22,1,27,1,-4,1,-17,1,56,1,38,1,30,1,19,1,21,1
1059,33,1,13,1,-20,1,-23,1,27,1,-3,1,-17,1,58,1,39,1,31,1,20,1,21,1
1060,35,1,15,1,-20,1,-25,1,28,1,-2,1,-18,1,59,1,40,1,31,1,20,1,22,1
1061,37,1,16,1,-21,1,-26,1,29,1,-2,1,-19,1,60,1,42,1,31,1,21,1,22,1
1062,39,1,17,1,-22,1,-28,1,31,1,-2,1,-19,1,61,1,44,1,32,1,22,1,23,1
1063,41,1,17,1,-24,1,-29,1,33,1,-3,1,-20,1,62,1,45,1,33,1,23,1,24,1
1064,42,1,17,1,-25,1,-29,1,34,1,-4,1,-20,1,64,1,46,1,34,1,25,1,24,1
1065,43,1,18,1,-25,1,-30,1,34,1,-3,1,-21,1,66,1,47,1,37,1,26,1,25,1
1066,44,1,18,1,-26,1,-31,1,35,1,-4,1,-21,1,68,1,48,1,39,1,27,1,27,1
1067,44,1,18,1,-26,1,-31,1,35,1,-4,1,-22,1,69,1,49,1,40,1,27,1,27,1
1068,44,1,19,1,-25,1,-31,1,35,1,-3,1,-22,1,71,1,50,1,41,1,28,1,28,1
1069,45,1,20,1,-25,1,-32,1,35,1,-2,1,-23,1,73,1,51,1,42,1,28,1,29,1
1070,47,1,21,1,-26,1,-34,1,37,1,-2,1,-24,1,74,1,52,1,42,1,29,1,30,1
1071,49,1,22,1,-27,1,-35,1,38,1,-2,1,-24,1,76,1,52,1,42,1,30,1,31,1
1072,51,1,22,1,-29,1,-36,1,40,1,-3,1,-25,1,77,1,54,1,43,1,31,1,31,1
1073,52,1,23,1,-29,1,-37,1,41,1,-3,1,-25,1,79,1,55,1,44,1,32,1,32,1
1074,54,1,22,1,-32,1,-38,1,43,1,-5,1,-26,1,80,1,56,1,46,1,34,1,33,1
1075,55,1,22,1,-33,1,-38,1,44,1,-5,1,-26,1,81,1,57,1,47,1,35,1,33,1
1076,56,1,23,1,-33,1,-39,1,45,1,-5,1,-27,1,82,1,59,1,49,1,35,1,34,1
1077,57,1,23,1,-34,1,-40,1,46,1,-5,1,-27,1,83,1,59,1,49,1,36,1,34,1
1078,57,1,24,1,-33,1,-40,1,45,1,-4,1,-28,1,85,1,60,1,50,1,37,1,35,1
1079,58,1,24,1,-34,1,-41,1,46,1,-5,1,-29,1,87,1,60,1,50,1,37,1,35,1
1080,59,1,25,1,-34,1,-42,1,47,1,-4,1,-29,1,88,1,60,1,50,1,37,1,35,1
1081,61,1,26,1,-35,1,-43,1,48,1,-4,1,-29,1,88,1,61,1,50,1,37,1,35,1
1082,61,1,26,1,-35,1,-43,1,48,1,-4,1,-29,1,89,1,61,1,51,1,38,1,35,1
1083,63,1,26,1,-37,1,-44,1,50,1,-5,1,-28,1,90,1,62,1,51,1,38,1,35,1
1084,63,1,26,1,-37,1,-44,1,50,1,-5,1,-29,1,90,1,62,1,52,1,38,1,35,1
1085,63,1,25,1,-38,1,-44,1,51,1,-6,1,-29,1,90,1,62,1,53,1,38,1,35,1
1086,64,1,25,1,-39,1,-44,1,52,1,-7,1,-29,1,90,1,62,1,54,1,38,1,36,1
1087,64,1,25,1,-39,1,-44,1,52,1,-7,1,-29,1,90,1,62,1,54,1,38,1,36,1
1088,64,1,25,1,-39,1,-44,1,52,1,-7,1,-29,1,90,1,62,1,54,1,39,1,36,1
1089,64,1,25,1,-39,1,-44,1,52,1,-7,1,-29,1,89,1,61,1,53,1,40,1,35,1
1090,64,1,25,1,-39,1,-44,1,52,1,-7,1,-29,1,88,1,61,1,53,1,39,1,35,1
1091,64,1,25,1,-39,1,-44,1,52,1,-7,1,-29,1,88,1,60,1,52,1,39,1,35,1
1092,63,1,25,1,-38,1,-44,1,51,1,-6,1,-28,1,88,1,60,1,52,1,38,1,35,1
1093,63,1,25,1,-38,1,-44,1,51,1,-6,1,-28,1,87,1,58,1,52,1,38,1,35,1
1094,62,1,24,1,-38,1,-43,1,50,1,-7,1,-28,1,86,1,57,1,51,1,37,1,34,1
1095,60,1,24,1,-36,1,-42,1,48,1,-6,1,-28,1,84,1,55,1,49,1,36,1,33,1
1096,59,1,23,1,-36,1,-41,1,48,1,-6,1,-28,1,83,1,55,1,48,1,35,1,32,1
1097,59,1,22,1,-37,1,-40,1,48,1,-7,1,-28,1,81,1,53,1,46,1,34,1,31,1
1098,58,1,22,1,-36,1,-40,1,47,1,-7,1,-28,1,80,1,53,1,45,1,34,1,30,1
1099,57,1,21,1,-36,1,-39,1,47,1,-7,1,-27,1,78,1,52,1,43,1,32,1,30,1
1100,56,1,21,1,-35,1,-38,1,46,1,-7,1,-27,1,76,1,50,1,41,1,31,1,29,1
1101,55,1,20,1,-35,1,-37,1,45,1,-7,1,-25,1,74,1,48,1,40,1,29,1,28,1
1102,53,1,19,1,-34,1,-36,1,44,1,-7,1,-25,1,71,1,46,1,39,1,28,1,27,1
1103,51,1,19,1,-32,1,-35,1,42,1,-6,1,-24,1,69,1,45,1,37,1,26,1,26,1
1104,49,1,18,1,-31,1,-33,1,40,1,-6,1,-24,1,67,1,43,1,35,1,25,1,24,1
1105,47,1,18,1,-29,1,-32,1,38,1,-5,1,-23,1,64,1,41,1,34,1,24,1,23,1
1106,46,1,17,1,-29,1,-31,1,38,1,-6,1,-22,1,61,1,40,1,32,1,22,1,22,1
1107,45,1,17,1,-28,1,-31,1,37,1,-5,1,-22,1,59,1,38,1,30,1,20,1,21,1
1108,43,1,17,1,-26,1,-30,1,35,1,-4,1,-21,1,56,1,36,1,28,1,19,1,21,1
1109,41,1,16,1,-25,1,-28,1,33,1,-4,1,-19,1,54,1,34,1,26,1,17,1,19,1
1110,38,1,16,1,-22,1,-27,1,30,1,-3,1,-18,1,51,1,31,1,23,1,15,1,17,1
1111,36,1,15,1,-21,1,-25,1,29,1,-3,1,-17,1,48,1,28,1,21,1,13,1,16,1
1112,34,1,15,1,-19,1,-24,1,27,1,-2,1,-16,1,45,1,26,1,19,1,12,1,15,1
1113,32,1,15,1,-17,1,-23,1,25,1,-1,1,-16,1,42,1,25,1,16,1,10,1,14,1
1114,30,1,14,1,-16,1,-22,1,23,1,-1,1,-16,1,39,1,24,1,14,1,9,1,13,1
1115,27,1,13,1,-14,1,-20,1,21,1,0,1,-15,1,36,1,23,1,13,1,8,1,13,1
1116,25,1,12,1,-13,1,-18,1,19,1,0,1,-14,1,34,1,23,1,12,1,6,1,11,1
1117,24,1,11,1,-13,1,-17,1,19,1,-1,1,-14,1,31,1,21,1,11,1,5,1,10,1
1118,22,1,9,1,-13,1,-15,1,18,1,-2,1,-14,1,28,1,20,1,10,1,4,1,9,1
1119,19,1,9,1,-10,1,-14,1,15,1,0,1,-13,1,25,1,18,1,8,1,2,1,7,1
1120,18,1,8,1,-10,1,-13,1,14,1,-1,1,-12,1,22,1,15,1,5,1,1,1,6,1
1121,16,1,8,1,-8,1,-12,1,12,1,0,1,-11,1,19,1,13,1,4,1,0,1,5,1
1122,14,1,7,1,-7,1,-10,1,11,1,0,1,-10,1,17,1,12,1,2,1,-1,1,4,1
1123,12,1,6,1,-6,1,-9,1,9,1,0,1,-10,1,14,1,10,1,1,1,-2,1,3,1
1124,11,1,6,1,-5,1,-8,1,8,1,1,1,-11,1,12,1,9,1,0,1,-3,1,2,1
1125,9,1,5,1,-4,1,-7,1,7,1,1,1,-10,1,10,1,8,1,0,1,-4,1,2,1
1126,7,1,4,1,-3,1,-5,1,5,1,1,1,-10,1,8,1,7,1,-1,1,-5,1,2,1
1127,5,1,4,1,-1,1,-4,1,3,1,2,1,-10,1,6,1,6,1,-3,1,-6,1,1,1
1128,4,1,3,1,-1,1,-3,1,3,1,1,1,-9,1,4,1,4,1,-4,1,-7,1,0,1
1129,2,1,3,1,1,1,-2,1,1,1,2,1,-9,1,2,1,3,1,-5,1,-8,1,0,1
1130,1,1,2,1,1,1,-1,1,0,1,2,1,-9,1,0,1,1,1,-7,1,-9,1,-2,1
1131,0,1,2,1,2,1,-1,1,-1,1,2,1,-9,1,-1,1,0,1,-9,1,-10,1,-3,1
1132,0,1,1,1,1,1,0,1,0,1,1,1,-9,1,-2,1,0,1,-10,1,-11,1,-4,1
1133,-1,1,1,1,2,1,0,1,-1,1,1,1,-10,1,-4,1,-2,1,-11,1,-11,1,-5,1
1134,-1,1,1,1,2,1,0,1,-1,1,1,1,-10,1,-5,1,-2,1,-12,1,-12,1,-6,1
1135,-1,1,1,1,2,1,0,1,-1,1,1,1,-10,1,-6,1,-3,1,-12,1,-13,1,-6,1
1136,-2,1,1,1,3,1,0,1,-2,1,2,1,-10,1,-8,1,-3,1,-13,1,-14,1,-6,1
1137,-2,1,1,1,3,1,0,1,-2,1,2,1,-10,1,-8,1,-4,1,-14,1,-14,1,-7,1
1138,-3,1,1,1,4,1,1,1,-3,1,2,1,-9,1,-8,1,-4,1,-14,1,-14,1,-7,1
1139,-4,1,1,1,5,1,1,1,-4,1,3,1,-9,1,-9,1,-4,1,-15,1,-14,1,-7,1
1140,-4,1,1,1,5,1,1,1,-4,1,3,1,-9,1,-11,1,-5,1,-16,1,-15,1,-7,1
1141,-4,1,1,1,5,1,1,1,-4,1,3,1,-8,1,-11,1,-6,1,-17,1,-15,1,-8,1
1142,-5,1,0,1,5,1,2,1,-5,1,2,1,-8,1,-12,1,-6,1,-17,1,-15,1,-8,1
1143,-5,1,0,1,5,1,2,1,-5,1,2,1,-8,1,-13,1,-7,1,-18,1,-15,1,-9,1
1144,-4,1,0,1,4,1,2,1,-4,1,2,1,-9,1,-14,1,-8,1,-18,1,-16,1,-10,1
1145,-4,1,0,1,4,1,2,1,-4,1,2,1,-9,1,-14,1,-9,1,-18,1,-17,1,-10,1
1146,-4,1,-1,1,3,1,2,1,-4,1,1,1,-10,1,-14,1,-9,1,-19,1,-18,1,-11,1
1147,-4,1,-1,1,3,1,2,1,-4,1,1,1,-10,1,-14,1,-10,1,-20,1,-18,1,-11,1
1148,-5,1,-1,1,4,1,3,1,-5,1,1,1,-10,1,-14,1,-9,1,-20,1,-18,1,-11,1
1149,-5,1,-1,1,4,1,3,1,-5,1,1,1,-10,1,-14,1,-9,1,-20,1,-18,1,-11,1
1150,-6,1,-1,1,5,1,3,1,-6,1,2,1,-10,1,-15,1,-10,1,-21,1,-18,1,-12,1
1151,-6,1,-1,1,5,1,3,1,-6,1,2,1,-9,1,-15,1,-10,1,-20,1,-18,1,-11,1
1152,-6,1,-1,1,5,1,3,1,-6,1,2,1,-9,1,-15,1,-10,1,-20,1,-17,1,-11,1
1153,-6,1,-1,1,5,1,3,1,-6,1,2,1,-9,1,-15,1,-11,1,-20,1,-18,1,-11,1
1154,-6,1,-1,1,5,1,3,1,-6,1,2,1,-9,1,-15,1,-12,1,-20,1,-18,1,-10,1
1155,-6,1,-1,1,5,1,3,1,-6,1,2,1,-9,1,-15,1,-12,1,-20,1,-18,1,-11,1
1156,-6,1,-1,1,5,1,3,1,-6,1,2,1,-10,1,-15,1,-12,1,-20,1,-18,1,-11,1
1157,-6,1,0,1,6,1,3,1,-6,1,3,1,-10,1,-15,1,-12,1,-21,1,-19,1,-11,1
1158,-6,1,0,1,6,1,3,1,-6,1,3,1,-11,1,-15,1,-11,1,-21,1,-19,1,-11,1
1159,-6,1,0,1,6,1,3,1,-6,1,3,1,-11,1,-15,1,-11,1,-20,1,-19,1,-12,1
1160,-7,1,0,1,7,1,3,1,-7,1,3,1,-11,1,-15,1,-11,1,-21,1,-19,1,-12,1
1161,-7,1,0,1,7,1,3,1,-7,1,3,1,-9,1,-15,1,-11,1,-20,1,-19,1,-12,1
1162,-6,1,0,1,6,1,3,1,-6,1,3,1,-9,1,-15,1,-11,1,-20,1,-19,1,-12,1
1163,-6,1,0,1,6,1,3,1,-6,1,3,1,-9,1,-15,1,-11,1,-20,1,-19,1,-11,1
1164,-5,1,0,1,5,1,2,1,-5,1,2,1,-8,1,-15,1,-11,1,-20,1,-19,1,-11,1
1165,-5,1,0,1,5,1,2,1,-5,1,2,1,-8,1,-15,1,-11,1,-20,1,-19,1,-11,1
1166,-5,1,0,1,5,1,2,1,-5,1,2,1,-8,1,-14,1,-11,1,-20,1,-18,1,-11,1
1167,-5,1,-1,1,4,1,3,1,-5,1,1,1,-8,1,-14,1,-10,1,-19,1,-19,1,-11,1
1168,-5,1,-1,1,4,1,3,1,-5,1,1,1,-8,1,-14,1,-9,1,-19,1,-18,1,-11,1
1169,-5,1,-1,1,4,1,3,1,-5,1,1,1,-8,1,-14,1,-9,1,-18,1,-18,1,-11,1
1170,-5,1,-1,1,4,1,3,1,-5,1,1,1,-9,1,-13,1,-9,1,-18,1,-19,1,-11,1
1171,-5,1,-1,1,4,1,3,1,-5,1,1,1,-9,1,-13,1,-9,1,-19,1,-19,1,-11,1
1172,-4,1,-1,1,3,1,2,1,-4,1,1,1,-9,1,-13,1,-9,1,-19,1,-19,1,-11,1
1173,-4,1,-1,1,3,1,2,1,-4,1,1,1,-9,1,-13,1,-9,1,-19,1,-18,1,-11,1
1174,-4,1,-1,1,3,1,2,1,-4,1,1,1,-9,1,-12,1,-8,1,-19,1,-18,1,-11,1
1175,-4,1,-1,1,3,1,2,1,-4,1,1,1,-9,1,-11,1,-8,1,-19,1,-18,1,-11,1
1176,-4,1,0,1,4,1,2,1,-4,1,2,1,-9,1,-10,1,-8,1,-19,1,-18,1,-11,1
1177,-4,1,0,1,4,1,2,1,-4,1,2,1,-9,1,-10,1,-8,1,-19,1,-17,1,-11,1
1178,-3,1,0,1,3,1,1,1,-3,1,1,1,-9,1,-10,1,-8,1,-19,1,-17,1,-10,1
1179,-3,1,1,1,4,1,1,1,-3,1,2,1,-9,1,-9,1,-8,1,-18,1,-17,1,-10,1
1180,-3,1,2,1,5,1,0,1,-4,1,3,1,-9,1,-9,1,-8,1,-18,1,-18,1,-10,1
1181,-3,1,2,1,5,1,0,1,-4,1,3,1,-9,1,-10,1,-8,1,-18,1,-18,1,-10,1
1182,-3,1,2,1,5,1,0,1,-4,1,3,1,-9,1,-10,1,-7,1,-18,1,-18,1,-10,1
1183,-2,1,3,1,5,1,0,1,-3,1,4,1,-9,1,-10,1,-7,1,-17,1,-17,1,-10,1
1184,-2,1,3,1,5,1,0,1,-3,1,4,1,-9,1,-9,1,-7,1,-17,1,-18,1,-11,1
1185,-2,1,3,1,5,1,0,1,-3,1,4,1,-9,1,-8,1,-6,1,-17,1,-17,1,-10,1
1186,-2,1,3,1,5,1,0,1,-3,1,4,1,-9,1,-8,1,-6,1,-17,1,-17,1,-10,1
1187,-2,1,3,1,5,1,0,1,-3,1,4,1,-10,1,-8,1,-6,1,-17,1,-17,1,-9,1
1188,-1,1,3,1,4,1,-1,1,-2,1,3,1,-10,1,-8,1,-6,1,-16,1,-16,1,-9,1
1189,-1,1,2,1,3,1,0,1,-2,1,2,1,-11,1,-8,1,-6,1,-16,1,-16,1,-9,1
1190,-1,1,3,1,4,1,-1,1,-2,1,3,1,-11,1,-8,1,-6,1,-16,1,-16,1,-9,1
1191,-1,1,3,1,4,1,-1,1,-2,1,3,1,-11,1,-7,1,-6,1,-16,1,-16,1,-8,1
1192,-1,1,3,1,4,1,-1,1,-2,1,3,1,-11,1,-7,1,-6,1,-16,1,-16,1,-8,1
1193,-1,1,3,1,4,1,-1,1,-2,1,3,1,-10,1,-7,1,-6,1,-16,1,-16,1,-8,1
1194,-1,1,3,1,4,1,-1,1,-2,1,3,1,-11,1,-7,1,-6,1,-16,1,-16,1,-8,1
1195,-1,1,3,1,4,1,-1,1,-2,1,3,1,-11,1,-6,1,-6,1,-15,1,-16,1,-9,1
1196,-1,1,3,1,4,1,-1,1,-2,1,3,1,-11,1,-6,1,-6,1,-15,1,-15,1,-9,1
1197,-1,1,3,1,4,1,-1,1,-2,1,3,1,-12,1,-6,1,-6,1,-16,1,-15,1,-8,1
1198,-1,1,3,1,4,1,-1,1,-2,1,3,1,-11,1,-6,1,-6,1,-16,1,-14,1,-7,1
1199,-1,1,3,1,4,1,-1,1,-2,1,3,1,-11,1,-6,1,-6,1,-16,1,-14,1,-7,1
1200,-1,1,4,1,5,1,-1,1,-3,1,4,1,-11,1,-6,1,-6,1,-16,1,-15,1,-7,1
1201,-1,1,4,1,5,1,-1,1,-3,1,4,1,-11,1,-6,1,-6,1,-16,1,-14,1,-7,1
1202,-1,1,3,1,4,1,-1,1,-2,1,3,1,-11,1,-6,1,-6,1,-15,1,-14,1,-7,1
1203,-1,1,3,1,4,1,-1,1,-2,1,3,1,-11,1,-7,1,-7,1,-15,1,-14,1,-7,1
1204,-1,1,2,1,3,1,0,1,-2,1,2,1,-12,1,-8,1,-6,1,-15,1,-15,1,-8,1
1205,-1,1,1,1,2,1,0,1,-1,1,1,1,-12,1,-8,1,-6,1,-14,1,-15,1,-7,1
1206,-1,1,1,1,2,1,0,1,-1,1,1,1,-11,1,-8,1,-6,1,-14,1,-15,1,-7,1
1207,-1,1,1,1,2,1,0,1,-1,1,1,1,-11,1,-8,1,-6,1,-15,1,-15,1,-8,1
1208,-1,1,1,1,2,1,0,1,-1,1,1,1,-10,1,-8,1,-6,1,-15,1,-15,1,-8,1
1209,-1,1,1,1,2,1,0,1,-1,1,1,1,-10,1,-8,1,-6,1,-15,1,-14,1,-8,1
1210,0,1,1,1,1,1,0,1,0,1,1,1,-10,1,-8,1,-6,1,-16,1,-14,1,-8,1
1211,-1,1,2,1,3,1,0,1,-2,1,2,1,-10,1,-8,1,-7,1,-16,1,-14,1,-7,1
1212,-1,1,2,1,3,1,0,1,-2,1,2,1,-10,1,-9,1,-7,1,-16,1,-14,1,-7,1
1213,-2,1,2,1,4,1,0,1,-3,1,3,1,-11,1,-9,1,-7,1,-16,1,-14,1,-7,1
1214,-2,1,2,1,4,1,0,1,-3,1,3,1,-11,1,-10,1,-8,1,-16,1,-14,1,-6,1
1215,-2,1,1,1,3,1,0,1,-2,1,2,1,-11,1,-10,1,-8,1,-16,1,-14,1,-6,1
1216,-3,1,1,1,4,1,1,1,-3,1,2,1,-10,1,-10,1,-8,1,-16,1,-14,1,-6,1
1217,-4,1,1,1,5,1,1,1,-4,1,3,1,-10,1,-10,1,-8,1,-16,1,-14,1,-6,1
1218,-4,1,1,1,5,1,1,1,-4,1,3,1,-10,1,-11,1,-8,1,-16,1,-14,1,-6,1
1219,-4,1,1,1,5,1,1,1,-4,1,3,1,-10,1,-10,1,-8,1,-16,1,-14,1,-6,1
1220,-3,1,1,1,4,1,1,1,-3,1,2,1,-10,1,-10,1,-8,1,-16,1,-15,1,-7,1
1221,-3,1,0,1,3,1,1,1,-3,1,1,1,-10,1,-11,1,-8,1,-17,1,-15,1,-7,1
1222,-2,1,0,1,2,1,1,1,-2,1,1,1,-10,1,-11,1,-9,1,-18,1,-16,1,-7,1
1223,-2,1,0,1,2,1,1,1,-2,1,1,1,-11,1,-12,1,-9,1,-18,1,-16,1,-7,1
1224,-2,1,0,1,2,1,1,1,-2,1,1,1,-11,1,-12,1,-10,1,-18,1,-16,1,-8,1
1225,-3,1,0,1,3,1,1,1,-3,1,1,1,-12,1,-13,1,-10,1,-18,1,-16,1,-8,1
1226,-4,1,0,1,4,1,2,1,-4,1,2,1,-12,1,-13,1,-10,1,-18,1,-15,1,-8,1
1227,-4,1,1,1,5,1,1,1,-4,1,3,1,-12,1,-13,1,-11,1,-19,1,-15,1,-8,1
1228,-4,1,1,1,5,1,1,1,-4,1,3,1,-12,1,-14,1,-11,1,-19,1,-16,1,-9,1
1229,-5,1,1,1,6,1,2,1,-5,1,3,1,-11,1,-14,1,-11,1,-19,1,-16,1,-10,1
1230,-5,1,1,1,6,1,2,1,-5,1,3,1,-11,1,-15,1,-11,1,-20,1,-16,1,-10,1
1231,-4,1,1,1,5,1,1,1,-4,1,3,1,-11,1,-15,1,-12,1,-20,1,-16,1,-11,1
1232,-4,1,1,1,5,1,1,1,-4,1,3,1,-11,1,-16,1,-12,1,-20,1,-16,1,-10,1
1233,-4,1,1,1,5,1,1,1,-4,1,3,1,-11,1,-16,1,-12,1,-20,1,-16,1,-9,1
1234,-4,1,1,1,5,1,1,1,-4,1,3,1,-11,1,-16,1,-12,1,-20,1,-16,1,-9,1
1235,-4,1,0,1,4,1,2,1,-4,1,2,1,-11,1,-16,1,-12,1,-20,1,-16,1,-8,1
1236,-4,1,1,1,5,1,1,1,-4,1,3,1,-12,1,-16,1,-12,1,-20,1,-16,1,-8,1
1237,-4,1,1,1,5,1,1,1,-4,1,3,1,-12,1,-17,1,-12,1,-20,1,-16,1,-8,1
1238,-4,1,0,1,4,1,2,1,-4,1,2,1,-12,1,-17,1,-12,1,-20,1,-15,1,-9,1
1239,-5,1,0,1,5,1,2,1,-5,1,2,1,-12,1,-18,1,-12,1,-19,1,-15,1,-9,1
1240,-5,1,0,1,5,1,2,1,-5,1,2,1,-12,1,-19,1,-12,1,-20,1,-15,1,-9,1
1241,-5,1,1,1,6,1,2,1,-5,1,3,1,-11,1,-19,1,-13,1,-20,1,-15,1,-9,1
1242,-5,1,0,1,5,1,2,1,-5,1,2,1,-11,1,-19,1,-13,1,-20,1,-15,1,-9,1
1243,-5,1,0,1,5,1,2,1,-5,1,2,1,-11,1,-20,1,-14,1,-20,1,-16,1,-9,1
1244,-5,1,0,1,5,1,2,1,-5,1,2,1,-12,1,-20,1,-14,1,-21,1,-16,1,-9,1
1245,-5,1,0,1,5,1,2,1,-5,1,2,1,-12,1,-20,1,-14,1,-21,1,-16,1,-9,1
1246,-5,1,0,1,5,1,2,1,-5,1,2,1,-12,1,-20,1,-14,1,-21,1,-16,1,-9,1
1247,-5,1,0,1,5,1,2,1,-5,1,2,1,-13,1,-21,1,-15,1,-21,1,-17,1,-9,1
1248,-5,1,0,1,5,1,2,1,-5,1,2,1,-13,1,-21,1,-15,1,-21,1,-18,1,-10,1
1249,-5,1,1,1,6,1,2,1,-5,1,3,1,-13,1,-21,1,-15,1,-20,1,-17,1,-10,1
1250,-5,1,1,1,6,1,2,1,-5,1,3,1,-13,1,-22,1,-15,1,-21,1,-17,1,-10,1
1251,-5,1,2,1,7,1,1,1,-6,1,4,1,-12,1,-22,1,-15,1,-21,1,-17,1,-10,1
1252,-5,1,1,1,6,1,2,1,-5,1,3,1,-12,1,-22,1,-15,1,-22,1,-17,1,-10,1
1253,-5,1,1,1,6,1,2,1,-5,1,3,1,-12,1,-22,1,-15,1,-22,1,-17,1,-10,1
1254,-5,1,1,1,6,1,2,1,-5,1,3,1,-12,1,-22,1,-15,1,-23,1,-17,1,-10,1
1255,-5,1,0,1,5,1,2,1,-5,1,2,1,-12,1,-21,1,-15,1,-22,1,-17,1,-10,1
1256,-6,1,0,1,6,1,3,1,-6,1,3,1,-12,1,-21,1,-15,1,-22,1,-16,1,-10,1
1257,-6,1,1,1,7,1,2,1,-6,1,4,1,-12,1,-21,1,-15,1,-22,1,-16,1,-10,1
1258,-6,1,0,1,6,1,3,1,-6,1,3,1,-12,1,-21,1,-16,1,-22,1,-17,1,-10,1
1259,-6,1,0,1,6,1,3,1,-6,1,3,1,-12,1,-22,1,-16,1,-22,1,-17,1,-10,1
1260,-6,1,1,1,7,1,2,1,-6,1,4,1,-12,1,-22,1,-16,1,-22,1,-17,1,-11,1
1261,-6,1,1,1,7,1,2,1,-6,1,4,1,-12,1,-23,1,-16,1,-22,1,-17,1,-11,1
1262,-6,1,1,1,7,1,2,1,-6,1,4,1,-12,1,-23,1,-16,1,-22,1,-17,1,-11,1
1263,-6,1,1,1,7,1,2,1,-6,1,4,1,-12,1,-23,1,-16,1,-23,1,-17,1,-11,1
1264,-6,1,1,1,7,1,2,1,-6,1,4,1,-13,1,-23,1,-16,1,-22,1,-17,1,-11,1
1265,-6,1,1,1,7,1,2,1,-6,1,4,1,-11,1,-22,1,-15,1,-22,1,-17,1,-11,1
1266,-7,1,1,1,8,1,3,1,-7,1,4,1,-11,1,-22,1,-15,1,-21,1,-17,1,-11,1
1267,-7,1,0,1,7,1,3,1,-7,1,3,1,-12,1,-23,1,-15,1,-21,1,-17,1,-11,1
1268,-7,1,0,1,7,1,3,1,-7,1,3,1,-12,1,-23,1,-15,1,-21,1,-17,1,-11,1
1269,-7,1,0,1,7,1,3,1,-7,1,3,1,-12,1,-23,1,-15,1,-21,1,-17,1,-12,1
1270,-6,1,0,1,6,1,3,1,-6,1,3,1,-12,1,-23,1,-15,1,-21,1,-17,1,-12,1
1271,-6,1,0,1,6,1,3,1,-6,1,3,1,-12,1,-24,1,-15,1,-22,1,-18,1,-12,1
1272,-5,1,0,1,5,1,2,1,-5,1,2,1,-12,1,-24,1,-15,1,-22,1,-18,1,-12,1
1273,-5,1,0,1,5,1,2,1,-5,1,2,1,-12,1,-24,1,-16,1,-23,1,-19,1,-11,1
1274,-5,1,0,1,5,1,2,1,-5,1,2,1,-12,1,-23,1,-16,1,-23,1,-17,1,-10,1
1275,-6,1,0,1,6,1,3,1,-6,1,3,1,-12,1,-23,1,-16,1,-23,1,-16,1,-10,1
1276,-6,1,0,1,6,1,3,1,-6,1,3,1,-12,1,-23,1,-16,1,-23,1,-15,1,-10,1
1277,-6,1,0,1,6,1,3,1,-6,1,3,1,-12,1,-24,1,-16,1,-23,1,-16,1,-10,1
1278,-6,1,0,1,6,1,3,1,-6,1,3,1,-11,1,-24,1,-16,1,-23,1,-16,1,-10,1
1279,-6,1,0,1,6,1,3,1,-6,1,3,1,-11,1,-24,1,-16,1,-22,1,-16,1,-11,1
1280,-5,1,0,1,5,1,2,1,-5,1,2,1,-11,1,-24,1,-16,1,-22,1,-17,1,-11,1
1281,-5,1,0,1,5,1,2,1,-5,1,2,1,-12,1,-24,1,-16,1,-23,1,-17,1,-11,1
1282,-4,1,0,1,4,1,2,1,-4,1,2,1,-11,1,-24,1,-16,1,-22,1,-17,1,-11,1
1283,-4,1,0,1,4,1,2,1,-4,1,2,1,-11,1,-23,1,-16,1,-22,1,-17,1,-11,1
1284,-4,1,0,1,4,1,2,1,-4,1,2,1,-12,1,-23,1,-16,1,-23,1,-17,1,-11,1
1285,-5,1,0,1,5,1,2,1,-5,1,2,1,-12,1,-23,1,-15,1,-23,1,-16,1,-11,1
1286,-6,1,0,1,6,1,3,1,-6,1,3,1,-12,1,-24,1,-15,1,-23,1,-16,1,-10,1
1287,-6,1,0,1,6,1,3,1,-6,1,3,1,-12,1,-24,1,-16,1,-23,1,-16,1,-10,1
1288,-6,1,0,1,6,1,3,1,-6,1,3,1,-12,1,-25,1,-15,1,-22,1,-16,1,-11,1
1289,-7,1,0,1,7,1,3,1,-7,1,3,1,-11,1,-24,1,-15,1,-22,1,-16,1,-11,1
1290,-6,1,-1,1,5,1,3,1,-6,1,2,1,-11,1,-25,1,-16,1,-23,1,-16,1,-11,1
1291,-6,1,-1,1,5,1,3,1,-6,1,2,1,-11,1,-24,1,-16,1,-23,1,-16,1,-11,1
1292,-5,1,-1,1,4,1,3,1,-5,1,1,1,-11,1,-23,1,-17,1,-23,1,-16,1,-11,1
1293,-5,1,0,1,5,1,2,1,-5,1,2,1,-12,1,-23,1,-17,1,-23,1,-16,1,-11,1
1294,-6,1,0,1,6,1,3,1,-6,1,3,1,-12,1,-23,1,-16,1,-23,1,-15,1,-10,1
1295,-6,1,0,1,6,1,3,1,-6,1,3,1,-11,1,-23,1,-16,1,-22,1,-15,1,-10,1
1296,-6,1,0,1,6,1,3,1,-6,1,3,1,-11,1,-23,1,-15,1,-22,1,-15,1,-10,1
1297,-5,1,0,1,5,1,2,1,-5,1,2,1,-11,1,-22,1,-15,1,-22,1,-15,1,-10,1
1298,-5,1,0,1,5,1,2,1,-5,1,2,1,-10,1,-22,1,-14,1,-21,1,-15,1,-10,1
1299,-4,1,0,1,4,1,2,1,-4,1,2,1,-9,1,-22,1,-14,1,-21,1,-15,1,-9,1
1300,-4,1,0,1,4,1,2,1,-4,1,2,1,-9,1,-22,1,-14,1,-22,1,-15,1,-9,1
1301,-4,1,0,1,4,1,2,1,-4,1,2,1,-9,1,-22,1,-14,1,-21,1,-15,1,-9,1
1302,-4,1,1,1,5,1,1,1,-4,1,3,1,-8,1,-21,1,-14,1,-21,1,-14,1,-9,1
1303,-4,1,1,1,5,1,1,1,-4,1,3,1,-8,1,-19,1,-14,1,-20,1,-14,1,-9,1
1304,-4,1,2,1,6,1,1,1,-5,1,4,1,-8,1,-18,1,-13,1,-19,1,-14,1,-8,1
1305,-3,1,3,1,6,1,0,1,-4,1,4,1,-7,1,-17,1,-12,1,-19,1,-14,1,-8,1
1306,-3,1,3,1,6,1,0,1,-4,1,4,1,-7,1,-17,1,-11,1,-18,1,-13,1,-8,1
1307,-3,1,4,1,7,1,0,1,-5,1,5,1,-7,1,-17,1,-11,1,-18,1,-13,1,-7,1
1308,-2,1,4,1,6,1,-1,1,-4,1,5,1,-6,1,-17,1,-11,1,-18,1,-12,1,-7,1
1309,-2,1,4,1,6,1,-1,1,-4,1,5,1,-5,1,-17,1,-11,1,-18,1,-12,1,-8,1
1310,-1,1,5,1,6,1,-2,1,-3,1,5,1,-4,1,-16,1,-11,1,-18,1,-12,1,-8,1
1311,-1,1,5,1,6,1,-2,1,-3,1,5,1,-3,1,-16,1,-11,1,-18,1,-13,1,-8,1
1312,-1,1,6,1,7,1,-2,1,-4,1,6,1,-2,1,-15,1,-11,1,-17,1,-13,1,-8,1
1313,-1,1,6,1,7,1,-2,1,-4,1,6,1,-2,1,-15,1,-11,1,-17,1,-13,1,-8,1
1314,-1,1,7,1,8,1,-3,1,-4,1,7,1,-3,1,-14,1,-10,1,-17,1,-12,1,-7,1
1315,-1,1,8,1,9,1,-3,1,-5,1,8,1,-2,1,-13,1,-9,1,-16,1,-11,1,-7,1
1316,0,1,8,1,8,1,-4,1,-4,1,8,1,-2,1,-12,1,-8,1,-15,1,-11,1,-7,1
1317,0,1,8,1,8,1,-4,1,-4,1,8,1,-3,1,-12,1,-8,1,-15,1,-10,1,-6,1
1318,0,1,7,1,7,1,-3,1,-3,1,7,1,-3,1,-12,1,-7,1,-14,1,-10,1,-6,1
1319,1,1,7,1,6,1,-4,1,-2,1,7,1,-2,1,-11,1,-7,1,-14,1,-10,1,-5,1
1320,1,1,8,1,7,1,-4,1,-3,1,8,1,-2,1,-11,1,-7,1,-14,1,-10,1,-5,1
1321,3,1,9,1,6,1,-6,1,-1,1,8,1,-2,1,-10,1,-7,1,-14,1,-10,1,-4,1
1322,3,1,10,1,7,1,-6,1,-2,1,9,1,-2,1,-10,1,-6,1,-12,1,-9,1,-4,1
1323,4,1,11,1,7,1,-7,1,-1,1,9,1,-3,1,-9,1,-6,1,-11,1,-9,1,-3,1
1324,5,1,12,1,7,1,-8,1,-1,1,10,1,-3,1,-7,1,-5,1,-10,1,-8,1,-2,1
1325,6,1,13,1,7,1,-9,1,0,1,10,1,-4,1,-6,1,-3,1,-9,1,-6,1,-1,1
1326,7,1,14,1,7,1,-10,1,0,1,11,1,-4,1,-5,1,-3,1,-9,1,-5,1,-1,1
1327,7,1,14,1,7,1,-10,1,0,1,11,1,-4,1,-5,1,-2,1,-8,1,-5,1,-1,1
1328,8,1,14,1,6,1,-11,1,1,1,10,1,-4,1,-4,1,-1,1,-8,1,-4,1,-1,1
1329,9,1,15,1,6,1,-12,1,2,1,11,1,-5,1,-4,1,0,1,-7,1,-4,1,0,1
1330,10,1,15,1,5,1,-12,1,3,1,10,1,-6,1,-4,1,0,1,-7,1,-4,1,0,1
1331,10,1,14,1,4,1,-12,1,3,1,9,1,-8,1,-4,1,-1,1,-7,1,-4,1,-1,1
1332,10,1,13,1,3,1,-11,1,4,1,8,1,-9,1,-5,1,-1,1,-7,1,-5,1,-1,1
1333,9,1,12,1,3,1,-10,1,3,1,8,1,-11,1,-6,1,-2,1,-8,1,-5,1,-1,1
1334,8,1,11,1,3,1,-9,1,3,1,7,1,-11,1,-8,1,-4,1,-9,1,-6,1,-2,1
1335,7,1,9,1,2,1,-8,1,3,1,6,1,-11,1,-9,1,-6,1,-9,1,-7,1,-2,1
1336,7,1,7,1,0,1,-7,1,4,1,4,1,-11,1,-10,1,-7,1,-10,1,-7,1,-3,1
1337,7,1,6,1,-1,1,-6,1,4,1,3,1,-12,1,-12,1,-8,1,-11,1,-9,1,-4,1
1338,7,1,5,1,-2,1,-6,1,5,1,2,1,-12,1,-13,1,-9,1,-11,1,-10,1,-5,1
1339,7,1,4,1,-3,1,-5,1,5,1,1,1,-12,1,-14,1,-9,1,-12,1,-10,1,-5,1
1340,6,1,4,1,-2,1,-5,1,4,1,1,1,-12,1,-15,1,-10,1,-14,1,-11,1,-5,1
1341,6,1,4,1,-2,1,-5,1,4,1,1,1,-13,1,-17,1,-12,1,-15,1,-11,1,-5,1
1342,5,1,3,1,-2,1,-4,1,4,1,1,1,-13,1,-18,1,-12,1,-15,1,-11,1,-6,1
1343,5,1,3,1,-2,1,-4,1,4,1,1,1,-14,1,-19,1,-13,1,-16,1,-12,1,-6,1
1344,5,1,2,1,-3,1,-3,1,4,1,0,1,-15,1,-20,1,-15,1,-17,1,-12,1,-7,1
1345,3,1,2,1,-1,1,-2,1,2,1,1,1,-15,1,-20,1,-15,1,-17,1,-12,1,-7,1
1346,2,1,1,1,-1,1,-1,1,2,1,0,1,-15,1,-21,1,-15,1,-17,1,-13,1,-7,1
1347,2,1,1,1,-1,1,-1,1,2,1,0,1,-15,1,-22,1,-16,1,-18,1,-14,1,-8,1
1348,0,1,0,1,0,1,0,1,0,1,0,1,-14,1,-23,1,-17,1,-20,1,-14,1,-9,1
1349,0,1,0,1,0,1,0,1,0,1,0,1,-13,1,-23,1,-17,1,-21,1,-15,1,-9,1
1350,-1,1,0,1,1,1,0,1,-1,1,0,1,-13,1,-23,1,-18,1,-22,1,-17,1,-10,1
1351,-2,1,0,1,2,1,1,1,-2,1,1,1,-13,1,-23,1,-18,1,-23,1,-18,1,-11,1
1352,-4,1,-1,1,3,1,2,1,-4,1,1,1,-12,1,-23,1,-19,1,-23,1,-19,1,-12,1
1353,-5,1,-2,1,3,1,3,1,-4,1,0,1,-12,1,-23,1,-19,1,-22,1,-19,1,-12,1
1354,-6,1,-2,1,4,1,4,1,-5,1,1,1,-12,1,-23,1,-18,1,-22,1,-19,1,-11,1
1355,-6,1,-2,1,4,1,4,1,-5,1,1,1,-12,1,-23,1,-17,1,-21,1,-18,1,-11,1
1356,-6,1,-3,1,3,1,4,1,-5,1,0,1,-12,1,-24,1,-17,1,-22,1,-18,1,-11,1
1357,-5,1,-3,1,2,1,4,1,-4,1,-1,1,-12,1,-24,1,-18,1,-23,1,-18,1,-11,1
1358,-5,1,-3,1,2,1,4,1,-4,1,-1,1,-12,1,-25,1,-19,1,-23,1,-18,1,-11,1
1359,-5,1,-3,1,2,1,4,1,-4,1,-1,1,-12,1,-25,1,-19,1,-23,1,-19,1,-11,1
1360,-6,1,-3,1,3,1,4,1,-5,1,0,1,-12,1,-26,1,-20,1,-23,1,-19,1,-11,1
1361,-5,1,-2,1,3,1,3,1,-4,1,0,1,-13,1,-27,1,-20,1,-23,1,-19,1,-12,1
1362,-5,1,-2,1,3,1,3,1,-4,1,0,1,-13,1,-27,1,-20,1,-22,1,-20,1,-12,1
1363,-6,1,-2,1,4,1,4,1,-5,1,1,1,-13,1,-27,1,-19,1,-22,1,-20,1,-12,1
1364,-6,1,-2,1,4,1,4,1,-5,1,1,1,-14,1,-28,1,-19,1,-22,1,-20,1,-12,1
1365,-6,1,-3,1,3,1,4,1,-5,1,0,1,-14,1,-27,1,-19,1,-22,1,-20,1,-12,1
1366,-7,1,-3,1,4,1,5,1,-6,1,0,1,-14,1,-26,1,-19,1,-22,1,-19,1,-12,1
1367,-8,1,-3,1,5,1,5,1,-7,1,1,1,-13,1,-26,1,-19,1,-23,1,-19,1,-12,1
1368,-8,1,-3,1,5,1,5,1,-7,1,1,1,-12,1,-25,1,-19,1,-23,1,-20,1,-11,1
1369,-8,1,-3,1,5,1,5,1,-7,1,1,1,-11,1,-25,1,-20,1,-23,1,-19,1,-11,1
1370,-7,1,-3,1,4,1,5,1,-6,1,0,1,-12,1,-25,1,-20,1,-22,1,-19,1,-11,1
1371,-7,1,-3,1,4,1,5,1,-6,1,0,1,-12,1,-25,1,-21,1,-22,1,-20,1,-11,1
1372,-7,1,-4,1,3,1,5,1,-5,1,-1,1,-12,1,-25,1,-20,1,-22,1,-20,1,-11,1
1373,-7,1,-3,1,4,1,5,1,-6,1,0,1,-12,1,-25,1,-20,1,-22,1,-20,1,-11,1
1374,-7,1,-3,1,4,1,5,1,-6,1,0,1,-13,1,-24,1,-20,1,-22,1,-20,1,-11,1
1375,-7,1,-2,1,5,1,4,1,-6,1,1,1,-13,1,-23,1,-19,1,-22,1,-20,1,-11,1
1376,-7,1,-2,1,5,1,4,1,-6,1,1,1,-13,1,-23,1,-18,1,-22,1,-20,1,-11,1
1377,-8,1,-1,1,7,1,4,1,-8,1,3,1,-13,1,-22,1,-18,1,-22,1,-19,1,-10,1
1378,-9,1,0,1,9,1,4,1,-9,1,4,1,-12,1,-20,1,-16,1,-21,1,-18,1,-9,1
1379,-10,1,2,1,12,1,4,1,-11,1,7,1,-10,1,-18,1,-13,1,-19,1,-17,1,-8,1
1380,-10,1,6,1,16,1,2,1,-13,1,11,1,-8,1,-13,1,-9,1,-17,1,-15,1,-6,1
1381,-9,1,8,1,17,1,0,1,-13,1,12,1,-6,1,-6,1,-3,1,-13,1,-12,1,-4,1
1382,-7,1,11,1,18,1,-2,1,-12,1,14,1,-3,1,2,1,5,1,-7,1,-7,1,-1,1
1383,-5,1,13,1,18,1,-4,1,-11,1,15,1,-1,1,12,1,14,1,0,1,-2,1,3,1
1384,-1,1,15,1,16,1,-7,1,-8,1,15,1,-1,1,24,1,24,1,9,1,4,1,7,1
1385,6,1,17,1,11,1,-11,1,-2,1,14,1,0,1,42,1,38,1,22,1,13,1,13,1
1386,17,1,21,1,4,1,-19,1,7,1,13,1,0,1,65,1,55,1,40,1,26,1,22,1
1387,32,1,28,1,-4,1,-30,1,18,1,12,1,-3,1,92,1,78,1,63,1,45,1,37,1
1388,49,1,38,1,-11,1,-43,1,30,1,14,1,-7,1,117,1,103,1,91,1,69,1,56,1
1389,68,1,50,1,-18,1,-59,1,43,1,16,1,-12,1,134,1,129,1,120,1,94,1,78,1
1390,86,1,61,1,-25,1,-73,1,56,1,18,1,-18,1,138,1,149,1,146,1,121,1,100,1
1391,101,1,71,1,-30,1,-86,1,66,1,21,1,-25,1,136,1,164,1,169,1,144,1,119,1
1392,115,1,77,1,-38,1,-96,1,77,1,20,1,-31,1,132,1,179,1,191,1,165,1,137,1
1393,127,1,84,1,-43,1,-105,1,85,1,21,1,-38,1,121,1,189,1,212,1,185,1,153,1
1394,140,1,89,1,-51,1,-114,1,96,1,19,1,-47,1,106,1,197,1,231,1,202,1,167,1
1395,154,1,88,1,-66,1,-121,1,110,1,11,1,-53,1,88,1,198,1,244,1,213,1,175,1
1396,166,1,80,1,-86,1,-123,1,126,1,-3,1,-59,1,67,1,189,1,243,1,210,1,172,1
1397,171,1,66,1,-105,1,-118,1,138,1,-19,1,-63,1,42,1,168,1,226,1,193,1,159,1
1398,169,1,52,1,-117,1,-110,1,143,1,-32,1,-64,1,9,1,138,1,196,1,168,1,140,1
1399,155,1,38,1,-117,1,-96,1,136,1,-39,1,-63,1,-34,1,96,1,154,1,134,1,114,1
1400,131,1,22,1,-109,1,-76,1,120,1,-43,1,-57,1,-82,1,45,1,98,1,89,1,79,1
1401,99,1,5,1,-94,1,-52,1,97,1,-44,1,-48,1,-129,1,-8,1,38,1,41,1,41,1
1402,62,1,-9,1,-71,1,-26,1,66,1,-40,1,-40,1,-176,1,-58,1,-17,1,-2,1,7,1
1403,24,1,-19,1,-43,1,-2,1,33,1,-31,1,-32,1,-220,1,-104,1,-66,1,-40,1,-22,1
1404,-9,1,-24,1,-15,1,16,1,3,1,-20,1,-27,1,-254,1,-139,1,-103,1,-69,1,-44,1
1405,-35,1,-25,1,10,1,30,1,-23,1,-8,1,-23,1,-275,1,-158,1,-125,1,-87,1,-57,1
1406,-54,1,-24,1,30,1,39,1,-42,1,3,1,-21,1,-284,1,-166,1,-135,1,-96,1,-62,1
1407,-65,1,-22,1,43,1,43,1,-54,1,10,1,-22,1,-286,1,-168,1,-137,1,-98,1,-63,1
1408,-69,1,-22,1,47,1,45,1,-58,1,12,1,-23,1,-281,1,-166,1,-136,1,-97,1,-61,1
1409,-70,1,-23,1,47,1,46,1,-59,1,12,1,-25,1,-269,1,-162,1,-133,1,-95,1,-60,1
1410,-69,1,-25,1,44,1,47,1,-57,1,9,1,-29,1,-252,1,-157,1,-129,1,-92,1,-58,1
1411,-65,1,-26,1,39,1,45,1,-52,1,6,1,-33,1,-231,1,-150,1,-123,1,-87,1,-57,1
1412,-58,1,-25,1,33,1,41,1,-46,1,4,1,-36,1,-207,1,-139,1,-114,1,-80,1,-54,1
1413,-50,1,-24,1,26,1,37,1,-38,1,1,1,-37,1,-179,1,-124,1,-101,1,-72,1,-49,1
1414,-41,1,-22,1,19,1,31,1,-30,1,-2,1,-35,1,-151,1,-106,1,-88,1,-63,1,-43,1
1415,-34,1,-18,1,16,1,26,1,-25,1,-1,1,-31,1,-123,1,-87,1,-72,1,-53,1,-37,1
1416,-27,1,-14,1,13,1,20,1,-20,1,-1,1,-26,1,-99,1,-69,1,-59,1,-45,1,-31,1
1417,-20,1,-10,1,10,1,15,1,-15,1,0,1,-22,1,-79,1,-54,1,-47,1,-37,1,-25,1
1418,-15,1,-6,1,9,1,10,1,-12,1,1,1,-18,1,-63,1,-41,1,-37,1,-29,1,-18,1
1419,-10,1,-2,1,8,1,6,1,-9,1,3,1,-15,1,-49,1,-30,1,-29,1,-22,1,-12,1
1420,-6,1,1,1,7,1,2,1,-6,1,4,1,-12,1,-39,1,-22,1,-24,1,-16,1,-8,1
1421,-2,1,3,1,5,1,0,1,-3,1,4,1,-11,1,-30,1,-17,1,-20,1,-12,1,-4,1
1422,0,1,5,1,5,1,-2,1,-2,1,5,1,-10,1,-22,1,-14,1,-17,1,-9,1,-2,1
1423,1,1,5,1,4,1,-3,1,-1,1,5,1,-10,1,-15,1,-11,1,-14,1,-7,1,-1,1
1424,3,1,5,1,2,1,-4,1,1,1,4,1,-10,1,-10,1,-8,1,-12,1,-6,1,-1,1
1425,3,1,4,1,1,1,-3,1,1,1,3,1,-9,1,-6,1,-6,1,-10,1,-5,1,-1,1
1426,4,1,3,1,-1,1,-3,1,3,1,1,1,-8,1,-2,1,-4,1,-9,1,-5,1,0,1
1427,4,1,3,1,-1,1,-3,1,3,1,1,1,-7,1,-1,1,-2,1,-7,1,-5,1,-1,1
1428,3,1,3,1,0,1,-3,1,2,1,2,1,-6,1,0,1,0,1,-6,1,-5,1,-1,1
1429,3,1,3,1,0,1,-3,1,2,1,2,1,-5,1,1,1,0,1,-6,1,-5,1,0,1
1430,3,1,3,1,0,1,-3,1,2,1,2,1,-5,1,2,1,1,1,-5,1,-4,1,0,1
1431,3,1,3,1,0,1,-3,1,2,1,2,1,-5,1,4,1,2,1,-4,1,-3,1,0,1
1432,4,1,4,1,0,1,-4,1,2,1,2,1,-5,1,6,1,3,1,-3,1,-2,1,1,1
1433,5,1,4,1,-1,1,-4,1,3,1,2,1,-5,1,8,1,3,1,-3,1,-2,1,1,1
1434,6,1,5,1,-1,1,-5,1,4,1,2,1,-6,1,9,1,3,1,-3,1,-2,1,2,1
1435,6,1,5,1,-1,1,-5,1,4,1,2,1,-6,1,10,1,4,1,-2,1,-2,1,2,1
1436,6,1,4,1,-2,1,-5,1,4,1,1,1,-6,1,11,1,5,1,-2,1,-2,1,2,1
1437,6,1,4,1,-2,1,-5,1,4,1,1,1,-6,1,12,1,6,1,-1,1,-1,1,2,1
1438,7,1,5,1,-2,1,-6,1,5,1,2,1,-5,1,13,1,6,1,0,1,-1,1,2,1
1439,8,1,5,1,-3,1,-6,1,6,1,1,1,-5,1,13,1,7,1,1,1,-1,1,3,1
1440,8,1,6,1,-2,1,-7,1,5,1,2,1,-5,1,13,1,7,1,1,1,-1,1,3,1
1441,9,1,6,1,-3,1,-7,1,6,1,2,1,-5,1,14,1,7,1,1,1,-1,1,3,1
1442,9,1,6,1,-3,1,-7,1,6,1,2,1,-5,1,15,1,8,1,2,1,0,1,3,1
1443,9,1,6,1,-3,1,-7,1,6,1,2,1,-5,1,16,1,9,1,2,1,0,1,4,1
1444,9,1,6,1,-3,1,-7,1,6,1,2,1,-6,1,17,1,9,1,3,1,0,1,4,1
1445,9,1,5,1,-4,1,-7,1,7,1,1,1,-6,1,18,1,10,1,3,1,1,1,5,1
1446,9,1,5,1,-4,1,-7,1,7,1,1,1,-6,1,20,1,10,1,4,1,2,1,5,1
1447,10,1,5,1,-5,1,-7,1,8,1,0,1,-6,1,20,1,10,1,4,1,3,1,5,1
1448,11,1,5,1,-6,1,-8,1,9,1,0,1,-5,1,21,1,11,1,5,1,4,1,5,1
1449,12,1,5,1,-7,1,-8,1,10,1,-1,1,-4,1,22,1,12,1,6,1,5,1,6,1
1450,12,1,6,1,-6,1,-9,1,9,1,0,1,-4,1,22,1,12,1,6,1,5,1,5,1
1451,13,1,6,1,-7,1,-9,1,10,1,0,1,-4,1,23,1,13,1,7,1,5,1,6,1
1452,13,1,6,1,-7,1,-9,1,10,1,0,1,-4,1,24,1,14,1,8,1,6,1,6,1
1453,13,1,6,1,-7,1,-9,1,10,1,0,1,-4,1,25,1,16,1,9,1,6,1,7,1
1454,14,1,6,1,-8,1,-10,1,11,1,-1,1,-4,1,26,1,17,1,10,1,7,1,7,1
1455,15,1,6,1,-9,1,-10,1,12,1,-1,1,-5,1,27,1,17,1,11,1,8,1,7,1
1456,15,1,6,1,-9,1,-10,1,12,1,-1,1,-6,1,28,1,18,1,11,1,8,1,7,1
1457,15,1,6,1,-9,1,-10,1,12,1,-1,1,-7,1,29,1,18,1,11,1,8,1,8,1
1458,15,1,6,1,-9,1,-10,1,12,1,-1,1,-7,1,30,1,18,1,11,1,8,1,8,1
1459,16,1,6,1,-10,1,-11,1,13,1,-2,1,-7,1,31,1,19,1,12,1,9,1,8,1
1460,17,1,7,1,-10,1,-12,1,14,1,-1,1,-7,1,31,1,19,1,12,1,9,1,8,1
1461,17,1,8,1,-9,1,-12,1,13,1,0,1,-6,1,33,1,19,1,13,1,10,1,8,1
1462,18,1,8,1,-10,1,-13,1,14,1,-1,1,-6,1,34,1,21,1,14,1,11,1,9,1
1463,19,1,8,1,-11,1,-13,1,15,1,-1,1,-7,1,35,1,22,1,15,1,11,1,10,1
1464,20,1,9,1,-11,1,-14,1,16,1,-1,1,-7,1,36,1,22,1,15,1,11,1,10,1
1465,20,1,9,1,-11,1,-14,1,16,1,-1,1,-8,1,37,1,23,1,16,1,12,1,11,1
1466,20,1,9,1,-11,1,-14,1,16,1,-1,1,-8,1,37,1,24,1,17,1,13,1,12,1
1467,21,1,10,1,-11,1,-15,1,16,1,0,1,-8,1,38,1,25,1,18,1,14,1,13,1
1468,21,1,10,1,-11,1,-15,1,16,1,0,1,-8,1,39,1,26,1,19,1,14,1,13,1
1469,22,1,11,1,-11,1,-16,1,17,1,0,1,-8,1,41,1,27,1,20,1,15,1,13,1
1470,23,1,11,1,-12,1,-17,1,18,1,0,1,-9,1,42,1,27,1,20,1,15,1,14,1
1471,24,1,12,1,-12,1,-18,1,18,1,0,1,-9,1,43,1,27,1,20,1,15,1,14,1
1472,25,1,13,1,-12,1,-19,1,19,1,1,1,-9,1,45,1,28,1,22,1,16,1,15,1
1473,26,1,13,1,-13,1,-19,1,20,1,0,1,-9,1,46,1,29,1,23,1,16,1,16,1
1474,28,1,13,1,-15,1,-20,1,22,1,-1,1,-10,1,47,1,29,1,23,1,17,1,17,1
1475,29,1,13,1,-16,1,-21,1,23,1,-1,1,-11,1,48,1,30,1,24,1,18,1,18,1
1476,30,1,13,1,-17,1,-21,1,24,1,-2,1,-12,1,50,1,32,1,25,1,19,1,19,1
1477,30,1,13,1,-17,1,-21,1,24,1,-2,1,-12,1,51,1,33,1,26,1,20,1,19,1
1478,31,1,14,1,-17,1,-22,1,24,1,-1,1,-13,1,53,1,34,1,27,1,21,1,19,1
1479,32,1,15,1,-17,1,-23,1,25,1,-1,1,-13,1,54,1,35,1,28,1,23,1,19,1
1480,33,1,16,1,-17,1,-24,1,25,1,0,1,-14,1,54,1,35,1,29,1,24,1,19,1
1481,34,1,16,1,-18,1,-25,1,26,1,-1,1,-14,1,55,1,36,1,30,1,24,1,20,1
1482,35,1,17,1,-18,1,-26,1,27,1,0,1,-14,1,56,1,37,1,31,1,25,1,21,1
1483,36,1,17,1,-19,1,-26,1,28,1,-1,1,-15,1,57,1,37,1,31,1,26,1,22,1
1484,37,1,18,1,-19,1,-27,1,28,1,0,1,-15,1,59,1,38,1,32,1,27,1,23,1
1485,38,1,17,1,-21,1,-27,1,30,1,-2,1,-16,1,60,1,40,1,33,1,28,1,24,1
1486,39,1,17,1,-22,1,-28,1,31,1,-2,1,-16,1,62,1,41,1,34,1,29,1,24,1
1487,41,1,18,1,-23,1,-29,1,32,1,-2,1,-18,1,63,1,42,1,35,1,29,1,25,1
1488,42,1,18,1,-24,1,-30,1,33,1,-3,1,-18,1,64,1,43,1,36,1,30,1,26,1
1489,43,1,18,1,-25,1,-30,1,34,1,-3,1,-19,1,66,1,44,1,38,1,31,1,27,1
1490,45,1,19,1,-26,1,-32,1,36,1,-3,1,-19,1,67,1,45,1,39,1,32,1,28,1
1491,47,1,20,1,-27,1,-33,1,37,1,-3,1,-20,1,69,1,45,1,40,1,32,1,29,1
1492,48,1,21,1,-27,1,-34,1,38,1,-3,1,-20,1,71,1,47,1,41,1,33,1,29,1
1493,49,1,21,1,-28,1,-35,1,39,1,-3,1,-20,1,73,1,48,1,42,1,33,1,30,1
1494,50,1,22,1,-28,1,-36,1,39,1,-3,1,-21,1,74,1,49,1,42,1,34,1,30,1
1495,51,1,22,1,-29,1,-36,1,40,1,-3,1,-22,1,76,1,50,1,43,1,35,1,30,1
1496,52,1,23,1,-29,1,-37,1,41,1,-3,1,-23,1,78,1,51,1,44,1,36,1,31,1
1497,53,1,23,1,-30,1,-38,1,42,1,-3,1,-24,1,79,1,51,1,44,1,36,1,31,1
1498,54,1,23,1,-31,1,-38,1,43,1,-4,1,-25,1,80,1,52,1,45,1,37,1,32,1
1499,56,1,24,1,-32,1,-40,1,44,1,-4,1,-25,1,81,1,53,1,46,1,38,1,32,1
1500,58,1,24,1,-34,1,-41,1,46,1,-5,1,-26,1,81,1,54,1,47,1,39,1,33,1
1501,59,1,24,1,-35,1,-41,1,47,1,-5,1,-27,1,82,1,55,1,48,1,39,1,33,1
1502,60,1,25,1,-35,1,-42,1,48,1,-5,1,-27,1,83,1,56,1,49,1,40,1,34,1
1503,61,1,26,1,-35,1,-43,1,48,1,-4,1,-27,1,84,1,57,1,50,1,41,1,35,1
1504,62,1,27,1,-35,1,-44,1,49,1,-4,1,-28,1,85,1,57,1,51,1,41,1,36,1
1505,62,1,27,1,-35,1,-44,1,49,1,-4,1,-28,1,86,1,58,1,51,1,42,1,37,1
1506,62,1,27,1,-35,1,-44,1,49,1,-4,1,-28,1,87,1,58,1,52,1,42,1,37,1
1507,62,1,27,1,-35,1,-44,1,49,1,-4,1,-28,1,88,1,57,1,52,1,42,1,37,1
1508,63,1,27,1,-36,1,-45,1,50,1,-4,1,-28,1,88,1,57,1,52,1,42,1,36,1
1509,64,1,27,1,-37,1,-45,1,51,1,-5,1,-28,1,88,1,57,1,52,1,43,1,36,1
1510,64,1,28,1,-36,1,-46,1,50,1,-4,1,-28,1,87,1,57,1,52,1,42,1,36,1
1511,65,1,28,1,-37,1,-46,1,51,1,-4,1,-28,1,87,1,57,1,52,1,42,1,35,1
1512,65,1,28,1,-37,1,-46,1,51,1,-4,1,-28,1,86,1,57,1,51,1,42,1,35,1
1513,65,1,28,1,-37,1,-46,1,51,1,-4,1,-28,1,86,1,56,1,50,1,41,1,35,1
1514,64,1,27,1,-37,1,-45,1,51,1,-5,1,-29,1,85,1,55,1,49,1,41,1,36,1
1515,63,1,26,1,-37,1,-44,1,50,1,-5,1,-28,1,84,1,55,1,50,1,40,1,36,1
1516,63,1,26,1,-37,1,-44,1,50,1,-5,1,-29,1,84,1,54,1,49,1,40,1,36,1
1517,63,1,26,1,-37,1,-44,1,50,1,-5,1,-29,1,82,1,52,1,49,1,39,1,36,1
1518,62,1,25,1,-37,1,-43,1,50,1,-6,1,-29,1,81,1,52,1,48,1,38,1,35,1
1519,61,1,24,1,-37,1,-42,1,49,1,-6,1,-28,1,79,1,51,1,47,1,37,1,33,1
1520,60,1,24,1,-36,1,-42,1,48,1,-6,1,-27,1,78,1,49,1,45,1,36,1,31,1
1521,59,1,23,1,-36,1,-41,1,48,1,-6,1,-26,1,76,1,48,1,43,1,35,1,30,1
1522,59,1,22,1,-37,1,-40,1,48,1,-7,1,-24,1,75,1,48,1,42,1,35,1,29,1
1523,58,1,21,1,-37,1,-39,1,48,1,-8,1,-24,1,73,1,46,1,41,1,34,1,28,1
1524,56,1,20,1,-36,1,-38,1,46,1,-8,1,-23,1,71,1,44,1,39,1,33,1,28,1
1525,54,1,19,1,-35,1,-36,1,45,1,-8,1,-22,1,69,1,42,1,38,1,32,1,27,1
1526,52,1,19,1,-33,1,-35,1,43,1,-7,1,-22,1,67,1,40,1,36,1,30,1,26,1
1527,50,1,18,1,-32,1,-34,1,41,1,-7,1,-22,1,64,1,38,1,34,1,28,1,25,1
1528,48,1,17,1,-31,1,-32,1,40,1,-7,1,-21,1,61,1,36,1,32,1,27,1,24,1
1529,45,1,17,1,-28,1,-31,1,37,1,-5,1,-21,1,58,1,34,1,30,1,25,1,23,1
1530,43,1,16,1,-27,1,-29,1,35,1,-5,1,-20,1,55,1,32,1,28,1,23,1,22,1
1531,41,1,16,1,-25,1,-28,1,33,1,-4,1,-19,1,52,1,31,1,27,1,22,1,20,1
1532,39,1,14,1,-25,1,-26,1,32,1,-5,1,-18,1,50,1,30,1,25,1,20,1,18,1
1533,37,1,14,1,-23,1,-25,1,30,1,-4,1,-17,1,48,1,28,1,24,1,19,1,17,1
1534,36,1,13,1,-23,1,-24,1,30,1,-5,1,-16,1,45,1,26,1,22,1,18,1,16,1
1535,34,1,12,1,-22,1,-23,1,28,1,-5,1,-15,1,43,1,25,1,20,1,16,1,16,1
1536,32,1,12,1,-20,1,-22,1,26,1,-4,1,-14,1,40,1,24,1,18,1,15,1,15,1
1537,29,1,11,1,-18,1,-20,1,24,1,-3,1,-14,1,37,1,22,1,15,1,13,1,14,1
1538,27,1,10,1,-17,1,-18,1,22,1,-3,1,-13,1,34,1,20,1,13,1,12,1,13,1
1539,25,1,9,1,-16,1,-17,1,21,1,-3,1,-12,1,32,1,19,1,13,1,10,1,11,1
1540,22,1,9,1,-13,1,-15,1,18,1,-2,1,-11,1,29,1,16,1,11,1,9,1,10,1
1541,19,1,8,1,-11,1,-13,1,15,1,-1,1,-10,1,27,1,14,1,10,1,7,1,9,1
1542,17,1,7,1,-10,1,-12,1,14,1,-1,1,-9,1,25,1,12,1,8,1,6,1,8,1
1543,16,1,6,1,-10,1,-11,1,13,1,-2,1,-9,1,23,1,11,1,6,1,5,1,7,1
1544,14,1,6,1,-8,1,-10,1,11,1,-1,1,-9,1,20,1,10,1,5,1,3,1,6,1
1545,13,1,5,1,-8,1,-9,1,11,1,-1,1,-8,1,17,1,8,1,4,1,2,1,5,1
1546,11,1,5,1,-6,1,-8,1,9,1,0,1,-8,1,15,1,7,1,3,1,1,1,4,1
1547,9,1,4,1,-5,1,-6,1,7,1,0,1,-7,1,13,1,6,1,2,1,0,1,3,1
1548,8,1,4,1,-4,1,-6,1,6,1,0,1,-8,1,11,1,4,1,0,1,-1,1,2,1
1549,6,1,3,1,-3,1,-4,1,5,1,0,1,-8,1,9,1,3,1,-1,1,-2,1,1,1
1550,5,1,2,1,-3,1,-3,1,4,1,0,1,-8,1,7,1,2,1,-3,1,-4,1,0,1
1551,4,1,1,1,-3,1,-2,1,4,1,-1,1,-8,1,5,1,1,1,-5,1,-5,1,-1,1
1552,3,1,1,1,-2,1,-2,1,3,1,0,1,-7,1,5,1,0,1,-6,1,-6,1,-1,1
1553,2,1,0,1,-2,1,-1,1,2,1,-1,1,-6,1,3,1,-1,1,-6,1,-6,1,-2,1
1554,1,1,0,1,-1,1,0,1,1,1,0,1,-6,1,1,1,-2,1,-7,1,-8,1,-2,1
1555,0,1,-1,1,-1,1,0,1,0,1,-1,1,-5,1,0,1,-2,1,-8,1,-8,1,-3,1
1556,0,1,-2,1,-2,1,1,1,1,1,-2,1,-5,1,-1,1,-3,1,-8,1,-9,1,-3,1
1557,-1,1,-3,1,-2,1,2,1,0,1,-3,1,-6,1,-3,1,-4,1,-8,1,-9,1,-4,1
1558,-2,1,-3,1,-1,1,2,1,-1,1,-2,1,-6,1,-4,1,-5,1,-9,1,-10,1,-5,1
1559,-3,1,-3,1,0,1,3,1,-2,1,-2,1,-6,1,-5,1,-5,1,-10,1,-10,1,-5,1
1560,-3,1,-3,1,0,1,3,1,-2,1,-2,1,-7,1,-6,1,-5,1,-11,1,-10,1,-5,1
1561,-4,1,-2,1,2,1,3,1,-3,1,0,1,-8,1,-7,1,-6,1,-12,1,-11,1,-5,1
1562,-4,1,-2,1,2,1,3,1,-3,1,0,1,-7,1,-7,1,-6,1,-12,1,-11,1,-5,1
1563,-5,1,-1,1,4,1,3,1,-5,1,1,1,-7,1,-8,1,-7,1,-12,1,-11,1,-5,1
1564,-5,1,-1,1,4,1,3,1,-5,1,1,1,-7,1,-9,1,-7,1,-13,1,-12,1,-6,1
1565,-6,1,-2,1,4,1,4,1,-5,1,1,1,-6,1,-10,1,-8,1,-13,1,-13,1,-7,1
1566,-6,1,-3,1,3,1,4,1,-5,1,0,1,-6,1,-11,1,-8,1,-13,1,-13,1,-7,1
1567,-7,1,-3,1,4,1,5,1,-6,1,0,1,-6,1,-11,1,-8,1,-13,1,-13,1,-7,1
1568,-7,1,-4,1,3,1,5,1,-5,1,-1,1,-6,1,-12,1,-9,1,-14,1,-14,1,-7,1
1569,-7,1,-4,1,3,1,5,1,-5,1,-1,1,-7,1,-12,1,-9,1,-14,1,-14,1,-7,1
1570,-6,1,-3,1,3,1,4,1,-5,1,0,1,-7,1,-13,1,-9,1,-14,1,-14,1,-7,1
1571,-5,1,-4,1,1,1,4,1,-3,1,-2,1,-7,1,-13,1,-10,1,-15,1,-15,1,-7,1
1572,-5,1,-4,1,1,1,4,1,-3,1,-2,1,-7,1,-13,1,-10,1,-15,1,-15,1,-7,1
1573,-5,1,-4,1,1,1,4,1,-3,1,-2,1,-6,1,-13,1,-10,1,-15,1,-15,1,-7,1
1574,-5,1,-4,1,1,1,4,1,-3,1,-2,1,-6,1,-13,1,-10,1,-15,1,-16,1,-7,1
1575,-6,1,-4,1,2,1,5,1,-4,1,-1,1,-5,1,-13,1,-10,1,-15,1,-16,1,-7,1
1576,-7,1,-5,1,2,1,6,1,-5,1,-2,1,-5,1,-13,1,-11,1,-16,1,-16,1,-7,1
1577,-7,1,-5,1,2,1,6,1,-5,1,-2,1,-4,1,-14,1,-11,1,-16,1,-16,1,-8,1
1578,-8,1,-5,1,3,1,6,1,-6,1,-1,1,-4,1,-14,1,-11,1,-16,1,-16,1,-8,1
1579,-8,1,-5,1,3,1,6,1,-6,1,-1,1,-4,1,-14,1,-11,1,-16,1,-16,1,-8,1
1580,-8,1,-4,1,4,1,6,1,-6,1,0,1,-5,1,-14,1,-11,1,-16,1,-16,1,-9,1
1581,-7,1,-4,1,3,1,5,1,-5,1,-1,1,-5,1,-14,1,-11,1,-16,1,-15,1,-9,1
1582,-6,1,-4,1,2,1,5,1,-4,1,-1,1,-6,1,-13,1,-10,1,-16,1,-15,1,-9,1
1583,-6,1,-3,1,3,1,4,1,-5,1,0,1,-5,1,-13,1,-10,1,-16,1,-15,1,-8,1
1584,-6,1,-3,1,3,1,4,1,-5,1,0,1,-5,1,-13,1,-10,1,-16,1,-15,1,-7,1
1585,-6,1,-4,1,2,1,5,1,-4,1,-1,1,-5,1,-13,1,-10,1,-16,1,-15,1,-7,1
1586,-6,1,-4,1,2,1,5,1,-4,1,-1,1,-5,1,-13,1,-10,1,-16,1,-15,1,-7,1
1587,-6,1,-4,1,2,1,5,1,-4,1,-1,1,-5,1,-13,1,-10,1,-16,1,-15,1,-7,1
1588,-6,1,-4,1,2,1,5,1,-4,1,-1,1,-5,1,-13,1,-10,1,-15,1,-15,1,-6,1
1589,-7,1,-4,1,3,1,5,1,-5,1,-1,1,-5,1,-12,1,-10,1,-15,1,-15,1,-6,1
1590,-7,1,-4,1,3,1,5,1,-5,1,-1,1,-5,1,-12,1,-9,1,-15,1,-15,1,-7,1
1591,-7,1,-4,1,3,1,5,1,-5,1,-1,1,-5,1,-12,1,-9,1,-16,1,-15,1,-7,1
1592,-6,1,-4,1,2,1,5,1,-4,1,-1,1,-4,1,-12,1,-9,1,-16,1,-15,1,-7,1
1593,-6,1,-4,1,2,1,5,1,-4,1,-1,1,-4,1,-12,1,-9,1,-16,1,-15,1,-7,1
1594,-6,1,-4,1,2,1,5,1,-4,1,-1,1,-4,1,-12,1,-10,1,-16,1,-15,1,-8,1
1595,-6,1,-4,1,2,1,5,1,-4,1,-1,1,-4,1,-12,1,-9,1,-15,1,-15,1,-8,1
1596,-6,1,-4,1,2,1,5,1,-4,1,-1,1,-4,1,-11,1,-9,1,-15,1,-15,1,-7,1
1597,-6,1,-4,1,2,1,5,1,-4,1,-1,1,-4,1,-11,1,-9,1,-15,1,-15,1,-7,1
1598,-6,1,-4,1,2,1,5,1,-4,1,-1,1,-5,1,-11,1,-8,1,-15,1,-15,1,-7,1
1599,-6,1,-4,1,2,1,5,1,-4,1,-1,1,-5,1,-10,1,-7,1,-15,1,-14,1,-6,1
1600,-5,1,-4,1,1,1,4,1,-3,1,-2,1,-6,1,-10,1,-8,1,-15,1,-15,1,-6,1
1601,-4,1,-4,1,0,1,4,1,-2,1,-2,1,-6,1,-10,1,-7,1,-15,1,-15,1,-5,1
1602,-4,1,-4,1,0,1,4,1,-2,1,-2,1,-6,1,-9,1,-7,1,-14,1,-14,1,-5,1
1603,-3,1,-3,1,0,1,3,1,-2,1,-2,1,-5,1,-8,1,-7,1,-13,1,-14,1,-5,1
1604,-3,1,-3,1,0,1,3,1,-2,1,-2,1,-5,1,-8,1,-7,1,-13,1,-14,1,-5,1
1605,-4,1,-3,1,1,1,3,1,-3,1,-1,1,-5,1,-7,1,-7,1,-12,1,-13,1,-6,1
1606,-4,1,-4,1,0,1,4,1,-2,1,-2,1,-5,1,-6,1,-7,1,-12,1,-13,1,-6,1
1607,-4,1,-4,1,0,1,4,1,-2,1,-2,1,-5,1,-6,1,-7,1,-13,1,-14,1,-6,1
1608,-4,1,-4,1,0,1,4,1,-2,1,-2,1,-5,1,-5,1,-6,1,-13,1,-13,1,-6,1
1609,-5,1,-4,1,1,1,4,1,-3,1,-2,1,-4,1,-5,1,-6,1,-12,1,-13,1,-6,1
1610,-5,1,-4,1,1,1,4,1,-3,1,-2,1,-4,1,-5,1,-6,1,-12,1,-12,1,-6,1
1611,-5,1,-4,1,1,1,4,1,-3,1,-2,1,-4,1,-5,1,-5,1,-12,1,-12,1,-5,1
1612,-5,1,-4,1,1,1,4,1,-3,1,-2,1,-5,1,-5,1,-4,1,-12,1,-12,1,-5,1
1613,-5,1,-5,1,0,1,5,1,-3,1,-3,1,-5,1,-5,1,-4,1,-12,1,-12,1,-5,1
1614,-5,1,-5,1,0,1,5,1,-3,1,-3,1,-5,1,-6,1,-4,1,-12,1,-12,1,-5,1
1615,-4,1,-5,1,-1,1,4,1,-2,1,-3,1,-5,1,-5,1,-4,1,-12,1,-12,1,-4,1
1616,-4,1,-5,1,-1,1,4,1,-2,1,-3,1,-5,1,-5,1,-4,1,-12,1,-12,1,-4,1
1617,-4,1,-5,1,-1,1,4,1,-2,1,-3,1,-6,1,-4,1,-4,1,-12,1,-12,1,-5,1
1618,-4,1,-5,1,-1,1,4,1,-2,1,-3,1,-5,1,-4,1,-4,1,-12,1,-12,1,-6,1
1619,-4,1,-5,1,-1,1,4,1,-2,1,-3,1,-5,1,-3,1,-4,1,-12,1,-12,1,-6,1
1620,-3,1,-5,1,-2,1,4,1,-1,1,-4,1,-5,1,-3,1,-4,1,-12,1,-12,1,-6,1
1621,-3,1,-4,1,-1,1,3,1,-1,1,-3,1,-5,1,-3,1,-4,1,-12,1,-12,1,-6,1
1622,-3,1,-4,1,-1,1,3,1,-1,1,-3,1,-5,1,-3,1,-4,1,-12,1,-12,1,-5,1
1623,-3,1,-4,1,-1,1,3,1,-1,1,-3,1,-5,1,-3,1,-5,1,-12,1,-12,1,-4,1
1624,-3,1,-4,1,-1,1,3,1,-1,1,-3,1,-5,1,-4,1,-5,1,-12,1,-13,1,-4,1
1625,-3,1,-4,1,-1,1,3,1,-1,1,-3,1,-6,1,-4,1,-5,1,-12,1,-13,1,-4,1
1626,-3,1,-4,1,-1,1,3,1,-1,1,-3,1,-6,1,-4,1,-5,1,-12,1,-13,1,-4,1
1627,-3,1,-4,1,-1,1,3,1,-1,1,-3,1,-6,1,-4,1,-5,1,-12,1,-14,1,-4,1
1628,-3,1,-4,1,-1,1,3,1,-1,1,-3,1,-6,1,-4,1,-5,1,-12,1,-13,1,-4,1
1629,-4,1,-5,1,-1,1,4,1,-2,1,-3,1,-5,1,-4,1,-5,1,-12,1,-13,1,-4,1
1630,-4,1,-4,1,0,1,4,1,-2,1,-2,1,-5,1,-4,1,-5,1,-13,1,-13,1,-4,1
1631,-4,1,-4,1,0,1,4,1,-2,1,-2,1,-5,1,-4,1,-7,1,-13,1,-13,1,-5,1
1632,-4,1,-4,1,0,1,4,1,-2,1,-2,1,-5,1,-4,1,-7,1,-13,1,-13,1,-5,1
1633,-4,1,-3,1,1,1,3,1,-3,1,-1,1,-5,1,-5,1,-7,1,-14,1,-13,1,-5,1
1634,-4,1,-3,1,1,1,3,1,-3,1,-1,1,-6,1,-6,1,-8,1,-14,1,-13,1,-5,1
1635,-5,1,-4,1,1,1,4,1,-3,1,-2,1,-6,1,-7,1,-8,1,-14,1,-13,1,-5,1
1636,-4,1,-4,1,0,1,4,1,-2,1,-2,1,-6,1,-7,1,-8,1,-14,1,-13,1,-5,1
1637,-4,1,-4,1,0,1,4,1,-2,1,-2,1,-6,1,-8,1,-8,1,-14,1,-13,1,-6,1
1638,-4,1,-5,1,-1,1,4,1,-2,1,-3,1,-6,1,-8,1,-8,1,-14,1,-13,1,-6,1
1639,-5,1,-5,1,0,1,5,1,-3,1,-3,1,-6,1,-8,1,-9,1,-14,1,-13,1,-6,1
1640,-5,1,-5,1,0,1,5,1,-3,1,-3,1,-6,1,-9,1,-9,1,-15,1,-14,1,-6,1
1641,-5,1,-6,1,-1,1,5,1,-2,1,-4,1,-5,1,-9,1,-10,1,-15,1,-14,1,-7,1
1642,-5,1,-6,1,-1,1,5,1,-2,1,-4,1,-5,1,-10,1,-10,1,-15,1,-14,1,-6,1
1643,-5,1,-5,1,0,1,5,1,-3,1,-3,1,-6,1,-11,1,-10,1,-15,1,-14,1,-6,1
1644,-5,1,-5,1,0,1,5,1,-3,1,-3,1,-6,1,-12,1,-11,1,-15,1,-15,1,-6,1
1645,-5,1,-5,1,0,1,5,1,-3,1,-3,1,-6,1,-11,1,-11,1,-15,1,-15,1,-5,1
1646,-6,1,-6,1,0,1,6,1,-3,1,-3,1,-6,1,-11,1,-12,1,-15,1,-15,1,-5,1
1647,-6,1,-6,1,0,1,6,1,-3,1,-3,1,-6,1,-11,1,-12,1,-15,1,-15,1,-5,1
1648,-6,1,-6,1,0,1,6,1,-3,1,-3,1,-6,1,-10,1,-11,1,-15,1,-15,1,-5,1
1649,-6,1,-5,1,1,1,5,1,-4,1,-2,1,-6,1,-10,1,-11,1,-15,1,-15,1,-5,1
1650,-6,1,-5,1,1,1,5,1,-4,1,-2,1,-7,1,-11,1,-12,1,-16,1,-15,1,-6,1
1651,-6,1,-5,1,1,1,5,1,-4,1,-2,1,-7,1,-12,1,-11,1,-16,1,-15,1,-6,1
1652,-6,1,-5,1,1,1,5,1,-4,1,-2,1,-6,1,-12,1,-11,1,-15,1,-15,1,-6,1
1653,-6,1,-5,1,1,1,5,1,-4,1,-2,1,-6,1,-13,1,-12,1,-15,1,-15,1,-6,1
1654,-6,1,-6,1,0,1,6,1,-3,1,-3,1,-6,1,-13,1,-12,1,-16,1,-15,1,-7,1
1655,-7,1,-6,1,1,1,6,1,-4,1,-3,1,-7,1,-13,1,-13,1,-16,1,-15,1,-7,1
1656,-7,1,-7,1,0,1,7,1,-4,1,-4,1,-7,1,-13,1,-13,1,-16,1,-15,1,-7,1
1657,-7,1,-7,1,0,1,7,1,-4,1,-4,1,-7,1,-13,1,-13,1,-16,1,-15,1,-7,1
1658,-7,1,-7,1,0,1,7,1,-4,1,-4,1,-7,1,-13,1,-13,1,-17,1,-15,1,-7,1
1659,-7,1,-7,1,0,1,7,1,-4,1,-4,1,-6,1,-13,1,-13,1,-17,1,-15,1,-7,1
1660,-7,1,-6,1,1,1,6,1,-4,1,-3,1,-6,1,-13,1,-13,1,-17,1,-15,1,-7,1
1661,-7,1,-6,1,1,1,6,1,-4,1,-3,1,-7,1,-14,1,-14,1,-17,1,-16,1,-7,1
1662,-7,1,-6,1,1,1,6,1,-4,1,-3,1,-7,1,-15,1,-14,1,-17,1,-16,1,-7,1
1663,-7,1,-6,1,1,1,6,1,-4,1,-3,1,-7,1,-15,1,-15,1,-17,1,-16,1,-7,1
1664,-8,1,-6,1,2,1,7,1,-5,1,-2,1,-8,1,-16,1,-15,1,-17,1,-16,1,-8,1
1665,-8,1,-6,1,2,1,7,1,-5,1,-2,1,-7,1,-16,1,-14,1,-17,1,-16,1,-8,1
1666,-8,1,-7,1,1,1,7,1,-5,1,-3,1,-7,1,-16,1,-14,1,-17,1,-16,1,-8,1
1667,-7,1,-7,1,0,1,7,1,-4,1,-4,1,-7,1,-17,1,-14,1,-17,1,-16,1,-8,1
1668,-7,1,-6,1,1,1,6,1,-4,1,-3,1,-7,1,-17,1,-14,1,-17,1,-16,1,-7,1
1669,-7,1,-6,1,1,1,6,1,-4,1,-3,1,-6,1,-17,1,-13,1,-17,1,-16,1,-7,1
1670,-7,1,-6,1,1,1,6,1,-4,1,-3,1,-7,1,-17,1,-14,1,-18,1,-17,1,-7,1
1671,-7,1,-6,1,1,1,6,1,-4,1,-3,1,-7,1,-17,1,-15,1,-19,1,-17,1,-8,1
1672,-7,1,-6,1,1,1,6,1,-4,1,-3,1,-7,1,-17,1,-15,1,-18,1,-17,1,-7,1
1673,-8,1,-6,1,2,1,7,1,-5,1,-2,1,-8,1,-17,1,-15,1,-18,1,-17,1,-7,1
1674,-8,1,-6,1,2,1,7,1,-5,1,-2,1,-9,1,-17,1,-16,1,-18,1,-17,1,-7,1
1675,-8,1,-6,1,2,1,7,1,-5,1,-2,1,-9,1,-17,1,-15,1,-18,1,-16,1,-7,1
1676,-9,1,-7,1,2,1,8,1,-6,1,-3,1,-9,1,-17,1,-15,1,-17,1,-16,1,-7,1
1677,-9,1,-7,1,2,1,8,1,-6,1,-3,1,-9,1,-18,1,-15,1,-17,1,-16,1,-7,1
1678,-9,1,-7,1,2,1,8,1,-6,1,-3,1,-9,1,-18,1,-15,1,-16,1,-15,1,-7,1
1679,-8,1,-7,1,1,1,7,1,-5,1,-3,1,-8,1,-18,1,-14,1,-16,1,-15,1,-7,1
1680,-7,1,-6,1,1,1,6,1,-4,1,-3,1,-8,1,-18,1,-14,1,-16,1,-15,1,-6,1
1681,-7,1,-6,1,1,1,6,1,-4,1,-3,1,-8,1,-18,1,-14,1,-16,1,-16,1,-6,1
1682,-7,1,-6,1,1,1,6,1,-4,1,-3,1,-8,1,-18,1,-14,1,-16,1,-16,1,-6,1
1683,-7,1,-6,1,1,1,6,1,-4,1,-3,1,-8,1,-18,1,-14,1,-16,1,-16,1,-6,1
1684,-7,1,-6,1,1,1,6,1,-4,1,-3,1,-8,1,-18,1,-15,1,-16,1,-17,1,-6,1
1685,-7,1,-5,1,2,1,6,1,-5,1,-2,1,-9,1,-18,1,-14,1,-17,1,-16,1,-6,1
1686,-8,1,-6,1,2,1,7,1,-5,1,-2,1,-9,1,-18,1,-14,1,-17,1,-16,1,-6,1
1687,-8,1,-6,1,2,1,7,1,-5,1,-2,1,-9,1,-18,1,-14,1,-16,1,-16,1,-6,1
1688,-8,1,-6,1,2,1,7,1,-5,1,-2,1,-9,1,-18,1,-14,1,-16,1,-16,1,-6,1
1689,-8,1,-6,1,2,1,7,1,-5,1,-2,1,-9,1,-18,1,-14,1,-16,1,-16,1,-6,1
1690,-7,1,-5,1,2,1,6,1,-5,1,-2,1,-9,1,-18,1,-14,1,-17,1,-16,1,-7,1
1691,-7,1,-5,1,2,1,6,1,-5,1,-2,1,-9,1,-19,1,-14,1,-17,1,-17,1,-7,1
1692,-7,1,-4,1,3,1,5,1,-5,1,-1,1,-8,1,-19,1,-14,1,-16,1,-16,1,-7,1
1693,-7,1,-5,1,2,1,6,1,-5,1,-2,1,-8,1,-19,1,-15,1,-16,1,-16,1,-7,1
1694,-7,1,-5,1,2,1,6,1,-5,1,-2,1,-9,1,-19,1,-15,1,-16,1,-16,1,-7,1
1695,-8,1,-6,1,2,1,7,1,-5,1,-2,1,-9,1,-19,1,-15,1,-16,1,-16,1,-6,1
1696,-9,1,-6,1,3,1,7,1,-6,1,-2,1,-9,1,-19,1,-15,1,-16,1,-16,1,-7,1
1697,-9,1,-7,1,2,1,8,1,-6,1,-3,1,-9,1,-19,1,-15,1,-17,1,-17,1,-7,1
1698,-9,1,-6,1,3,1,7,1,-6,1,-2,1,-8,1,-19,1,-14,1,-17,1,-17,1,-7,1
1699,-8,1,-6,1,2,1,7,1,-5,1,-2,1,-7,1,-19,1,-14,1,-17,1,-17,1,-7,1
1700,-8,1,-6,1,2,1,7,1,-5,1,-2,1,-8,1,-20,1,-14,1,-17,1,-17,1,-7,1
1701,-8,1,-5,1,3,1,6,1,-6,1,-1,1,-8,1,-20,1,-14,1,-18,1,-17,1,-6,1
1702,-8,1,-5,1,3,1,6,1,-6,1,-1,1,-7,1,-19,1,-14,1,-18,1,-17,1,-6,1
1703,-8,1,-5,1,3,1,6,1,-6,1,-1,1,-7,1,-19,1,-14,1,-18,1,-17,1,-7,1
1704,-8,1,-5,1,3,1,6,1,-6,1,-1,1,-8,1,-19,1,-15,1,-17,1,-17,1,-7,1
1705,-8,1,-6,1,2,1,7,1,-5,1,-2,1,-8,1,-19,1,-15,1,-17,1,-17,1,-7,1
1706,-8,1,-6,1,2,1,7,1,-5,1,-2,1,-8,1,-19,1,-15,1,-16,1,-17,1,-7,1
1707,-8,1,-6,1,2,1,7,1,-5,1,-2,1,-8,1,-19,1,-15,1,-16,1,-17,1,-7,1
1708,-8,1,-6,1,2,1,7,1,-5,1,-2,1,-8,1,-19,1,-15,1,-17,1,-17,1,-7,1
1709,-8,1,-6,1,2,1,7,1,-5,1,-2,1,-8,1,-19,1,-15,1,-17,1,-17,1,-7,1
1710,-8,1,-5,1,3,1,6,1,-6,1,-1,1,-8,1,-20,1,-15,1,-17,1,-17,1,-7,1
1711,-8,1,-6,1,2,1,7,1,-5,1,-2,1,-8,1,-20,1,-15,1,-18,1,-17,1,-7,1
1712,-8,1,-6,1,2,1,7,1,-5,1,-2,1,-8,1,-19,1,-15,1,-17,1,-17,1,-7,1
1713,-8,1,-6,1,2,1,7,1,-5,1,-2,1,-9,1,-19,1,-15,1,-16,1,-17,1,-6,1
1714,-8,1,-6,1,2,1,7,1,-5,1,-2,1,-9,1,-20,1,-15,1,-16,1,-17,1,-6,1
1715,-8,1,-6,1,2,1,7,1,-5,1,-2,1,-9,1,-20,1,-15,1,-15,1,-17,1,-6,1
1716,-8,1,-5,1,3,1,6,1,-6,1,-1,1,-9,1,-20,1,-14,1,-15,1,-17,1,-6,1
1717,-8,1,-5,1,3,1,6,1,-6,1,-1,1,-9,1,-20,1,-14,1,-15,1,-17,1,-7,1
1718,-8,1,-5,1,3,1,6,1,-6,1,-1,1,-10,1,-21,1,-14,1,-16,1,-17,1,-7,1
1719,-9,1,-6,1,3,1,7,1,-6,1,-2,1,-9,1,-21,1,-14,1,-16,1,-16,1,-7,1
1720,-9,1,-5,1,4,1,7,1,-7,1,-1,1,-9,1,-21,1,-15,1,-17,1,-17,1,-6,1
1721,-9,1,-6,1,3,1,7,1,-6,1,-2,1,-9,1,-20,1,-14,1,-17,1,-17,1,-6,1
1722,-9,1,-6,1,3,1,7,1,-6,1,-2,1,-8,1,-20,1,-14,1,-17,1,-17,1,-6,1
1723,-8,1,-6,1,2,1,7,1,-5,1,-2,1,-8,1,-20,1,-14,1,-17,1,-17,1,-6,1
1724,-8,1,-6,1,2,1,7,1,-5,1,-2,1,-8,1,-20,1,-15,1,-16,1,-17,1,-6,1
1725,-8,1,-6,1,2,1,7,1,-5,1,-2,1,-8,1,-20,1,-15,1,-16,1,-17,1,-6,1
1726,-8,1,-5,1,3,1,6,1,-6,1,-1,1,-8,1,-20,1,-15,1,-15,1,-17,1,-6,1
1727,-8,1,-5,1,3,1,6,1,-6,1,-1,1,-9,1,-21,1,-15,1,-16,1,-17,1,-6,1
1728,-8,1,-5,1,3,1,6,1,-6,1,-1,1,-9,1,-21,1,-14,1,-17,1,-17,1,-5,1
1729,-8,1,-5,1,3,1,6,1,-6,1,-1,1,-9,1,-21,1,-14,1,-17,1,-17,1,-5,1
1730,-8,1,-5,1,3,1,6,1,-6,1,-1,1,-9,1,-21,1,-14,1,-17,1,-17,1,-5,1
1731,-8,1,-6,1,2,1,7,1,-5,1,-2,1,-9,1,-21,1,-14,1,-17,1,-17,1,-5,1
1732,-8,1,-6,1,2,1,7,1,-5,1,-2,1,-9,1,-20,1,-14,1,-17,1,-18,1,-5,1
1733,-8,1,-6,1,2,1,7,1,-5,1,-2,1,-8,1,-20,1,-14,1,-16,1,-18,1,-5,1
1734,-8,1,-6,1,2,1,7,1,-5,1,-2,1,-8,1,-19,1,-13,1,-16,1,-18,1,-6,1
1735,-8,1,-6,1,2,1,7,1,-5,1,-2,1,-8,1,-18,1,-13,1,-15,1,-17,1,-5,1
1736,-8,1,-6,1,2,1,7,1,-5,1,-2,1,-8,1,-18,1,-13,1,-15,1,-17,1,-5,1
1737,-8,1,-6,1,2,1,7,1,-5,1,-2,1,-8,1,-19,1,-13,1,-15,1,-17,1,-5,1
1738,-8,1,-6,1,2,1,7,1,-5,1,-2,1,-7,1,-19,1,-13,1,-15,1,-16,1,-4,1
1739,-7,1,-5,1,2,1,6,1,-5,1,-2,1,-6,1,-18,1,-12,1,-14,1,-16,1,-4,1
1740,-7,1,-4,1,3,1,5,1,-5,1,-1,1,-6,1,-18,1,-13,1,-14,1,-16,1,-4,1
1741,-6,1,-3,1,3,1,4,1,-5,1,0,1,-5,1,-17,1,-12,1,-14,1,-15,1,-3,1
1742,-6,1,-3,1,3,1,4,1,-5,1,0,1,-5,1,-17,1,-11,1,-14,1,-15,1,-3,1
1743,-6,1,-2,1,4,1,4,1,-5,1,1,1,-4,1,-16,1,-10,1,-14,1,-14,1,-3,1
1744,-5,1,-1,1,4,1,3,1,-5,1,1,1,-4,1,-16,1,-9,1,-13,1,-14,1,-3,1
1745,-6,1,-1,1,5,1,3,1,-6,1,2,1,-4,1,-14,1,-9,1,-13,1,-13,1,-3,1
1746,-6,1,-1,1,5,1,3,1,-6,1,2,1,-4,1,-14,1,-8,1,-13,1,-13,1,-3,1
1747,-6,1,-1,1,5,1,3,1,-6,1,2,1,-4,1,-14,1,-8,1,-12,1,-13,1,-3,1
1748,-6,1,0,1,6,1,3,1,-6,1,3,1,-4,1,-13,1,-8,1,-12,1,-12,1,-2,1
1749,-5,1,0,1,5,1,2,1,-5,1,2,1,-3,1,-12,1,-8,1,-11,1,-12,1,-2,1
1750,-5,1,1,1,6,1,2,1,-5,1,3,1,-2,1,-12,1,-8,1,-11,1,-12,1,-1,1
1751,-4,1,1,1,5,1,1,1,-4,1,3,1,-2,1,-13,1,-8,1,-11,1,-12,1,-1,1
1752,-4,1,1,1,5,1,1,1,-4,1,3,1,-2,1,-12,1,-7,1,-10,1,-13,1,0,1
1753,-3,1,1,1,4,1,1,1,-3,1,2,1,-2,1,-12,1,-6,1,-10,1,-12,1,0,1
1754,-3,1,2,1,5,1,0,1,-4,1,3,1,-2,1,-12,1,-6,1,-10,1,-12,1,0,1
1755,-2,1,1,1,3,1,0,1,-2,1,2,1,-2,1,-11,1,-5,1,-9,1,-12,1,1,1
1756,-1,1,2,1,3,1,0,1,-2,1,2,1,-2,1,-10,1,-4,1,-8,1,-11,1,2,1
1757,-1,1,3,1,4,1,-1,1,-2,1,3,1,-3,1,-9,1,-4,1,-8,1,-10,1,2,1
1758,0,1,4,1,4,1,-2,1,-2,1,4,1,-2,1,-7,1,-2,1,-6,1,-9,1,2,1
1759,1,1,5,1,4,1,-3,1,-1,1,5,1,-2,1,-5,1,-1,1,-6,1,-8,1,2,1
1760,2,1,6,1,4,1,-4,1,-1,1,5,1,-3,1,-5,1,0,1,-5,1,-7,1,3,1
1761,3,1,7,1,4,1,-5,1,0,1,6,1,-3,1,-4,1,-1,1,-5,1,-6,1,3,1
1762,4,1,6,1,2,1,-5,1,1,1,4,1,-3,1,-4,1,0,1,-4,1,-5,1,4,1
1763,5,1,6,1,1,1,-5,1,2,1,4,1,-4,1,-4,1,0,1,-3,1,-5,1,4,1
1764,5,1,7,1,2,1,-6,1,2,1,5,1,-5,1,-4,1,0,1,-3,1,-4,1,6,1
1765,5,1,7,1,2,1,-6,1,2,1,5,1,-5,1,-4,1,0,1,-2,1,-4,1,6,1
1766,6,1,7,1,1,1,-6,1,3,1,4,1,-7,1,-4,1,0,1,-2,1,-5,1,6,1
1767,6,1,6,1,0,1,-6,1,3,1,3,1,-9,1,-6,1,-1,1,-3,1,-6,1,5,1
1768,6,1,6,1,0,1,-6,1,3,1,3,1,-10,1,-8,1,-3,1,-4,1,-7,1,4,1
1769,5,1,4,1,-1,1,-4,1,3,1,2,1,-11,1,-9,1,-4,1,-5,1,-7,1,3,1
1770,5,1,3,1,-2,1,-4,1,4,1,1,1,-11,1,-10,1,-5,1,-6,1,-8,1,2,1
1771,5,1,2,1,-3,1,-3,1,4,1,0,1,-12,1,-11,1,-6,1,-8,1,-9,1,1,1
1772,4,1,1,1,-3,1,-2,1,4,1,-1,1,-12,1,-12,1,-6,1,-9,1,-10,1,0,1
1773,4,1,1,1,-3,1,-2,1,4,1,-1,1,-12,1,-13,1,-6,1,-10,1,-10,1,0,1
1774,4,1,1,1,-3,1,-2,1,4,1,-1,1,-12,1,-14,1,-7,1,-10,1,-10,1,-1,1
1775,4,1,0,1,-4,1,-2,1,4,1,-2,1,-12,1,-15,1,-8,1,-10,1,-11,1,-1,1
1776,3,1,-1,1,-4,1,-1,1,3,1,-2,1,-11,1,-16,1,-9,1,-10,1,-12,1,-1,1
1777,3,1,-2,1,-5,1,0,1,4,1,-3,1,-11,1,-18,1,-11,1,-11,1,-13,1,-2,1
1778,3,1,-3,1,-6,1,0,1,4,1,-4,1,-12,1,-19,1,-12,1,-11,1,-15,1,-2,1
1779,2,1,-3,1,-5,1,0,1,3,1,-4,1,-12,1,-19,1,-13,1,-11,1,-15,1,-2,1
1780,1,1,-4,1,-5,1,1,1,3,1,-4,1,-13,1,-20,1,-14,1,-12,1,-15,1,-2,1
1781,0,1,-4,1,-4,1,2,1,2,1,-4,1,-12,1,-21,1,-14,1,-13,1,-15,1,-3,1
1782,-1,1,-4,1,-3,1,2,1,1,1,-4,1,-11,1,-21,1,-14,1,-15,1,-15,1,-3,1
1783,-3,1,-5,1,-2,1,4,1,-1,1,-4,1,-10,1,-21,1,-14,1,-16,1,-15,1,-4,1
1784,-4,1,-6,1,-2,1,5,1,-1,1,-4,1,-10,1,-21,1,-14,1,-17,1,-16,1,-5,1
1785,-5,1,-6,1,-1,1,5,1,-2,1,-4,1,-9,1,-21,1,-14,1,-17,1,-16,1,-5,1
1786,-7,1,-7,1,0,1,7,1,-4,1,-4,1,-9,1,-22,1,-14,1,-17,1,-17,1,-6,1
1787,-8,1,-8,1,0,1,8,1,-4,1,-4,1,-9,1,-22,1,-15,1,-17,1,-17,1,-6,1
1788,-9,1,-8,1,1,1,8,1,-5,1,-4,1,-9,1,-22,1,-16,1,-18,1,-18,1,-6,1
1789,-10,1,-9,1,1,1,9,1,-6,1,-4,1,-9,1,-22,1,-16,1,-18,1,-18,1,-6,1
1790,-11,1,-9,1,2,1,10,1,-7,1,-4,1,-9,1,-22,1,-16,1,-18,1,-18,1,-6,1
1791,-11,1,-9,1,2,1,10,1,-7,1,-4,1,-9,1,-23,1,-16,1,-19,1,-18,1,-7,1
1792,-11,1,-9,1,2,1,10,1,-7,1,-4,1,-9,1,-23,1,-16,1,-19,1,-19,1,-7,1
1793,-11,1,-9,1,2,1,10,1,-7,1,-4,1,-9,1,-23,1,-16,1,-19,1,-19,1,-7,1
1794,-10,1,-8,1,2,1,9,1,-6,1,-3,1,-9,1,-23,1,-16,1,-19,1,-19,1,-7,1
1795,-9,1,-9,1,0,1,9,1,-5,1,-5,1,-9,1,-23,1,-16,1,-19,1,-19,1,-7,1
1796,-9,1,-9,1,0,1,9,1,-5,1,-5,1,-9,1,-23,1,-16,1,-19,1,-18,1,-6,1
1797,-9,1,-9,1,0,1,9,1,-5,1,-5,1,-9,1,-24,1,-17,1,-19,1,-19,1,-6,1
1798,-10,1,-8,1,2,1,9,1,-6,1,-3,1,-9,1,-24,1,-17,1,-19,1,-18,1,-6,1
1799,-10,1,-8,1,2,1,9,1,-6,1,-3,1,-10,1,-25,1,-16,1,-18,1,-18,1,-6,1
1800,-11,1,-8,1,3,1,9,1,-7,1,-3,1,-10,1,-25,1,-16,1,-19,1,-19,1,-6,1
1801,-11,1,-8,1,3,1,9,1,-7,1,-3,1,-9,1,-24,1,-16,1,-19,1,-19,1,-7,1
1802,-11,1,-8,1,3,1,9,1,-7,1,-3,1,-9,1,-24,1,-16,1,-19,1,-19,1,-7,1
1803,-11,1,-8,1,3,1,9,1,-7,1,-3,1,-8,1,-24,1,-16,1,-19,1,-19,1,-7,1
1804,-11,1,-8,1,3,1,9,1,-7,1,-3,1,-8,1,-24,1,-16,1,-20,1,-20,1,-8,1
1805,-11,1,-8,1,3,1,9,1,-7,1,-3,1,-8,1,-24,1,-16,1,-19,1,-19,1,-8,1
1806,-11,1,-8,1,3,1,9,1,-7,1,-3,1,-8,1,-24,1,-16,1,-19,1,-19,1,-8,1
1807,-11,1,-8,1,3,1,9,1,-7,1,-3,1,-9,1,-24,1,-16,1,-19,1,-19,1,-7,1
1808,-12,1,-8,1,4,1,10,1,-8,1,-2,1,-9,1,-23,1,-16,1,-19,1,-19,1,-7,1
1809,-12,1,-8,1,4,1,10,1,-8,1,-2,1,-9,1,-23,1,-16,1,-19,1,-18,1,-7,1
1810,-12,1,-7,1,5,1,9,1,-9,1,-1,1,-8,1,-23,1,-16,1,-19,1,-18,1,-7,1
1811,-12,1,-7,1,5,1,9,1,-9,1,-1,1,-8,1,-23,1,-16,1,-19,1,-19,1,-7,1
1812,-12,1,-5,1,7,1,8,1,-10,1,1,1,-8,1,-22,1,-15,1,-19,1,-19,1,-6,1
1813,-13,1,-4,1,9,1,8,1,-11,1,2,1,-6,1,-20,1,-13,1,-17,1,-18,1,-5,1
1814,-13,1,-1,1,12,1,7,1,-13,1,5,1,-5,1,-18,1,-11,1,-15,1,-16,1,-4,1
1815,-13,1,2,1,15,1,5,1,-14,1,8,1,-3,1,-11,1,-5,1,-12,1,-14,1,-2,1
1816,-13,1,6,1,19,1,3,1,-16,1,12,1,-1,1,-2,1,3,1,-6,1,-10,1,0,1
1817,-12,1,8,1,20,1,2,1,-16,1,14,1,0,1,7,1,11,1,0,1,-5,1,3,1
1818,-9,1,11,1,20,1,-1,1,-14,1,15,1,1,1,18,1,21,1,7,1,1,1,7,1
1819,-3,1,13,1,16,1,-5,1,-9,1,14,1,2,1,34,1,33,1,17,1,9,1,12,1
1820,6,1,17,1,11,1,-11,1,-2,1,14,1,2,1,53,1,48,1,30,1,20,1,19,1
1821,19,1,22,1,3,1,-20,1,8,1,13,1,0,1,78,1,66,1,49,1,34,1,30,1
1822,36,1,30,1,-6,1,-33,1,21,1,12,1,-2,1,102,1,89,1,74,1,55,1,47,1
1823,55,1,40,1,-15,1,-47,1,35,1,13,1,-7,1,122,1,114,1,102,1,79,1,67,1
1824,74,1,52,1,-22,1,-63,1,48,1,15,1,-13,1,132,1,136,1,130,1,103,1,88,1
1825,91,1,62,1,-29,1,-76,1,60,1,17,1,-19,1,134,1,153,1,156,1,126,1,109,1
1826,105,1,71,1,-34,1,-88,1,70,1,19,1,-25,1,133,1,168,1,178,1,148,1,127,1
1827,118,1,78,1,-40,1,-98,1,79,1,19,1,-32,1,128,1,179,1,197,1,166,1,142,1
1828,131,1,84,1,-47,1,-107,1,89,1,19,1,-39,1,116,1,187,1,216,1,184,1,156,1
