TS,I,If,II,IIf,III,IIIf,aVR,aVRf,aVL,aVLf,aVF,aVFf,V1,V1f,V2,V2f,V3,V3f,V4,V4f,V5,V5f,V6,V6f
1,-21,1,0,1,21,1,10,1,-21,1,10,1,1,1,-14,1,-3,1,-6,1,-11,1,-6,1
2,-21,1,1,1,22,1,10,1,-21,1,11,1,1,1,-14,1,-2,1,-6,1,-11,1,-6,1
3,-20,1,1,1,21,1,9,1,-20,1,11,1,1,1,-14,1,-2,1,-6,1,-11,1,-7,1
4,-19,1,0,1,19,1,9,1,-19,1,9,1,0,1,-15,1,-2,1,-6,1,-12,1,-8,1
5,-20,1,0,1,20,1,10,1,-20,1,10,1,0,1,-15,1,-2,1,-6,1,-12,1,-8,1
6,-20,1,-1,1,19,1,10,1,-20,1,9,1,0,1,-16,1,-2,1,-6,1,-11,1,-9,1
7,-20,1,-1,1,19,1,10,1,-20,1,9,1,0,1,-16,1,-3,1,-7,1,-11,1,-9,1
8,-19,1,-1,1,18,1,10,1,-19,1,8,1,-1,1,-17,1,-3,1,-7,1,-12,1,-10,1
9,-18,1,-1,1,17,1,9,1,-18,1,8,1,-1,1,-18,1,-3,1,-8,1,-13,1,-9,1
10,-18,1,-2,1,16,1,10,1,-17,1,7,1,-1,1,-18,1,-3,1,-8,1,-13,1,-9,1
11,-19,1,-2,1,17,1,10,1,-18,1,7,1,-2,1,-18,1,-3,1,-8,1,-14,1,-9,1
12,-18,1,-2,1,16,1,10,1,-17,1,7,1,-2,1,-19,1,-4,1,-8,1,-14,1,-8,1
13,-18,1,-2,1,16,1,10,1,-17,1,7,1,-2,1,-19,1,-4,1,-8,1,-14,1,-8,1
14,-18,1,-1,1,17,1,9,1,-18,1,8,1,-2,1,-18,1,-4,1,-8,1,-14,1,-8,1
15,-15,1,0,1,15,1,7,1,-15,1,7,1,-2,1,-18,1,-5,1,-8,1,-14,1,-9,1
16,-15,1,0,1,15,1,7,1,-15,1,7,1,-1,1,-18,1,-5,1,-8,1,-13,1,-9,1
17,-15,1,-1,1,14,1,8,1,-15,1,6,1,-1,1,-18,1,-6,1,-9,1,-13,1,-9,1
18,-15,1,-1,1,14,1,8,1,-15,1,6,1,0,1,-18,1,-5,1,-9,1,-12,1,-10,1
19,-16,1,-1,1,15,1,8,1,-16,1,7,1,1,1,-17,1,-4,1,-8,1,-12,1,-10,1
20,-15,1,1,1,16,1,7,1,-15,1,8,1,2,1,-17,1,-3,1,-7,1,-11,1,-9,1
21,-14,1,2,1,16,1,6,1,-15,1,9,1,2,1,-17,1,-2,1,-7,1,-11,1,-9,1
22,-15,1,3,1,18,1,6,1,-16,1,10,1,2,1,-16,1,-2,1,-6,1,-11,1,-9,1
23,-16,1,3,1,19,1,6,1,-17,1,11,1,2,1,-16,1,-1,1,-6,1,-11,1,-9,1
24,-15,1,3,1,18,1,6,1,-16,1,10,1,2,1,-16,1,-1,1,-5,1,-11,1,-9,1
25,-14,1,4,1,18,1,5,1,-16,1,11,1,2,1,-15,1,-1,1,-5,1,-11,1,-9,1
26,-13,1,6,1,19,1,3,1,-16,1,12,1,3,1,-14,1,-1,1,-5,1,-11,1,-9,1
27,-13,1,6,1,19,1,3,1,-16,1,12,1,4,1,-14,1,-1,1,-5,1,-11,1,-8,1
28,-12,1,8,1,20,1,2,1,-16,1,14,1,4,1,-13,1,0,1,-4,1,-10,1,-8,1
29,-12,1,9,1,21,1,1,1,-16,1,15,1,4,1,-12,1,1,1,-3,1,-10,1,-7,1
30,-14,1,10,1,24,1,2,1,-19,1,17,1,5,1,-10,1,3,1,-2,1,-9,1,-6,1
31,-16,1,10,1,26,1,3,1,-21,1,18,1,6,1,-9,1,4,1,-2,1,-8,1,-6,1
32,-15,1,10,1,25,1,2,1,-20,1,17,1,7,1,-8,1,4,1,-2,1,-8,1,-6,1
33,-13,1,12,1,25,1,0,1,-19,1,18,1,9,1,-6,1,5,1,-1,1,-7,1,-6,1
34,-11,1,14,1,25,1,-1,1,-18,1,19,1,10,1,-5,1,6,1,-1,1,-7,1,-6,1
35,-11,1,15,1,26,1,-2,1,-18,1,20,1,10,1,-4,1,6,1,0,1,-7,1,-5,1
36,-12,1,16,1,28,1,-2,1,-20,1,22,1,11,1,-4,1,6,1,1,1,-7,1,-5,1
37,-14,1,16,1,30,1,-1,1,-22,1,23,1,12,1,-3,1,7,1,2,1,-7,1,-5,1
38,-13,1,17,1,30,1,-2,1,-21,1,23,1,10,1,-3,1,8,1,2,1,-6,1,-4,1
39,-14,1,17,1,31,1,-1,1,-22,1,24,1,8,1,-5,1,7,1,2,1,-5,1,-4,1
40,-14,1,17,1,31,1,-1,1,-22,1,24,1,5,1,-8,1,6,1,1,1,-5,1,-3,1
41,-15,1,17,1,32,1,-1,1,-23,1,24,1,3,1,-11,1,5,1,1,1,-5,1,-2,1
42,-13,1,17,1,30,1,-2,1,-21,1,23,1,0,1,-14,1,4,1,0,1,-5,1,-1,1
43,-10,1,19,1,29,1,-4,1,-19,1,24,1,-2,1,-16,1,4,1,1,1,-5,1,-1,1
44,-8,1,21,1,29,1,-6,1,-18,1,25,1,-5,1,-19,1,3,1,1,1,-5,1,-1,1
45,-8,1,21,1,29,1,-6,1,-18,1,25,1,-8,1,-22,1,1,1,0,1,-5,1,-1,1
46,-8,1,20,1,28,1,-6,1,-18,1,24,1,-10,1,-25,1,0,1,0,1,-5,1,-1,1
47,-9,1,20,1,29,1,-5,1,-19,1,24,1,-11,1,-27,1,-1,1,0,1,-6,1,-1,1
48,-9,1,20,1,29,1,-5,1,-19,1,24,1,-12,1,-27,1,-3,1,-1,1,-6,1,-1,1
49,-8,1,21,1,29,1,-6,1,-18,1,25,1,-12,1,-29,1,-4,1,-2,1,-7,1,-3,1
50,-6,1,22,1,28,1,-8,1,-17,1,25,1,-12,1,-29,1,-4,1,-2,1,-7,1,-3,1
51,-6,1,21,1,27,1,-7,1,-16,1,24,1,-12,1,-30,1,-4,1,-4,1,-8,1,-3,1
52,-6,1,21,1,27,1,-7,1,-16,1,24,1,-12,1,-30,1,-4,1,-4,1,-8,1,-3,1
53,-6,1,20,1,26,1,-7,1,-16,1,23,1,-12,1,-30,1,-5,1,-3,1,-8,1,-3,1
54,-6,1,20,1,26,1,-7,1,-16,1,23,1,-13,1,-31,1,-6,1,-4,1,-8,1,-3,1
55,-6,1,20,1,26,1,-7,1,-16,1,23,1,-14,1,-32,1,-7,1,-3,1,-7,1,-3,1
56,-6,1,20,1,26,1,-7,1,-16,1,23,1,-14,1,-31,1,-7,1,-3,1,-6,1,-3,1
57,-5,1,18,1,23,1,-6,1,-14,1,20,1,-15,1,-31,1,-7,1,-3,1,-6,1,-3,1
58,-4,1,16,1,20,1,-6,1,-12,1,18,1,-15,1,-31,1,-8,1,-3,1,-6,1,-3,1
59,-3,1,15,1,18,1,-6,1,-10,1,16,1,-14,1,-30,1,-7,1,-3,1,-6,1,-3,1
60,-2,1,14,1,16,1,-6,1,-9,1,15,1,-13,1,-29,1,-5,1,-4,1,-6,1,-2,1
61,-5,1,12,1,17,1,-3,1,-11,1,14,1,-11,1,-28,1,-5,1,-4,1,-6,1,-2,1
62,-8,1,9,1,17,1,0,1,-12,1,13,1,-10,1,-27,1,-5,1,-4,1,-7,1,-2,1
63,-10,1,7,1,17,1,1,1,-13,1,12,1,-9,1,-27,1,-5,1,-5,1,-7,1,-3,1
64,-12,1,6,1,18,1,3,1,-15,1,12,1,-9,1,-26,1,-5,1,-6,1,-8,1,-4,1
65,-12,1,5,1,17,1,3,1,-14,1,11,1,-8,1,-25,1,-6,1,-6,1,-9,1,-6,1
66,-14,1,3,1,17,1,5,1,-15,1,10,1,-7,1,-25,1,-6,1,-6,1,-9,1,-6,1
67,-15,1,2,1,17,1,6,1,-16,1,9,1,-6,1,-24,1,-6,1,-7,1,-11,1,-8,1
68,-15,1,0,1,15,1,7,1,-15,1,7,1,-6,1,-25,1,-7,1,-7,1,-13,1,-11,1
69,-16,1,-2,1,14,1,9,1,-15,1,6,1,-5,1,-25,1,-8,1,-9,1,-15,1,-13,1
70,-18,1,-4,1,14,1,11,1,-16,1,5,1,-3,1,-25,1,-8,1,-10,1,-16,1,-13,1
71,-18,1,-6,1,12,1,12,1,-15,1,3,1,-2,1,-25,1,-8,1,-10,1,-17,1,-14,1
72,-18,1,-7,1,11,1,12,1,-15,1,2,1,-2,1,-24,1,-9,1,-11,1,-18,1,-15,1
73,-17,1,-8,1,9,1,12,1,-13,1,0,1,-2,1,-25,1,-10,1,-12,1,-19,1,-15,1
74,-18,1,-8,1,10,1,13,1,-14,1,1,1,-2,1,-25,1,-11,1,-13,1,-19,1,-16,1
75,-19,1,-9,1,10,1,14,1,-15,1,0,1,-3,1,-26,1,-12,1,-13,1,-20,1,-16,1
76,-17,1,-9,1,8,1,13,1,-13,1,-1,1,-3,1,-26,1,-12,1,-13,1,-20,1,-17,1
77,-16,1,-8,1,8,1,12,1,-12,1,0,1,-3,1,-26,1,-12,1,-13,1,-20,1,-17,1
78,-16,1,-9,1,7,1,12,1,-12,1,-1,1,-4,1,-27,1,-12,1,-14,1,-21,1,-18,1
79,-17,1,-10,1,7,1,13,1,-12,1,-2,1,-3,1,-28,1,-11,1,-14,1,-21,1,-17,1
80,-15,1,-9,1,6,1,12,1,-11,1,-2,1,-2,1,-28,1,-11,1,-14,1,-21,1,-17,1
81,-14,1,-8,1,6,1,11,1,-10,1,-1,1,-2,1,-28,1,-11,1,-14,1,-22,1,-17,1
82,-16,1,-8,1,8,1,12,1,-12,1,0,1,-1,1,-28,1,-10,1,-13,1,-21,1,-17,1
83,-17,1,-9,1,8,1,13,1,-13,1,-1,1,0,1,-28,1,-11,1,-13,1,-21,1,-17,1
84,-18,1,-9,1,9,1,13,1,-14,1,0,1,0,1,-28,1,-12,1,-13,1,-21,1,-18,1
85,-18,1,-10,1,8,1,14,1,-13,1,-1,1,-1,1,-27,1,-11,1,-13,1,-20,1,-18,1
86,-18,1,-10,1,8,1,14,1,-13,1,-1,1,0,1,-25,1,-9,1,-12,1,-20,1,-19,1
87,-18,1,-10,1,8,1,14,1,-13,1,-1,1,2,1,-19,1,-5,1,-10,1,-20,1,-19,1
88,-17,1,-9,1,8,1,13,1,-13,1,-1,1,4,1,-13,1,0,1,-7,1,-20,1,-20,1
89,-19,1,-8,1,11,1,13,1,-15,1,1,1,8,1,-4,1,8,1,-3,1,-18,1,-20,1
90,-20,1,-6,1,14,1,13,1,-17,1,4,1,10,1,5,1,19,1,3,1,-16,1,-18,1
91,-18,1,-3,1,15,1,10,1,-17,1,6,1,11,1,15,1,30,1,12,1,-10,1,-16,1
92,-15,1,1,1,16,1,7,1,-15,1,8,1,11,1,21,1,43,1,24,1,-3,1,-11,1
93,-12,1,8,1,20,1,2,1,-16,1,14,1,10,1,24,1,54,1,37,1,7,1,-3,1
94,-8,1,20,1,28,1,-6,1,-18,1,24,1,8,1,20,1,60,1,49,1,21,1,8,1
95,-3,1,33,1,36,1,-15,1,-19,1,34,1,2,1,11,1,64,1,63,1,38,1,22,1
96,6,1,47,1,41,1,-26,1,-17,1,44,1,-6,1,0,1,68,1,80,1,61,1,43,1
97,20,1,62,1,42,1,-41,1,-11,1,52,1,-16,1,-11,1,75,1,100,1,90,1,68,1
98,35,1,77,1,42,1,-56,1,-3,1,60,1,-27,1,-21,1,81,1,123,1,121,1,96,1
99,48,1,91,1,43,1,-69,1,3,1,67,1,-37,1,-34,1,84,1,144,1,151,1,124,1
100,58,1,104,1,46,1,-81,1,6,1,75,1,-47,1,-50,1,84,1,162,1,179,1,151,1
101,66,1,118,1,52,1,-92,1,7,1,85,1,-56,1,-63,1,85,1,181,1,205,1,176,1
102,74,1,129,1,55,1,-101,1,10,1,92,1,-62,1,-70,1,89,1,198,1,227,1,195,1
103,79,1,128,1,49,1,-103,1,15,1,89,1,-63,1,-74,1,89,1,206,1,236,1,201,1
104,77,1,119,1,42,1,-98,1,18,1,81,1,-60,1,-77,1,83,1,200,1,228,1,192,1
105,68,1,107,1,39,1,-87,1,15,1,73,1,-56,1,-83,1,66,1,182,1,208,1,174,1
106,58,1,96,1,38,1,-77,1,10,1,67,1,-53,1,-94,1,39,1,153,1,180,1,152,1
107,46,1,86,1,40,1,-66,1,3,1,63,1,-50,1,-108,1,3,1,112,1,142,1,124,1
108,34,1,74,1,40,1,-54,1,-3,1,57,1,-48,1,-127,1,-42,1,61,1,95,1,92,1
109,24,1,61,1,37,1,-42,1,-6,1,49,1,-45,1,-143,1,-87,1,7,1,46,1,59,1
110,12,1,49,1,37,1,-30,1,-12,1,43,1,-40,1,-154,1,-123,1,-38,1,5,1,30,1
111,0,1,38,1,38,1,-19,1,-19,1,38,1,-35,1,-161,1,-145,1,-68,1,-22,1,10,1
112,-9,1,24,1,33,1,-7,1,-21,1,28,1,-32,1,-164,1,-158,1,-88,1,-42,1,-7,1
113,-16,1,11,1,27,1,2,1,-21,1,19,1,-29,1,-163,1,-164,1,-101,1,-56,1,-22,1
114,-22,1,0,1,22,1,11,1,-22,1,11,1,-23,1,-157,1,-163,1,-108,1,-66,1,-33,1
115,-27,1,-7,1,20,1,17,1,-24,1,6,1,-16,1,-149,1,-158,1,-110,1,-71,1,-40,1
116,-33,1,-11,1,22,1,22,1,-28,1,5,1,-11,1,-141,1,-149,1,-106,1,-71,1,-43,1
117,-35,1,-12,1,23,1,23,1,-29,1,5,1,-8,1,-129,1,-136,1,-100,1,-68,1,-42,1
118,-32,1,-13,1,19,1,22,1,-26,1,3,1,-7,1,-115,1,-121,1,-93,1,-65,1,-41,1
119,-28,1,-15,1,13,1,21,1,-21,1,-1,1,-6,1,-101,1,-107,1,-85,1,-63,1,-41,1
120,-26,1,-18,1,8,1,22,1,-17,1,-5,1,-4,1,-86,1,-91,1,-76,1,-59,1,-40,1
121,-25,1,-18,1,7,1,21,1,-16,1,-6,1,-4,1,-75,1,-77,1,-67,1,-54,1,-38,1
122,-25,1,-16,1,9,1,20,1,-17,1,-4,1,-4,1,-66,1,-65,1,-57,1,-49,1,-35,1
123,-25,1,-15,1,10,1,20,1,-18,1,-3,1,-4,1,-58,1,-55,1,-48,1,-43,1,-33,1
124,-26,1,-13,1,13,1,19,1,-20,1,0,1,-5,1,-53,1,-48,1,-40,1,-38,1,-30,1
125,-24,1,-10,1,14,1,17,1,-19,1,2,1,-6,1,-48,1,-42,1,-33,1,-33,1,-26,1
126,-22,1,-8,1,14,1,15,1,-18,1,3,1,-7,1,-44,1,-37,1,-29,1,-29,1,-24,1
127,-20,1,-7,1,13,1,13,1,-17,1,3,1,-6,1,-39,1,-31,1,-25,1,-25,1,-21,1
128,-18,1,-5,1,13,1,11,1,-16,1,4,1,-5,1,-34,1,-26,1,-22,1,-23,1,-19,1
129,-17,1,-5,1,12,1,11,1,-15,1,3,1,-4,1,-29,1,-22,1,-22,1,-22,1,-19,1
130,-17,1,-6,1,11,1,11,1,-14,1,2,1,-2,1,-27,1,-19,1,-22,1,-23,1,-20,1
131,-18,1,-8,1,10,1,13,1,-14,1,1,1,-1,1,-26,1,-18,1,-23,1,-24,1,-21,1
132,-18,1,-9,1,9,1,13,1,-14,1,0,1,-1,1,-26,1,-18,1,-23,1,-25,1,-22,1
133,-18,1,-10,1,8,1,14,1,-13,1,-1,1,-1,1,-27,1,-18,1,-22,1,-25,1,-23,1
134,-19,1,-11,1,8,1,15,1,-14,1,-2,1,-1,1,-27,1,-18,1,-21,1,-26,1,-23,1
135,-19,1,-10,1,9,1,14,1,-14,1,-1,1,-1,1,-27,1,-18,1,-20,1,-25,1,-23,1
136,-18,1,-8,1,10,1,13,1,-14,1,1,1,-2,1,-25,1,-16,1,-19,1,-24,1,-21,1
137,-17,1,-7,1,10,1,12,1,-14,1,1,1,-1,1,-23,1,-15,1,-17,1,-22,1,-20,1
138,-15,1,-6,1,9,1,10,1,-12,1,1,1,-1,1,-22,1,-15,1,-17,1,-22,1,-20,1
139,-13,1,-6,1,7,1,9,1,-10,1,0,1,-2,1,-21,1,-14,1,-17,1,-22,1,-20,1
140,-12,1,-6,1,6,1,9,1,-9,1,0,1,-2,1,-21,1,-13,1,-16,1,-22,1,-20,1
141,-12,1,-8,1,4,1,10,1,-8,1,-2,1,-2,1,-21,1,-12,1,-17,1,-23,1,-20,1
142,-14,1,-9,1,5,1,11,1,-10,1,-2,1,-1,1,-21,1,-12,1,-17,1,-23,1,-20,1
143,-13,1,-8,1,5,1,10,1,-9,1,-2,1,-1,1,-21,1,-12,1,-17,1,-23,1,-20,1
144,-13,1,-8,1,5,1,10,1,-9,1,-2,1,-1,1,-21,1,-11,1,-16,1,-23,1,-20,1
145,-14,1,-8,1,6,1,11,1,-10,1,-1,1,-1,1,-20,1,-11,1,-16,1,-22,1,-20,1
146,-15,1,-8,1,7,1,11,1,-11,1,-1,1,-1,1,-20,1,-11,1,-16,1,-22,1,-20,1
147,-14,1,-8,1,6,1,11,1,-10,1,-1,1,-2,1,-20,1,-11,1,-16,1,-22,1,-20,1
148,-12,1,-7,1,5,1,9,1,-9,1,-1,1,-2,1,-21,1,-11,1,-16,1,-22,1,-21,1
149,-10,1,-6,1,4,1,8,1,-7,1,-1,1,-2,1,-20,1,-10,1,-17,1,-23,1,-20,1
150,-12,1,-6,1,6,1,9,1,-9,1,0,1,-1,1,-18,1,-9,1,-15,1,-22,1,-19,1
151,-14,1,-6,1,8,1,10,1,-11,1,1,1,0,1,-18,1,-8,1,-15,1,-21,1,-19,1
152,-14,1,-7,1,7,1,10,1,-11,1,0,1,0,1,-18,1,-8,1,-15,1,-22,1,-19,1
153,-15,1,-7,1,8,1,11,1,-12,1,0,1,0,1,-18,1,-9,1,-15,1,-22,1,-20,1
154,-15,1,-6,1,9,1,10,1,-12,1,1,1,0,1,-17,1,-9,1,-14,1,-21,1,-20,1
155,-15,1,-6,1,9,1,10,1,-12,1,1,1,0,1,-17,1,-9,1,-14,1,-20,1,-20,1
156,-15,1,-5,1,10,1,10,1,-13,1,2,1,0,1,-17,1,-9,1,-13,1,-19,1,-20,1
157,-15,1,-5,1,10,1,10,1,-13,1,2,1,0,1,-17,1,-9,1,-13,1,-19,1,-20,1
158,-14,1,-5,1,9,1,9,1,-12,1,2,1,0,1,-17,1,-9,1,-14,1,-19,1,-19,1
159,-15,1,-5,1,10,1,10,1,-13,1,2,1,0,1,-17,1,-9,1,-14,1,-19,1,-19,1
160,-15,1,-6,1,9,1,10,1,-12,1,1,1,-1,1,-18,1,-9,1,-15,1,-19,1,-19,1
161,-14,1,-7,1,7,1,10,1,-11,1,0,1,-2,1,-19,1,-9,1,-16,1,-20,1,-19,1
162,-13,1,-6,1,7,1,9,1,-10,1,0,1,-2,1,-19,1,-8,1,-15,1,-21,1,-19,1
163,-13,1,-6,1,7,1,9,1,-10,1,0,1,-1,1,-19,1,-8,1,-13,1,-21,1,-18,1
164,-14,1,-7,1,7,1,10,1,-11,1,0,1,-1,1,-19,1,-9,1,-13,1,-22,1,-19,1
165,-14,1,-7,1,7,1,10,1,-11,1,0,1,-1,1,-18,1,-10,1,-12,1,-22,1,-19,1
166,-14,1,-6,1,8,1,10,1,-11,1,1,1,0,1,-17,1,-9,1,-11,1,-20,1,-18,1
167,-13,1,-6,1,7,1,9,1,-10,1,0,1,0,1,-17,1,-9,1,-11,1,-20,1,-18,1
168,-13,1,-6,1,7,1,9,1,-10,1,0,1,-1,1,-17,1,-8,1,-12,1,-19,1,-19,1
169,-12,1,-6,1,6,1,9,1,-9,1,0,1,-1,1,-17,1,-8,1,-12,1,-19,1,-18,1
170,-12,1,-5,1,7,1,8,1,-10,1,1,1,-1,1,-17,1,-7,1,-12,1,-19,1,-18,1
171,-12,1,-4,1,8,1,8,1,-10,1,2,1,-2,1,-17,1,-7,1,-13,1,-19,1,-17,1
172,-12,1,-4,1,8,1,8,1,-10,1,2,1,-2,1,-18,1,-7,1,-13,1,-19,1,-17,1
173,-10,1,-4,1,6,1,7,1,-8,1,1,1,-3,1,-18,1,-8,1,-13,1,-19,1,-17,1
174,-10,1,-3,1,7,1,6,1,-9,1,2,1,-3,1,-18,1,-8,1,-12,1,-19,1,-17,1
175,-10,1,-2,1,8,1,6,1,-9,1,3,1,-2,1,-18,1,-8,1,-11,1,-18,1,-17,1
176,-9,1,-2,1,7,1,5,1,-8,1,2,1,-2,1,-17,1,-8,1,-11,1,-17,1,-16,1
177,-9,1,-1,1,8,1,5,1,-9,1,3,1,-2,1,-17,1,-8,1,-10,1,-16,1,-17,1
178,-10,1,-1,1,9,1,5,1,-10,1,4,1,-2,1,-17,1,-9,1,-10,1,-16,1,-17,1
179,-11,1,-2,1,9,1,6,1,-10,1,3,1,-2,1,-17,1,-8,1,-10,1,-16,1,-18,1
180,-12,1,-2,1,10,1,7,1,-11,1,4,1,-2,1,-16,1,-8,1,-10,1,-16,1,-17,1
181,-13,1,-3,1,10,1,8,1,-12,1,3,1,-2,1,-15,1,-7,1,-10,1,-16,1,-17,1
182,-14,1,-3,1,11,1,8,1,-13,1,4,1,-2,1,-15,1,-7,1,-9,1,-16,1,-16,1
183,-14,1,-3,1,11,1,8,1,-13,1,4,1,-2,1,-16,1,-7,1,-10,1,-16,1,-16,1
184,-13,1,-3,1,10,1,8,1,-12,1,3,1,-3,1,-16,1,-7,1,-10,1,-17,1,-16,1
185,-13,1,-3,1,10,1,8,1,-12,1,3,1,-3,1,-16,1,-6,1,-10,1,-16,1,-16,1
186,-15,1,-4,1,11,1,9,1,-13,1,3,1,-3,1,-15,1,-6,1,-10,1,-15,1,-15,1
187,-13,1,-3,1,10,1,8,1,-12,1,3,1,-3,1,-15,1,-6,1,-10,1,-16,1,-15,1
188,-11,1,-3,1,8,1,7,1,-10,1,2,1,-4,1,-15,1,-6,1,-11,1,-16,1,-15,1
189,-10,1,-3,1,7,1,6,1,-9,1,2,1,-3,1,-14,1,-6,1,-11,1,-16,1,-14,1
190,-8,1,-2,1,6,1,5,1,-7,1,2,1,-3,1,-14,1,-5,1,-10,1,-15,1,-14,1
191,-7,1,-1,1,6,1,4,1,-7,1,2,1,-3,1,-14,1,-5,1,-10,1,-14,1,-14,1
192,-6,1,-1,1,5,1,3,1,-6,1,2,1,-4,1,-15,1,-6,1,-10,1,-14,1,-14,1
193,-5,1,0,1,5,1,2,1,-5,1,2,1,-4,1,-16,1,-6,1,-9,1,-14,1,-14,1
194,-4,1,1,1,5,1,1,1,-4,1,3,1,-6,1,-17,1,-6,1,-8,1,-13,1,-13,1
195,-8,1,1,1,9,1,3,1,-8,1,5,1,-6,1,-16,1,-4,1,-6,1,-12,1,-12,1
196,-10,1,0,1,10,1,5,1,-10,1,5,1,-6,1,-15,1,-4,1,-6,1,-12,1,-12,1
197,-10,1,0,1,10,1,5,1,-10,1,5,1,-6,1,-16,1,-4,1,-6,1,-12,1,-12,1
198,-9,1,0,1,9,1,4,1,-9,1,4,1,-7,1,-16,1,-4,1,-7,1,-13,1,-13,1
199,-10,1,-1,1,9,1,5,1,-10,1,4,1,-7,1,-16,1,-3,1,-7,1,-13,1,-13,1
200,-10,1,-2,1,8,1,6,1,-9,1,3,1,-7,1,-16,1,-3,1,-7,1,-12,1,-12,1
201,-10,1,-1,1,9,1,5,1,-10,1,4,1,-7,1,-15,1,-3,1,-7,1,-11,1,-10,1
202,-11,1,0,1,11,1,5,1,-11,1,5,1,-7,1,-15,1,-3,1,-6,1,-10,1,-9,1
203,-10,1,0,1,10,1,5,1,-10,1,5,1,-7,1,-15,1,-3,1,-5,1,-9,1,-9,1
204,-8,1,0,1,8,1,4,1,-8,1,4,1,-8,1,-15,1,-4,1,-5,1,-9,1,-9,1
205,-6,1,0,1,6,1,3,1,-6,1,3,1,-9,1,-15,1,-4,1,-5,1,-9,1,-8,1
206,-5,1,1,1,6,1,2,1,-5,1,3,1,-10,1,-16,1,-5,1,-5,1,-9,1,-7,1
207,-5,1,2,1,7,1,1,1,-6,1,4,1,-11,1,-16,1,-4,1,-5,1,-9,1,-7,1
208,-5,1,3,1,8,1,1,1,-6,1,5,1,-11,1,-17,1,-4,1,-4,1,-9,1,-7,1
209,-3,1,3,1,6,1,0,1,-4,1,4,1,-12,1,-17,1,-4,1,-4,1,-9,1,-7,1
210,-3,1,4,1,7,1,0,1,-5,1,5,1,-13,1,-17,1,-4,1,-4,1,-8,1,-7,1
211,-2,1,5,1,7,1,-1,1,-4,1,6,1,-13,1,-16,1,-4,1,-3,1,-8,1,-7,1
212,-2,1,6,1,8,1,-2,1,-5,1,7,1,-13,1,-16,1,-4,1,-3,1,-6,1,-7,1
213,-3,1,5,1,8,1,-1,1,-5,1,6,1,-14,1,-16,1,-3,1,-3,1,-6,1,-6,1
214,-4,1,6,1,10,1,-1,1,-7,1,8,1,-14,1,-16,1,-4,1,-3,1,-5,1,-5,1
215,-3,1,6,1,9,1,-1,1,-6,1,7,1,-15,1,-17,1,-4,1,-2,1,-4,1,-4,1
216,-2,1,7,1,9,1,-2,1,-5,1,8,1,-14,1,-16,1,-3,1,-1,1,-3,1,-3,1
217,0,1,8,1,8,1,-4,1,-4,1,8,1,-15,1,-17,1,-3,1,-1,1,-3,1,-2,1
218,0,1,6,1,6,1,-3,1,-3,1,6,1,-16,1,-18,1,-4,1,-2,1,-4,1,-3,1
219,0,1,6,1,6,1,-3,1,-3,1,6,1,-17,1,-18,1,-4,1,-3,1,-3,1,-2,1
220,1,1,7,1,6,1,-4,1,-2,1,7,1,-18,1,-17,1,-4,1,-2,1,-2,1,-1,1
221,1,1,7,1,6,1,-4,1,-2,1,7,1,-19,1,-18,1,-4,1,-1,1,-1,1,-1,1
222,1,1,7,1,6,1,-4,1,-2,1,7,1,-20,1,-18,1,-4,1,-1,1,-1,1,0,1
223,2,1,9,1,7,1,-5,1,-2,1,8,1,-20,1,-19,1,-4,1,-1,1,0,1,0,1
224,3,1,9,1,6,1,-6,1,-1,1,8,1,-21,1,-20,1,-5,1,-1,1,0,1,1,1
225,4,1,9,1,5,1,-6,1,0,1,7,1,-21,1,-20,1,-5,1,-1,1,-1,1,1,1
226,3,1,10,1,7,1,-6,1,-2,1,9,1,-21,1,-20,1,-5,1,-2,1,0,1,1,1
227,0,1,9,1,9,1,-4,1,-4,1,9,1,-21,1,-20,1,-5,1,-2,1,0,1,2,1
228,0,1,9,1,9,1,-4,1,-4,1,9,1,-22,1,-21,1,-6,1,-2,1,0,1,2,1
229,3,1,11,1,8,1,-7,1,-2,1,10,1,-23,1,-21,1,-7,1,-2,1,0,1,3,1
230,5,1,13,1,8,1,-9,1,-1,1,11,1,-23,1,-21,1,-7,1,-1,1,1,1,4,1
231,4,1,14,1,10,1,-9,1,-3,1,12,1,-23,1,-21,1,-7,1,-2,1,2,1,6,1
232,3,1,13,1,10,1,-8,1,-3,1,12,1,-25,1,-22,1,-8,1,-3,1,2,1,5,1
233,2,1,13,1,11,1,-7,1,-4,1,12,1,-26,1,-23,1,-9,1,-4,1,2,1,5,1
234,2,1,13,1,11,1,-7,1,-4,1,12,1,-26,1,-23,1,-9,1,-4,1,1,1,6,1
235,2,1,13,1,11,1,-7,1,-4,1,12,1,-26,1,-24,1,-10,1,-5,1,1,1,6,1
236,3,1,14,1,11,1,-8,1,-4,1,13,1,-26,1,-25,1,-11,1,-6,1,1,1,7,1
237,4,1,15,1,11,1,-9,1,-3,1,13,1,-27,1,-25,1,-12,1,-5,1,2,1,7,1
238,5,1,15,1,10,1,-10,1,-2,1,13,1,-28,1,-26,1,-13,1,-6,1,2,1,7,1
239,5,1,15,1,10,1,-10,1,-2,1,13,1,-29,1,-27,1,-14,1,-6,1,2,1,7,1
240,6,1,15,1,9,1,-10,1,-1,1,12,1,-30,1,-28,1,-15,1,-7,1,2,1,7,1
241,7,1,15,1,8,1,-11,1,0,1,12,1,-31,1,-28,1,-15,1,-6,1,3,1,7,1
242,7,1,15,1,8,1,-11,1,0,1,12,1,-30,1,-27,1,-15,1,-6,1,4,1,8,1
243,7,1,15,1,8,1,-11,1,0,1,12,1,-30,1,-27,1,-15,1,-6,1,4,1,8,1
244,7,1,16,1,9,1,-11,1,-1,1,13,1,-30,1,-27,1,-15,1,-5,1,4,1,8,1
245,7,1,16,1,9,1,-11,1,-1,1,13,1,-29,1,-27,1,-16,1,-5,1,4,1,9,1
246,4,1,16,1,12,1,-10,1,-4,1,14,1,-29,1,-28,1,-15,1,-4,1,4,1,9,1
247,2,1,16,1,14,1,-9,1,-6,1,15,1,-29,1,-27,1,-14,1,-4,1,5,1,10,1
248,1,1,16,1,15,1,-8,1,-7,1,16,1,-29,1,-26,1,-13,1,-4,1,5,1,10,1
249,1,1,16,1,15,1,-8,1,-7,1,16,1,-28,1,-25,1,-13,1,-4,1,5,1,10,1
250,1,1,16,1,15,1,-8,1,-7,1,16,1,-28,1,-25,1,-13,1,-5,1,4,1,9,1
251,1,1,16,1,15,1,-8,1,-7,1,16,1,-28,1,-24,1,-12,1,-4,1,4,1,9,1
252,2,1,15,1,13,1,-8,1,-5,1,14,1,-27,1,-23,1,-12,1,-4,1,3,1,8,1
253,2,1,15,1,13,1,-8,1,-5,1,14,1,-26,1,-22,1,-12,1,-4,1,3,1,7,1
254,3,1,15,1,12,1,-9,1,-4,1,14,1,-25,1,-20,1,-12,1,-3,1,3,1,7,1
255,3,1,14,1,11,1,-8,1,-4,1,13,1,-24,1,-19,1,-12,1,-4,1,2,1,6,1
256,2,1,14,1,12,1,-8,1,-5,1,13,1,-23,1,-18,1,-11,1,-4,1,2,1,5,1
257,2,1,12,1,10,1,-7,1,-4,1,11,1,-23,1,-19,1,-11,1,-5,1,0,1,3,1
258,2,1,11,1,9,1,-6,1,-3,1,10,1,-22,1,-19,1,-11,1,-6,1,-1,1,1,1
259,3,1,11,1,8,1,-7,1,-2,1,10,1,-21,1,-18,1,-10,1,-7,1,-2,1,0,1
260,2,1,10,1,8,1,-6,1,-3,1,9,1,-19,1,-16,1,-9,1,-7,1,-2,1,0,1
261,0,1,9,1,9,1,-4,1,-4,1,9,1,-18,1,-14,1,-9,1,-7,1,-4,1,-1,1
262,0,1,7,1,7,1,-3,1,-3,1,7,1,-17,1,-14,1,-9,1,-7,1,-5,1,-2,1
263,-1,1,6,1,7,1,-2,1,-4,1,6,1,-16,1,-13,1,-9,1,-7,1,-6,1,-3,1
264,-1,1,6,1,7,1,-2,1,-4,1,6,1,-15,1,-13,1,-9,1,-7,1,-7,1,-4,1
265,-1,1,5,1,6,1,-2,1,-3,1,5,1,-14,1,-13,1,-9,1,-7,1,-8,1,-4,1
266,-1,1,5,1,6,1,-2,1,-3,1,5,1,-13,1,-13,1,-8,1,-8,1,-9,1,-5,1
267,-2,1,5,1,7,1,-1,1,-4,1,6,1,-12,1,-13,1,-7,1,-8,1,-9,1,-6,1
268,-2,1,5,1,7,1,-1,1,-4,1,6,1,-12,1,-13,1,-7,1,-8,1,-10,1,-7,1
269,-2,1,3,1,5,1,0,1,-3,1,4,1,-11,1,-13,1,-6,1,-10,1,-12,1,-8,1
270,-3,1,3,1,6,1,0,1,-4,1,4,1,-10,1,-13,1,-6,1,-11,1,-12,1,-10,1
271,-2,1,4,1,6,1,-1,1,-4,1,5,1,-10,1,-14,1,-7,1,-11,1,-13,1,-11,1
272,-3,1,3,1,6,1,0,1,-4,1,4,1,-10,1,-14,1,-7,1,-12,1,-14,1,-12,1
273,-3,1,2,1,5,1,0,1,-4,1,3,1,-9,1,-15,1,-7,1,-11,1,-14,1,-13,1
274,-3,1,2,1,5,1,0,1,-4,1,3,1,-9,1,-16,1,-8,1,-11,1,-15,1,-13,1
275,-3,1,1,1,4,1,1,1,-3,1,2,1,-9,1,-17,1,-9,1,-12,1,-16,1,-14,1
276,-4,1,0,1,4,1,2,1,-4,1,2,1,-8,1,-17,1,-8,1,-12,1,-16,1,-13,1
277,-7,1,0,1,7,1,3,1,-7,1,3,1,-8,1,-17,1,-8,1,-13,1,-16,1,-13,1
278,-8,1,-1,1,7,1,4,1,-8,1,3,1,-8,1,-16,1,-8,1,-13,1,-16,1,-14,1
279,-8,1,-1,1,7,1,4,1,-8,1,3,1,-8,1,-17,1,-9,1,-13,1,-16,1,-15,1
280,-8,1,-1,1,7,1,4,1,-8,1,3,1,-8,1,-17,1,-9,1,-13,1,-17,1,-15,1
281,-8,1,-2,1,6,1,5,1,-7,1,2,1,-7,1,-17,1,-9,1,-13,1,-18,1,-15,1
282,-9,1,-2,1,7,1,5,1,-8,1,2,1,-6,1,-17,1,-10,1,-13,1,-18,1,-15,1
283,-8,1,-1,1,7,1,4,1,-8,1,3,1,-5,1,-17,1,-10,1,-13,1,-17,1,-15,1
284,-8,1,0,1,8,1,4,1,-8,1,4,1,-5,1,-17,1,-10,1,-12,1,-17,1,-14,1
285,-9,1,-1,1,8,1,5,1,-9,1,3,1,-5,1,-18,1,-10,1,-12,1,-17,1,-15,1
286,-9,1,-2,1,7,1,5,1,-8,1,2,1,-6,1,-19,1,-11,1,-13,1,-18,1,-15,1
287,-8,1,-1,1,7,1,4,1,-8,1,3,1,-5,1,-20,1,-11,1,-13,1,-18,1,-15,1
288,-7,1,-1,1,6,1,4,1,-7,1,2,1,-6,1,-20,1,-11,1,-14,1,-18,1,-16,1
289,-6,1,-1,1,5,1,3,1,-6,1,2,1,-6,1,-21,1,-11,1,-14,1,-19,1,-17,1
290,-3,1,1,1,4,1,1,1,-3,1,2,1,-4,1,-20,1,-10,1,-13,1,-19,1,-16,1
291,0,1,3,1,3,1,-1,1,-1,1,3,1,-4,1,-19,1,-9,1,-13,1,-19,1,-16,1
292,0,1,3,1,3,1,-1,1,-1,1,3,1,-4,1,-19,1,-9,1,-13,1,-20,1,-16,1
293,-3,1,1,1,4,1,1,1,-3,1,2,1,-4,1,-19,1,-9,1,-14,1,-20,1,-16,1
294,-5,1,0,1,5,1,2,1,-5,1,2,1,-6,1,-20,1,-11,1,-15,1,-21,1,-16,1
295,-5,1,0,1,5,1,2,1,-5,1,2,1,-7,1,-20,1,-12,1,-15,1,-21,1,-16,1
296,-4,1,0,1,4,1,2,1,-4,1,2,1,-7,1,-21,1,-12,1,-15,1,-22,1,-16,1
297,-4,1,0,1,4,1,2,1,-4,1,2,1,-7,1,-21,1,-13,1,-15,1,-21,1,-16,1
298,-4,1,0,1,4,1,2,1,-4,1,2,1,-7,1,-21,1,-13,1,-16,1,-21,1,-16,1
299,-3,1,-1,1,2,1,2,1,-3,1,0,1,-7,1,-22,1,-13,1,-17,1,-21,1,-18,1
300,-3,1,-3,1,0,1,3,1,-2,1,-2,1,-7,1,-22,1,-12,1,-17,1,-20,1,-19,1
301,-5,1,-3,1,2,1,4,1,-4,1,-1,1,-6,1,-22,1,-12,1,-17,1,-20,1,-19,1
302,-8,1,-4,1,4,1,6,1,-6,1,0,1,-6,1,-22,1,-12,1,-18,1,-21,1,-20,1
303,-8,1,-4,1,4,1,6,1,-6,1,0,1,-6,1,-21,1,-13,1,-17,1,-20,1,-20,1
304,-5,1,-2,1,3,1,3,1,-4,1,0,1,-6,1,-21,1,-13,1,-17,1,-20,1,-19,1
305,-3,1,-1,1,2,1,2,1,-3,1,0,1,-6,1,-21,1,-14,1,-17,1,-20,1,-19,1
306,-2,1,-1,1,1,1,1,1,-2,1,0,1,-6,1,-21,1,-15,1,-17,1,-20,1,-19,1
307,-3,1,-1,1,2,1,2,1,-3,1,0,1,-7,1,-22,1,-15,1,-17,1,-20,1,-19,1
308,-4,1,0,1,4,1,2,1,-4,1,2,1,-6,1,-22,1,-14,1,-17,1,-20,1,-19,1
309,-6,1,0,1,6,1,3,1,-6,1,3,1,-5,1,-22,1,-13,1,-17,1,-20,1,-18,1
310,-5,1,1,1,6,1,2,1,-5,1,3,1,-5,1,-21,1,-11,1,-17,1,-20,1,-18,1
311,-5,1,1,1,6,1,2,1,-5,1,3,1,-5,1,-21,1,-11,1,-17,1,-20,1,-18,1
312,-4,1,2,1,6,1,1,1,-5,1,4,1,-6,1,-21,1,-12,1,-18,1,-21,1,-18,1
313,-4,1,2,1,6,1,1,1,-5,1,4,1,-5,1,-20,1,-12,1,-17,1,-21,1,-17,1
314,-5,1,2,1,7,1,1,1,-6,1,4,1,-6,1,-20,1,-12,1,-17,1,-21,1,-17,1
315,-6,1,0,1,6,1,3,1,-6,1,3,1,-6,1,-20,1,-12,1,-17,1,-20,1,-17,1
316,-7,1,0,1,7,1,3,1,-7,1,3,1,-5,1,-20,1,-12,1,-15,1,-20,1,-16,1
317,-7,1,0,1,7,1,3,1,-7,1,3,1,-5,1,-20,1,-11,1,-15,1,-19,1,-15,1
318,-7,1,0,1,7,1,3,1,-7,1,3,1,-6,1,-20,1,-11,1,-16,1,-19,1,-15,1
319,-7,1,0,1,7,1,3,1,-7,1,3,1,-5,1,-19,1,-11,1,-16,1,-19,1,-15,1
320,-6,1,0,1,6,1,3,1,-6,1,3,1,-5,1,-19,1,-11,1,-16,1,-19,1,-15,1
321,-6,1,0,1,6,1,3,1,-6,1,3,1,-6,1,-19,1,-12,1,-17,1,-19,1,-15,1
322,-6,1,1,1,7,1,2,1,-6,1,4,1,-6,1,-20,1,-12,1,-17,1,-20,1,-16,1
323,-5,1,2,1,7,1,1,1,-6,1,4,1,-6,1,-20,1,-12,1,-17,1,-20,1,-16,1
324,-4,1,3,1,7,1,0,1,-5,1,5,1,-7,1,-20,1,-13,1,-16,1,-20,1,-17,1
325,-4,1,2,1,6,1,1,1,-5,1,4,1,-8,1,-20,1,-13,1,-16,1,-20,1,-17,1
326,-3,1,2,1,5,1,0,1,-4,1,3,1,-8,1,-19,1,-12,1,-15,1,-19,1,-16,1
327,-3,1,3,1,6,1,0,1,-4,1,4,1,-8,1,-19,1,-11,1,-15,1,-19,1,-15,1
328,-3,1,3,1,6,1,0,1,-4,1,4,1,-8,1,-21,1,-11,1,-15,1,-19,1,-15,1
329,-3,1,3,1,6,1,0,1,-4,1,4,1,-8,1,-21,1,-12,1,-15,1,-20,1,-15,1
330,-3,1,4,1,7,1,0,1,-5,1,5,1,-8,1,-21,1,-12,1,-15,1,-19,1,-15,1
331,-3,1,4,1,7,1,0,1,-5,1,5,1,-8,1,-21,1,-11,1,-15,1,-19,1,-15,1
332,-3,1,4,1,7,1,0,1,-5,1,5,1,-7,1,-20,1,-10,1,-15,1,-19,1,-15,1
333,-3,1,5,1,8,1,-1,1,-5,1,6,1,-7,1,-19,1,-9,1,-14,1,-17,1,-14,1
334,-3,1,6,1,9,1,-1,1,-6,1,7,1,-7,1,-19,1,-8,1,-13,1,-17,1,-14,1
335,-3,1,5,1,8,1,-1,1,-5,1,6,1,-8,1,-20,1,-8,1,-13,1,-17,1,-14,1
336,-3,1,4,1,7,1,0,1,-5,1,5,1,-8,1,-20,1,-9,1,-14,1,-17,1,-14,1
337,-3,1,4,1,7,1,0,1,-5,1,5,1,-8,1,-20,1,-7,1,-14,1,-17,1,-15,1
338,-4,1,2,1,6,1,1,1,-5,1,4,1,-8,1,-19,1,-6,1,-15,1,-17,1,-14,1
339,-5,1,2,1,7,1,1,1,-6,1,4,1,-8,1,-18,1,-4,1,-14,1,-17,1,-14,1
340,-3,1,3,1,6,1,0,1,-4,1,4,1,-8,1,-18,1,-3,1,-14,1,-18,1,-14,1
341,-2,1,3,1,5,1,0,1,-3,1,4,1,-8,1,-18,1,-2,1,-14,1,-18,1,-15,1
342,-2,1,4,1,6,1,-1,1,-4,1,5,1,-8,1,-18,1,-1,1,-14,1,-18,1,-14,1
343,-3,1,3,1,6,1,0,1,-4,1,4,1,-8,1,-17,1,0,1,-14,1,-18,1,-14,1
344,-4,1,3,1,7,1,0,1,-5,1,5,1,-8,1,-17,1,2,1,-14,1,-17,1,-13,1
345,-4,1,3,1,7,1,0,1,-5,1,5,1,-8,1,-17,1,3,1,-14,1,-17,1,-13,1
346,-4,1,4,1,8,1,0,1,-6,1,6,1,-7,1,-18,1,4,1,-15,1,-17,1,-13,1
347,-4,1,4,1,8,1,0,1,-6,1,6,1,-7,1,-17,1,5,1,-15,1,-17,1,-13,1
348,-3,1,4,1,7,1,0,1,-5,1,5,1,-8,1,-17,1,6,1,-14,1,-17,1,-13,1
349,-2,1,4,1,6,1,-1,1,-4,1,5,1,-7,1,-17,1,6,1,-14,1,-17,1,-13,1
350,-1,1,5,1,6,1,-2,1,-3,1,5,1,-7,1,-17,1,6,1,-13,1,-17,1,-12,1
351,-1,1,6,1,7,1,-2,1,-4,1,6,1,-7,1,-17,1,7,1,-13,1,-17,1,-12,1
352,0,1,6,1,6,1,-3,1,-3,1,6,1,-8,1,-17,1,6,1,-13,1,-17,1,-12,1
353,0,1,6,1,6,1,-3,1,-3,1,6,1,-7,1,-16,1,6,1,-13,1,-16,1,-12,1
354,0,1,6,1,6,1,-3,1,-3,1,6,1,-8,1,-16,1,5,1,-14,1,-16,1,-12,1
355,0,1,6,1,6,1,-3,1,-3,1,6,1,-8,1,-16,1,5,1,-14,1,-16,1,-12,1
356,0,1,4,1,4,1,-2,1,-2,1,4,1,-8,1,-16,1,5,1,-14,1,-17,1,-12,1
357,-1,1,3,1,4,1,-1,1,-2,1,3,1,-7,1,-15,1,5,1,-13,1,-17,1,-12,1
358,-3,1,4,1,7,1,0,1,-5,1,5,1,-7,1,-15,1,6,1,-13,1,-17,1,-12,1
359,-3,1,4,1,7,1,0,1,-5,1,5,1,-7,1,-15,1,6,1,-13,1,-17,1,-12,1
360,-4,1,4,1,8,1,0,1,-6,1,6,1,-7,1,-15,1,6,1,-13,1,-17,1,-12,1
361,-4,1,4,1,8,1,0,1,-6,1,6,1,-8,1,-15,1,6,1,-14,1,-17,1,-12,1
362,-2,1,4,1,6,1,-1,1,-4,1,5,1,-9,1,-16,1,5,1,-14,1,-18,1,-13,1
363,-1,1,4,1,5,1,-1,1,-3,1,4,1,-9,1,-17,1,4,1,-14,1,-18,1,-14,1
364,-1,1,5,1,6,1,-2,1,-3,1,5,1,-8,1,-17,1,3,1,-13,1,-17,1,-13,1
365,-1,1,4,1,5,1,-1,1,-3,1,4,1,-7,1,-17,1,3,1,-13,1,-17,1,-13,1
366,-1,1,5,1,6,1,-2,1,-3,1,5,1,-8,1,-18,1,2,1,-14,1,-18,1,-14,1
367,-1,1,4,1,5,1,-1,1,-3,1,4,1,-8,1,-18,1,2,1,-14,1,-18,1,-14,1
368,-2,1,4,1,6,1,-1,1,-4,1,5,1,-8,1,-18,1,2,1,-15,1,-19,1,-14,1
369,-2,1,3,1,5,1,0,1,-3,1,4,1,-8,1,-18,1,2,1,-15,1,-18,1,-13,1
370,-2,1,3,1,5,1,0,1,-3,1,4,1,-7,1,-18,1,2,1,-15,1,-18,1,-13,1
371,-3,1,4,1,7,1,0,1,-5,1,5,1,-6,1,-17,1,3,1,-15,1,-17,1,-13,1
372,-3,1,4,1,7,1,0,1,-5,1,5,1,-6,1,-17,1,3,1,-15,1,-17,1,-12,1
373,-3,1,5,1,8,1,-1,1,-5,1,6,1,-6,1,-16,1,3,1,-15,1,-17,1,-12,1
374,-1,1,4,1,5,1,-1,1,-3,1,4,1,-7,1,-16,1,3,1,-14,1,-18,1,-12,1
375,0,1,3,1,3,1,-1,1,-1,1,3,1,-7,1,-16,1,2,1,-14,1,-18,1,-12,1
376,1,1,3,1,2,1,-2,1,0,1,3,1,-8,1,-16,1,2,1,-15,1,-18,1,-12,1
377,2,1,3,1,1,1,-2,1,1,1,2,1,-8,1,-17,1,2,1,-15,1,-18,1,-12,1
378,3,1,3,1,0,1,-3,1,2,1,2,1,-8,1,-17,1,1,1,-16,1,-19,1,-13,1
379,2,1,3,1,1,1,-2,1,1,1,2,1,-7,1,-17,1,2,1,-16,1,-18,1,-14,1
380,-1,1,2,1,3,1,0,1,-2,1,2,1,-6,1,-17,1,3,1,-16,1,-18,1,-14,1
381,-5,1,2,1,7,1,1,1,-6,1,4,1,-6,1,-17,1,4,1,-16,1,-18,1,-14,1
382,-5,1,2,1,7,1,1,1,-6,1,4,1,-7,1,-17,1,4,1,-16,1,-18,1,-14,1
383,-4,1,1,1,5,1,1,1,-4,1,3,1,-8,1,-18,1,4,1,-16,1,-19,1,-14,1
384,-3,1,1,1,4,1,1,1,-3,1,2,1,-8,1,-18,1,4,1,-16,1,-20,1,-15,1
385,-3,1,1,1,4,1,1,1,-3,1,2,1,-9,1,-18,1,5,1,-16,1,-20,1,-15,1
386,-3,1,1,1,4,1,1,1,-3,1,2,1,-8,1,-17,1,7,1,-15,1,-19,1,-14,1
387,-4,1,2,1,6,1,1,1,-5,1,4,1,-7,1,-17,1,8,1,-15,1,-18,1,-14,1
388,-4,1,2,1,6,1,1,1,-5,1,4,1,-8,1,-17,1,8,1,-15,1,-19,1,-14,1
389,-3,1,1,1,4,1,1,1,-3,1,2,1,-8,1,-17,1,8,1,-16,1,-19,1,-15,1
390,-3,1,1,1,4,1,1,1,-3,1,2,1,-8,1,-16,1,8,1,-16,1,-19,1,-15,1
391,-2,1,2,1,4,1,0,1,-3,1,3,1,-7,1,-16,1,8,1,-16,1,-19,1,-15,1
392,0,1,2,1,2,1,-1,1,-1,1,2,1,-7,1,-16,1,8,1,-17,1,-20,1,-15,1
393,1,1,3,1,2,1,-2,1,0,1,3,1,-6,1,-15,1,8,1,-17,1,-20,1,-15,1
394,0,1,3,1,3,1,-1,1,-1,1,3,1,-6,1,-15,1,8,1,-17,1,-20,1,-15,1
395,0,1,3,1,3,1,-1,1,-1,1,3,1,-6,1,-14,1,9,1,-16,1,-19,1,-15,1
396,1,1,5,1,4,1,-3,1,-1,1,5,1,-4,1,-14,1,11,1,-14,1,-17,1,-13,1
397,1,1,7,1,6,1,-4,1,-2,1,7,1,-4,1,-12,1,13,1,-12,1,-16,1,-12,1
398,2,1,8,1,6,1,-5,1,-2,1,7,1,-3,1,-12,1,14,1,-12,1,-16,1,-11,1
399,2,1,9,1,7,1,-5,1,-2,1,8,1,-1,1,-11,1,15,1,-12,1,-15,1,-10,1
400,2,1,11,1,9,1,-6,1,-3,1,10,1,1,1,-10,1,17,1,-11,1,-14,1,-10,1
401,2,1,12,1,10,1,-7,1,-4,1,11,1,2,1,-9,1,17,1,-11,1,-14,1,-10,1
402,2,1,13,1,11,1,-7,1,-4,1,12,1,3,1,-7,1,18,1,-10,1,-13,1,-9,1
403,1,1,15,1,14,1,-8,1,-6,1,15,1,3,1,-6,1,19,1,-9,1,-13,1,-9,1
404,0,1,16,1,16,1,-8,1,-8,1,16,1,4,1,-4,1,21,1,-9,1,-12,1,-9,1
405,0,1,17,1,17,1,-8,1,-8,1,17,1,5,1,-2,1,22,1,-8,1,-12,1,-9,1
406,1,1,17,1,16,1,-9,1,-7,1,17,1,6,1,-1,1,22,1,-7,1,-11,1,-8,1
407,2,1,18,1,16,1,-10,1,-7,1,17,1,7,1,0,1,24,1,-7,1,-11,1,-8,1
408,2,1,17,1,15,1,-9,1,-6,1,16,1,7,1,0,1,24,1,-6,1,-11,1,-8,1
409,2,1,17,1,15,1,-9,1,-6,1,16,1,7,1,2,1,25,1,-5,1,-11,1,-7,1
410,3,1,17,1,14,1,-10,1,-5,1,16,1,7,1,4,1,26,1,-5,1,-11,1,-7,1
411,3,1,17,1,14,1,-10,1,-5,1,16,1,6,1,3,1,25,1,-4,1,-10,1,-7,1
412,3,1,19,1,16,1,-11,1,-6,1,18,1,5,1,3,1,26,1,-3,1,-9,1,-6,1
413,4,1,19,1,15,1,-11,1,-5,1,17,1,3,1,0,1,25,1,-3,1,-9,1,-6,1
414,2,1,19,1,17,1,-10,1,-7,1,18,1,0,1,-3,1,24,1,-4,1,-9,1,-6,1
415,2,1,19,1,17,1,-10,1,-7,1,18,1,-4,1,-6,1,24,1,-5,1,-10,1,-7,1
416,2,1,19,1,17,1,-10,1,-7,1,18,1,-8,1,-8,1,23,1,-5,1,-8,1,-6,1
417,4,1,21,1,17,1,-12,1,-6,1,19,1,-11,1,-11,1,22,1,-5,1,-8,1,-5,1
418,6,1,23,1,17,1,-14,1,-5,1,20,1,-14,1,-14,1,20,1,-6,1,-8,1,-5,1
419,8,1,23,1,15,1,-15,1,-3,1,19,1,-16,1,-16,1,19,1,-8,1,-9,1,-6,1
420,7,1,23,1,16,1,-15,1,-4,1,20,1,-16,1,-18,1,18,1,-9,1,-9,1,-6,1
421,4,1,23,1,19,1,-13,1,-7,1,21,1,-15,1,-19,1,18,1,-10,1,-9,1,-5,1
422,3,1,23,1,20,1,-13,1,-8,1,22,1,-14,1,-20,1,17,1,-10,1,-9,1,-5,1
423,4,1,23,1,19,1,-13,1,-7,1,21,1,-14,1,-21,1,16,1,-10,1,-10,1,-5,1
424,5,1,22,1,17,1,-13,1,-6,1,20,1,-15,1,-22,1,15,1,-10,1,-11,1,-5,1
425,5,1,22,1,17,1,-13,1,-6,1,20,1,-15,1,-22,1,15,1,-9,1,-11,1,-5,1
426,7,1,21,1,14,1,-14,1,-3,1,18,1,-16,1,-22,1,16,1,-10,1,-11,1,-4,1
427,7,1,21,1,14,1,-14,1,-3,1,18,1,-17,1,-22,1,16,1,-10,1,-10,1,-4,1
428,7,1,21,1,14,1,-14,1,-3,1,18,1,-17,1,-22,1,16,1,-10,1,-9,1,-3,1
429,7,1,21,1,14,1,-14,1,-3,1,18,1,-17,1,-22,1,17,1,-10,1,-9,1,-3,1
430,7,1,20,1,13,1,-13,1,-3,1,17,1,-18,1,-21,1,17,1,-10,1,-8,1,-3,1
431,7,1,17,1,10,1,-12,1,-1,1,14,1,-18,1,-21,1,17,1,-11,1,-8,1,-3,1
432,7,1,16,1,9,1,-11,1,-1,1,13,1,-17,1,-20,1,16,1,-11,1,-8,1,-4,1
433,7,1,15,1,8,1,-11,1,0,1,12,1,-17,1,-20,1,16,1,-11,1,-8,1,-4,1
434,8,1,14,1,6,1,-11,1,1,1,10,1,-16,1,-20,1,16,1,-11,1,-9,1,-5,1
435,8,1,13,1,5,1,-10,1,2,1,9,1,-15,1,-19,1,15,1,-11,1,-10,1,-6,1
436,6,1,11,1,5,1,-8,1,1,1,8,1,-14,1,-18,1,17,1,-11,1,-10,1,-7,1
437,3,1,8,1,5,1,-5,1,-1,1,7,1,-13,1,-17,1,16,1,-11,1,-11,1,-8,1
438,0,1,6,1,6,1,-3,1,-3,1,6,1,-11,1,-16,1,16,1,-12,1,-12,1,-9,1
439,-1,1,5,1,6,1,-2,1,-3,1,5,1,-9,1,-17,1,16,1,-12,1,-12,1,-10,1
440,-1,1,4,1,5,1,-1,1,-3,1,4,1,-8,1,-17,1,16,1,-13,1,-14,1,-11,1
441,-1,1,2,1,3,1,0,1,-2,1,2,1,-7,1,-17,1,15,1,-14,1,-16,1,-12,1
442,-1,1,1,1,2,1,0,1,-1,1,1,1,-6,1,-16,1,15,1,-15,1,-17,1,-13,1
443,-1,1,0,1,1,1,0,1,-1,1,0,1,-6,1,-16,1,15,1,-15,1,-18,1,-14,1
444,-2,1,-2,1,0,1,2,1,-1,1,-1,1,-6,1,-16,1,14,1,-16,1,-20,1,-16,1
445,-2,1,-2,1,0,1,2,1,-1,1,-1,1,-5,1,-16,1,13,1,-17,1,-21,1,-17,1
446,-2,1,-2,1,0,1,2,1,-1,1,-1,1,-5,1,-16,1,12,1,-18,1,-22,1,-18,1
447,-2,1,-2,1,0,1,2,1,-1,1,-1,1,-5,1,-16,1,11,1,-19,1,-22,1,-19,1
448,-2,1,-3,1,-1,1,2,1,-1,1,-2,1,-5,1,-16,1,10,1,-19,1,-23,1,-19,1
449,-4,1,-5,1,-1,1,4,1,-2,1,-3,1,-5,1,-16,1,10,1,-20,1,-23,1,-20,1
450,-5,1,-5,1,0,1,5,1,-3,1,-3,1,-3,1,-15,1,11,1,-19,1,-22,1,-19,1
451,-6,1,-5,1,1,1,5,1,-4,1,-2,1,-3,1,-15,1,12,1,-19,1,-22,1,-19,1
452,-5,1,-6,1,-1,1,5,1,-2,1,-4,1,-2,1,-15,1,12,1,-18,1,-21,1,-19,1
453,-5,1,-6,1,-1,1,5,1,-2,1,-4,1,-2,1,-15,1,12,1,-18,1,-21,1,-19,1
454,-6,1,-6,1,0,1,6,1,-3,1,-3,1,-2,1,-15,1,12,1,-18,1,-22,1,-20,1
455,-8,1,-7,1,1,1,7,1,-5,1,-3,1,-3,1,-15,1,12,1,-19,1,-22,1,-20,1
456,-10,1,-8,1,2,1,9,1,-6,1,-3,1,-3,1,-15,1,12,1,-19,1,-22,1,-21,1
457,-10,1,-7,1,3,1,8,1,-7,1,-2,1,-3,1,-15,1,13,1,-19,1,-22,1,-21,1
458,-8,1,-7,1,1,1,7,1,-5,1,-3,1,-3,1,-14,1,13,1,-19,1,-22,1,-20,1
459,-8,1,-7,1,1,1,7,1,-5,1,-3,1,-2,1,-12,1,14,1,-19,1,-23,1,-20,1
460,-9,1,-8,1,1,1,8,1,-5,1,-4,1,-1,1,-8,1,16,1,-18,1,-23,1,-21,1
461,-9,1,-9,1,0,1,9,1,-5,1,-5,1,0,1,-3,1,19,1,-17,1,-24,1,-22,1
462,-7,1,-9,1,-2,1,8,1,-3,1,-6,1,1,1,3,1,24,1,-15,1,-25,1,-23,1
463,-7,1,-6,1,1,1,6,1,-4,1,-3,1,4,1,11,1,32,1,-10,1,-22,1,-22,1
464,-5,1,-2,1,3,1,3,1,-4,1,0,1,7,1,20,1,43,1,-1,1,-17,1,-20,1
465,-3,1,2,1,5,1,0,1,-4,1,3,1,9,1,28,1,57,1,10,1,-10,1,-16,1
466,-2,1,8,1,10,1,-3,1,-6,1,9,1,10,1,35,1,71,1,24,1,0,1,-10,1
467,0,1,17,1,17,1,-8,1,-8,1,17,1,9,1,35,1,81,1,38,1,12,1,-1,1
468,3,1,28,1,25,1,-15,1,-11,1,27,1,5,1,29,1,86,1,51,1,26,1,11,1
469,11,1,41,1,30,1,-26,1,-9,1,36,1,-1,1,19,1,91,1,66,1,44,1,29,1
470,24,1,54,1,30,1,-39,1,-3,1,42,1,-12,1,8,1,96,1,84,1,69,1,51,1
471,38,1,69,1,31,1,-53,1,4,1,50,1,-22,1,-1,1,104,1,105,1,99,1,78,1
472,52,1,85,1,33,1,-68,1,10,1,59,1,-32,1,-13,1,110,1,128,1,131,1,107,1
473,64,1,101,1,37,1,-82,1,14,1,69,1,-43,1,-28,1,111,1,148,1,163,1,136,1
474,74,1,117,1,43,1,-95,1,16,1,80,1,-54,1,-43,1,111,1,167,1,192,1,162,1
475,81,1,129,1,48,1,-105,1,17,1,89,1,-61,1,-53,1,114,1,185,1,216,1,183,1
476,87,1,134,1,47,1,-110,1,20,1,91,1,-65,1,-58,1,117,1,199,1,231,1,195,1
477,90,1,128,1,38,1,-109,1,26,1,83,1,-63,1,-61,1,115,1,201,1,231,1,193,1
478,86,1,117,1,31,1,-101,1,28,1,74,1,-59,1,-66,1,104,1,189,1,216,1,180,1
479,77,1,106,1,29,1,-91,1,24,1,68,1,-55,1,-75,1,82,1,166,1,192,1,162,1
480,67,1,96,1,29,1,-81,1,19,1,63,1,-53,1,-89,1,49,1,130,1,159,1,138,1
481,55,1,84,1,29,1,-69,1,13,1,57,1,-50,1,-106,1,5,1,82,1,117,1,108,1
482,41,1,72,1,31,1,-56,1,5,1,52,1,-47,1,-124,1,-40,1,30,1,72,1,78,1
483,27,1,60,1,33,1,-43,1,-3,1,47,1,-42,1,-137,1,-82,1,-20,1,28,1,47,1
484,12,1,47,1,35,1,-29,1,-11,1,41,1,-38,1,-145,1,-111,1,-58,1,-6,1,23,1
485,1,1,32,1,31,1,-16,1,-15,1,32,1,-36,1,-150,1,-128,1,-83,1,-29,1,3,1
486,-6,1,17,1,23,1,-5,1,-14,1,20,1,-32,1,-151,1,-138,1,-99,1,-48,1,-15,1
487,-12,1,4,1,16,1,4,1,-14,1,10,1,-26,1,-145,1,-139,1,-109,1,-62,1,-29,1
488,-17,1,-6,1,11,1,11,1,-14,1,2,1,-19,1,-138,1,-137,1,-113,1,-71,1,-40,1
489,-20,1,-11,1,9,1,15,1,-15,1,-1,1,-14,1,-132,1,-130,1,-113,1,-75,1,-46,1
490,-22,1,-13,1,9,1,17,1,-16,1,-2,1,-10,1,-122,1,-118,1,-109,1,-74,1,-48,1
491,-22,1,-14,1,8,1,18,1,-15,1,-3,1,-8,1,-108,1,-104,1,-102,1,-71,1,-46,1
492,-21,1,-15,1,6,1,18,1,-14,1,-5,1,-7,1,-94,1,-90,1,-94,1,-67,1,-44,1
493,-21,1,-16,1,5,1,18,1,-13,1,-6,1,-5,1,-78,1,-73,1,-84,1,-62,1,-42,1
494,-19,1,-14,1,5,1,16,1,-12,1,-5,1,-6,1,-65,1,-57,1,-74,1,-56,1,-39,1
495,-17,1,-13,1,4,1,15,1,-11,1,-5,1,-7,1,-55,1,-45,1,-64,1,-52,1,-36,1
496,-17,1,-13,1,4,1,15,1,-11,1,-5,1,-6,1,-46,1,-33,1,-55,1,-47,1,-34,1
497,-15,1,-12,1,3,1,13,1,-9,1,-5,1,-6,1,-40,1,-25,1,-47,1,-43,1,-32,1
498,-13,1,-10,1,3,1,11,1,-8,1,-4,1,-6,1,-36,1,-19,1,-40,1,-39,1,-30,1
499,-11,1,-9,1,2,1,10,1,-7,1,-4,1,-5,1,-32,1,-14,1,-36,1,-35,1,-27,1
500,-8,1,-5,1,3,1,6,1,-6,1,-1,1,-5,1,-26,1,-10,1,-32,1,-30,1,-24,1
501,-5,1,-3,1,2,1,4,1,-4,1,-1,1,-5,1,-21,1,-6,1,-29,1,-28,1,-22,1
502,-7,1,-4,1,3,1,5,1,-5,1,-1,1,-5,1,-16,1,-3,1,-28,1,-27,1,-22,1
503,-8,1,-5,1,3,1,6,1,-6,1,-1,1,-3,1,-12,1,0,1,-27,1,-26,1,-22,1
504,-9,1,-5,1,4,1,7,1,-7,1,-1,1,-1,1,-9,1,3,1,-26,1,-25,1,-21,1
505,-10,1,-5,1,5,1,7,1,-8,1,0,1,0,1,-9,1,5,1,-25,1,-25,1,-22,1
506,-10,1,-6,1,4,1,8,1,-7,1,-1,1,0,1,-9,1,6,1,-24,1,-25,1,-23,1
507,-10,1,-6,1,4,1,8,1,-7,1,-1,1,0,1,-10,1,6,1,-24,1,-26,1,-24,1
508,-11,1,-7,1,4,1,9,1,-8,1,-2,1,-1,1,-11,1,6,1,-23,1,-26,1,-24,1
509,-11,1,-7,1,4,1,9,1,-8,1,-2,1,-1,1,-11,1,7,1,-23,1,-25,1,-24,1
510,-10,1,-6,1,4,1,8,1,-7,1,-1,1,-2,1,-11,1,7,1,-23,1,-25,1,-24,1
511,-9,1,-5,1,4,1,7,1,-7,1,-1,1,-2,1,-9,1,7,1,-23,1,-24,1,-22,1
512,-8,1,-5,1,3,1,6,1,-6,1,-1,1,-1,1,-6,1,9,1,-21,1,-24,1,-21,1
513,-7,1,-4,1,3,1,5,1,-5,1,-1,1,-1,1,-5,1,9,1,-20,1,-24,1,-21,1
514,-6,1,-4,1,2,1,5,1,-4,1,-1,1,-1,1,-5,1,9,1,-20,1,-24,1,-21,1
515,-6,1,-5,1,1,1,5,1,-4,1,-2,1,-1,1,-5,1,10,1,-19,1,-24,1,-21,1
516,-8,1,-4,1,4,1,6,1,-6,1,0,1,0,1,-4,1,11,1,-18,1,-23,1,-21,1
517,-10,1,-4,1,6,1,7,1,-8,1,1,1,1,1,-4,1,12,1,-18,1,-23,1,-21,1
518,-9,1,-4,1,5,1,6,1,-7,1,0,1,0,1,-4,1,11,1,-19,1,-23,1,-22,1
519,-7,1,-3,1,4,1,5,1,-6,1,0,1,1,1,-5,1,11,1,-19,1,-22,1,-22,1
520,-7,1,-2,1,5,1,4,1,-6,1,1,1,1,1,-4,1,12,1,-18,1,-22,1,-22,1
521,-7,1,-2,1,5,1,4,1,-6,1,1,1,2,1,-3,1,12,1,-18,1,-21,1,-21,1
522,-9,1,-3,1,6,1,6,1,-8,1,1,1,2,1,-3,1,12,1,-17,1,-21,1,-21,1
523,-11,1,-5,1,6,1,8,1,-9,1,0,1,2,1,-2,1,12,1,-17,1,-22,1,-21,1
524,-11,1,-3,1,8,1,7,1,-10,1,2,1,1,1,-2,1,11,1,-16,1,-22,1,-20,1
525,-10,1,-3,1,7,1,6,1,-9,1,2,1,1,1,-2,1,10,1,-16,1,-22,1,-20,1
526,-10,1,-3,1,7,1,6,1,-9,1,2,1,1,1,-2,1,10,1,-17,1,-23,1,-21,1
527,-10,1,-3,1,7,1,6,1,-9,1,2,1,1,1,-2,1,10,1,-17,1,-23,1,-21,1
528,-11,1,-3,1,8,1,7,1,-10,1,2,1,1,1,-1,1,11,1,-17,1,-22,1,-20,1
529,-9,1,-3,1,6,1,6,1,-8,1,1,1,1,1,-2,1,11,1,-17,1,-22,1,-20,1
530,-8,1,-3,1,5,1,5,1,-7,1,1,1,1,1,-3,1,11,1,-17,1,-21,1,-21,1
531,-7,1,-3,1,4,1,5,1,-6,1,0,1,0,1,-2,1,11,1,-17,1,-21,1,-21,1
532,-6,1,-3,1,3,1,4,1,-5,1,0,1,0,1,-2,1,10,1,-17,1,-21,1,-21,1
533,-6,1,-3,1,3,1,4,1,-5,1,0,1,0,1,-2,1,10,1,-17,1,-21,1,-21,1
534,-7,1,-3,1,4,1,5,1,-6,1,0,1,0,1,-2,1,9,1,-17,1,-21,1,-22,1
535,-6,1,-3,1,3,1,4,1,-5,1,0,1,0,1,-2,1,8,1,-17,1,-21,1,-22,1
536,-5,1,-3,1,2,1,4,1,-4,1,-1,1,0,1,-2,1,8,1,-16,1,-21,1,-22,1
537,-8,1,-3,1,5,1,5,1,-7,1,1,1,0,1,-2,1,8,1,-16,1,-21,1,-21,1
538,-7,1,-1,1,6,1,4,1,-7,1,2,1,0,1,-1,1,9,1,-16,1,-20,1,-21,1
539,-6,1,-1,1,5,1,3,1,-6,1,2,1,0,1,-2,1,10,1,-16,1,-20,1,-21,1
540,-6,1,-1,1,5,1,3,1,-6,1,2,1,0,1,-2,1,11,1,-16,1,-19,1,-20,1
541,-6,1,-1,1,5,1,3,1,-6,1,2,1,0,1,-2,1,11,1,-16,1,-20,1,-20,1
542,-6,1,-2,1,4,1,4,1,-5,1,1,1,0,1,-2,1,11,1,-15,1,-20,1,-19,1
543,-9,1,-4,1,5,1,6,1,-7,1,0,1,0,1,-2,1,11,1,-15,1,-20,1,-19,1
544,-8,1,-3,1,5,1,5,1,-7,1,1,1,0,1,-2,1,11,1,-15,1,-20,1,-19,1
545,-7,1,-3,1,4,1,5,1,-6,1,0,1,-1,1,-3,1,10,1,-15,1,-21,1,-19,1
546,-7,1,-3,1,4,1,5,1,-6,1,0,1,-1,1,-2,1,10,1,-15,1,-21,1,-18,1
547,-8,1,-2,1,6,1,5,1,-7,1,2,1,0,1,-1,1,10,1,-14,1,-20,1,-17,1
548,-8,1,-1,1,7,1,4,1,-8,1,3,1,0,1,0,1,10,1,-14,1,-19,1,-16,1
549,-8,1,-2,1,6,1,5,1,-7,1,2,1,0,1,-1,1,10,1,-13,1,-19,1,-16,1
550,-7,1,-2,1,5,1,4,1,-6,1,1,1,-1,1,0,1,10,1,-13,1,-19,1,-17,1
551,-5,1,-2,1,3,1,3,1,-4,1,0,1,-2,1,-1,1,10,1,-13,1,-19,1,-17,1
552,-5,1,-2,1,3,1,3,1,-4,1,0,1,-1,1,-1,1,10,1,-13,1,-19,1,-17,1
553,-5,1,-1,1,4,1,3,1,-5,1,1,1,-1,1,0,1,11,1,-12,1,-18,1,-17,1
554,-6,1,0,1,6,1,3,1,-6,1,3,1,-1,1,0,1,12,1,-12,1,-18,1,-16,1
555,-6,1,-1,1,5,1,3,1,-6,1,2,1,-1,1,0,1,12,1,-12,1,-17,1,-16,1
556,-6,1,0,1,6,1,3,1,-6,1,3,1,-1,1,-1,1,12,1,-12,1,-16,1,-16,1
557,-7,1,0,1,7,1,3,1,-7,1,3,1,-1,1,0,1,12,1,-12,1,-16,1,-15,1
558,-6,1,1,1,7,1,2,1,-6,1,4,1,-1,1,0,1,11,1,-12,1,-15,1,-15,1
559,-6,1,2,1,8,1,2,1,-7,1,5,1,-1,1,0,1,11,1,-11,1,-15,1,-15,1
560,-7,1,2,1,9,1,2,1,-8,1,5,1,-1,1,1,1,11,1,-11,1,-15,1,-15,1
561,-8,1,2,1,10,1,3,1,-9,1,6,1,-1,1,1,1,11,1,-10,1,-15,1,-15,1
562,-8,1,2,1,10,1,3,1,-9,1,6,1,-1,1,1,1,11,1,-11,1,-15,1,-15,1
563,-8,1,1,1,9,1,3,1,-8,1,5,1,-1,1,1,1,11,1,-11,1,-15,1,-15,1
564,-7,1,2,1,9,1,2,1,-8,1,5,1,-2,1,0,1,11,1,-10,1,-15,1,-15,1
565,-5,1,2,1,7,1,1,1,-6,1,4,1,-3,1,0,1,10,1,-10,1,-15,1,-15,1
566,-4,1,2,1,6,1,1,1,-5,1,4,1,-3,1,0,1,11,1,-9,1,-14,1,-14,1
567,-4,1,3,1,7,1,0,1,-5,1,5,1,-3,1,1,1,12,1,-9,1,-13,1,-13,1
568,-4,1,3,1,7,1,0,1,-5,1,5,1,-3,1,0,1,11,1,-9,1,-13,1,-13,1
569,-5,1,2,1,7,1,1,1,-6,1,4,1,-4,1,0,1,10,1,-10,1,-13,1,-13,1
570,-4,1,3,1,7,1,0,1,-5,1,5,1,-3,1,0,1,10,1,-9,1,-12,1,-12,1
571,-4,1,5,1,9,1,0,1,-6,1,7,1,-2,1,1,1,11,1,-8,1,-11,1,-11,1
572,-4,1,6,1,10,1,-1,1,-7,1,8,1,-2,1,1,1,11,1,-8,1,-12,1,-12,1
573,-4,1,6,1,10,1,-1,1,-7,1,8,1,-3,1,0,1,11,1,-9,1,-12,1,-12,1
574,-4,1,6,1,10,1,-1,1,-7,1,8,1,-5,1,0,1,11,1,-8,1,-11,1,-12,1
575,-4,1,6,1,10,1,-1,1,-7,1,8,1,-5,1,0,1,11,1,-8,1,-10,1,-12,1
576,-3,1,5,1,8,1,-1,1,-5,1,6,1,-6,1,-1,1,10,1,-8,1,-10,1,-12,1
577,-2,1,4,1,6,1,-1,1,-4,1,5,1,-6,1,-1,1,9,1,-8,1,-10,1,-12,1
578,-2,1,4,1,6,1,-1,1,-4,1,5,1,-7,1,-1,1,8,1,-7,1,-11,1,-12,1
579,-2,1,4,1,6,1,-1,1,-4,1,5,1,-7,1,-2,1,9,1,-7,1,-10,1,-11,1
580,-1,1,5,1,6,1,-2,1,-3,1,5,1,-7,1,-2,1,10,1,-7,1,-10,1,-10,1
581,-1,1,6,1,7,1,-2,1,-4,1,6,1,-7,1,-1,1,10,1,-7,1,-10,1,-9,1
582,0,1,7,1,7,1,-3,1,-3,1,7,1,-8,1,-1,1,10,1,-7,1,-10,1,-9,1
583,1,1,8,1,7,1,-4,1,-3,1,8,1,-9,1,-1,1,10,1,-7,1,-10,1,-9,1
584,1,1,8,1,7,1,-4,1,-3,1,8,1,-10,1,-1,1,10,1,-6,1,-9,1,-9,1
585,2,1,8,1,6,1,-5,1,-2,1,7,1,-11,1,-2,1,9,1,-6,1,-8,1,-9,1
586,1,1,7,1,6,1,-4,1,-2,1,7,1,-12,1,-1,1,9,1,-5,1,-8,1,-10,1
587,-1,1,8,1,9,1,-3,1,-5,1,8,1,-12,1,-1,1,9,1,-4,1,-7,1,-9,1
588,-1,1,9,1,10,1,-4,1,-5,1,9,1,-11,1,0,1,9,1,-3,1,-6,1,-8,1
589,0,1,10,1,10,1,-5,1,-5,1,10,1,-11,1,-1,1,10,1,-3,1,-6,1,-7,1
590,1,1,10,1,9,1,-5,1,-4,1,10,1,-11,1,-1,1,9,1,-3,1,-5,1,-6,1
591,0,1,10,1,10,1,-5,1,-5,1,10,1,-12,1,-1,1,9,1,-3,1,-5,1,-5,1
592,-1,1,9,1,10,1,-4,1,-5,1,9,1,-13,1,-2,1,9,1,-3,1,-5,1,-5,1
593,0,1,9,1,9,1,-4,1,-4,1,9,1,-14,1,-2,1,8,1,-3,1,-5,1,-4,1
594,1,1,10,1,9,1,-5,1,-4,1,10,1,-15,1,-3,1,7,1,-3,1,-5,1,-3,1
595,3,1,11,1,8,1,-7,1,-2,1,10,1,-16,1,-3,1,7,1,-3,1,-5,1,-3,1
596,4,1,12,1,8,1,-8,1,-2,1,10,1,-17,1,-4,1,7,1,-3,1,-3,1,-2,1
597,3,1,13,1,10,1,-8,1,-3,1,12,1,-17,1,-4,1,7,1,-2,1,-2,1,-1,1
598,2,1,14,1,12,1,-8,1,-5,1,13,1,-19,1,-5,1,6,1,-2,1,-1,1,0,1
599,3,1,13,1,10,1,-8,1,-3,1,12,1,-20,1,-6,1,6,1,-2,1,-1,1,0,1
600,5,1,13,1,8,1,-9,1,-1,1,11,1,-20,1,-6,1,5,1,-3,1,-1,1,1,1
601,6,1,14,1,8,1,-10,1,-1,1,11,1,-21,1,-6,1,4,1,-3,1,-1,1,2,1
602,7,1,14,1,7,1,-10,1,0,1,11,1,-22,1,-6,1,3,1,-3,1,-1,1,3,1
603,6,1,14,1,8,1,-10,1,-1,1,11,1,-22,1,-7,1,2,1,-3,1,-1,1,3,1
604,4,1,14,1,10,1,-9,1,-3,1,12,1,-23,1,-7,1,1,1,-4,1,-1,1,4,1
605,4,1,14,1,10,1,-9,1,-3,1,12,1,-23,1,-7,1,1,1,-4,1,0,1,4,1
606,4,1,15,1,11,1,-9,1,-3,1,13,1,-23,1,-7,1,0,1,-4,1,1,1,4,1
607,4,1,15,1,11,1,-9,1,-3,1,13,1,-24,1,-8,1,0,1,-4,1,1,1,4,1
608,7,1,15,1,8,1,-11,1,0,1,12,1,-25,1,-9,1,-2,1,-5,1,0,1,3,1
609,8,1,15,1,7,1,-11,1,1,1,11,1,-26,1,-12,1,-3,1,-6,1,1,1,3,1
610,8,1,16,1,8,1,-12,1,0,1,12,1,-26,1,-12,1,-4,1,-6,1,1,1,4,1
611,8,1,17,1,9,1,-12,1,0,1,13,1,-26,1,-12,1,-5,1,-6,1,2,1,5,1
612,8,1,18,1,10,1,-13,1,-1,1,14,1,-26,1,-13,1,-5,1,-6,1,2,1,5,1
613,8,1,18,1,10,1,-13,1,-1,1,14,1,-26,1,-13,1,-6,1,-7,1,2,1,6,1
614,6,1,18,1,12,1,-12,1,-3,1,15,1,-27,1,-13,1,-7,1,-7,1,2,1,6,1
615,6,1,17,1,11,1,-11,1,-2,1,14,1,-27,1,-14,1,-7,1,-7,1,2,1,6,1
616,6,1,18,1,12,1,-12,1,-3,1,15,1,-28,1,-14,1,-8,1,-6,1,2,1,6,1
617,7,1,19,1,12,1,-13,1,-2,1,16,1,-28,1,-13,1,-7,1,-6,1,3,1,7,1
618,8,1,20,1,12,1,-14,1,-2,1,16,1,-28,1,-14,1,-8,1,-7,1,3,1,7,1
619,11,1,20,1,9,1,-15,1,1,1,15,1,-28,1,-14,1,-8,1,-7,1,3,1,8,1
620,10,1,22,1,12,1,-16,1,-1,1,17,1,-27,1,-13,1,-7,1,-6,1,4,1,9,1
621,9,1,23,1,14,1,-16,1,-2,1,19,1,-26,1,-11,1,-7,1,-6,1,4,1,10,1
622,7,1,22,1,15,1,-14,1,-4,1,19,1,-26,1,-10,1,-7,1,-6,1,4,1,10,1
623,6,1,21,1,15,1,-13,1,-4,1,18,1,-26,1,-9,1,-7,1,-6,1,4,1,9,1
624,5,1,21,1,16,1,-13,1,-5,1,19,1,-25,1,-8,1,-7,1,-6,1,4,1,8,1
625,3,1,19,1,16,1,-11,1,-6,1,18,1,-24,1,-7,1,-6,1,-5,1,4,1,7,1
626,2,1,18,1,16,1,-10,1,-7,1,17,1,-24,1,-6,1,-6,1,-5,1,4,1,6,1
627,1,1,17,1,16,1,-9,1,-7,1,17,1,-23,1,-5,1,-5,1,-4,1,3,1,5,1
628,0,1,16,1,16,1,-8,1,-8,1,16,1,-22,1,-4,1,-5,1,-5,1,2,1,4,1
629,0,1,15,1,15,1,-7,1,-7,1,15,1,-21,1,-3,1,-4,1,-5,1,1,1,3,1
630,1,1,15,1,14,1,-8,1,-6,1,15,1,-20,1,-2,1,-3,1,-4,1,0,1,2,1
631,2,1,13,1,11,1,-7,1,-4,1,12,1,-19,1,-2,1,-3,1,-5,1,-1,1,1,1
632,1,1,12,1,11,1,-6,1,-5,1,12,1,-18,1,-1,1,-2,1,-5,1,-2,1,0,1
633,1,1,11,1,10,1,-6,1,-4,1,11,1,-17,1,-1,1,-2,1,-5,1,-3,1,0,1
634,2,1,10,1,8,1,-6,1,-3,1,9,1,-16,1,0,1,-1,1,-5,1,-3,1,-2,1
635,1,1,9,1,8,1,-5,1,-3,1,9,1,-15,1,0,1,-1,1,-5,1,-4,1,-3,1
636,0,1,10,1,10,1,-5,1,-5,1,10,1,-14,1,1,1,0,1,-5,1,-5,1,-5,1
637,-1,1,10,1,11,1,-4,1,-6,1,10,1,-12,1,2,1,0,1,-5,1,-5,1,-5,1
638,-2,1,10,1,12,1,-4,1,-7,1,11,1,-11,1,3,1,0,1,-6,1,-6,1,-6,1
639,-2,1,9,1,11,1,-3,1,-6,1,10,1,-10,1,3,1,-1,1,-7,1,-8,1,-7,1
640,-3,1,9,1,12,1,-3,1,-7,1,10,1,-9,1,3,1,-1,1,-8,1,-8,1,-7,1
641,-4,1,7,1,11,1,-1,1,-7,1,9,1,-9,1,2,1,-1,1,-9,1,-9,1,-8,1
642,-5,1,5,1,10,1,0,1,-7,1,7,1,-8,1,2,1,-1,1,-10,1,-11,1,-10,1
643,-4,1,5,1,9,1,0,1,-6,1,7,1,-8,1,2,1,0,1,-10,1,-12,1,-10,1
644,-2,1,5,1,7,1,-1,1,-4,1,6,1,-8,1,1,1,0,1,-10,1,-13,1,-10,1
645,-4,1,3,1,7,1,0,1,-5,1,5,1,-7,1,1,1,-1,1,-10,1,-14,1,-11,1
646,-8,1,3,1,11,1,2,1,-9,1,7,1,-6,1,2,1,0,1,-9,1,-15,1,-12,1
647,-10,1,3,1,13,1,3,1,-11,1,8,1,-5,1,2,1,0,1,-9,1,-15,1,-12,1
648,-8,1,5,1,13,1,1,1,-10,1,9,1,-4,1,2,1,0,1,-10,1,-15,1,-13,1
649,-6,1,6,1,12,1,0,1,-9,1,9,1,-3,1,2,1,-1,1,-11,1,-15,1,-14,1
650,-6,1,7,1,13,1,0,1,-9,1,10,1,-3,1,1,1,-1,1,-12,1,-15,1,-15,1
651,-6,1,6,1,12,1,0,1,-9,1,9,1,-3,1,1,1,-1,1,-13,1,-15,1,-15,1
652,-5,1,4,1,9,1,0,1,-7,1,6,1,-3,1,-1,1,-2,1,-14,1,-16,1,-16,1
653,-6,1,2,1,8,1,2,1,-7,1,5,1,-3,1,-2,1,-3,1,-14,1,-17,1,-16,1
654,-6,1,2,1,8,1,2,1,-7,1,5,1,-2,1,-1,1,-3,1,-13,1,-17,1,-16,1
655,-6,1,2,1,8,1,2,1,-7,1,5,1,-2,1,-1,1,-2,1,-13,1,-17,1,-15,1
656,-8,1,1,1,9,1,3,1,-8,1,5,1,-2,1,-1,1,-2,1,-13,1,-17,1,-15,1
657,-8,1,1,1,9,1,3,1,-8,1,5,1,-3,1,-1,1,-2,1,-13,1,-18,1,-16,1
658,-8,1,1,1,9,1,3,1,-8,1,5,1,-3,1,-2,1,-3,1,-14,1,-19,1,-16,1
659,-8,1,0,1,8,1,4,1,-8,1,4,1,-3,1,-2,1,-3,1,-15,1,-19,1,-17,1
660,-8,1,0,1,8,1,4,1,-8,1,4,1,-3,1,-1,1,-3,1,-15,1,-19,1,-17,1
661,-8,1,1,1,9,1,3,1,-8,1,5,1,-3,1,-1,1,-3,1,-15,1,-19,1,-17,1
662,-8,1,0,1,8,1,4,1,-8,1,4,1,-3,1,-1,1,-3,1,-15,1,-19,1,-17,1
663,-9,1,0,1,9,1,4,1,-9,1,4,1,-2,1,-1,1,-3,1,-14,1,-19,1,-17,1
664,-9,1,2,1,11,1,3,1,-10,1,6,1,-2,1,-2,1,-3,1,-14,1,-19,1,-17,1
665,-9,1,2,1,11,1,3,1,-10,1,6,1,-3,1,-3,1,-3,1,-14,1,-18,1,-18,1
666,-6,1,3,1,9,1,1,1,-7,1,6,1,-3,1,-3,1,-3,1,-14,1,-19,1,-18,1
667,-7,1,4,1,11,1,1,1,-9,1,7,1,-3,1,-3,1,-3,1,-15,1,-19,1,-18,1
668,-9,1,3,1,12,1,3,1,-10,1,7,1,-3,1,-3,1,-3,1,-15,1,-19,1,-19,1
669,-8,1,2,1,10,1,3,1,-9,1,6,1,-2,1,-3,1,-2,1,-16,1,-19,1,-19,1
670,-5,1,4,1,9,1,0,1,-7,1,6,1,-2,1,-3,1,-1,1,-16,1,-18,1,-18,1
671,-6,1,5,1,11,1,0,1,-8,1,8,1,-2,1,-3,1,0,1,-15,1,-18,1,-18,1
672,-7,1,5,1,12,1,1,1,-9,1,8,1,-2,1,-2,1,0,1,-15,1,-18,1,-18,1
673,-9,1,4,1,13,1,2,1,-11,1,8,1,-2,1,-3,1,0,1,-14,1,-18,1,-18,1
674,-10,1,3,1,13,1,3,1,-11,1,8,1,-2,1,-3,1,0,1,-14,1,-19,1,-18,1
675,-10,1,3,1,13,1,3,1,-11,1,8,1,-2,1,-2,1,0,1,-14,1,-19,1,-18,1
676,-10,1,3,1,13,1,3,1,-11,1,8,1,-2,1,-3,1,0,1,-14,1,-19,1,-17,1
677,-11,1,3,1,14,1,4,1,-12,1,8,1,-2,1,-2,1,0,1,-14,1,-18,1,-17,1
678,-11,1,3,1,14,1,4,1,-12,1,8,1,-2,1,-3,1,-1,1,-15,1,-18,1,-17,1
679,-10,1,3,1,13,1,3,1,-11,1,8,1,-1,1,-3,1,-1,1,-15,1,-19,1,-17,1
680,-9,1,4,1,13,1,2,1,-11,1,8,1,-1,1,-3,1,0,1,-15,1,-19,1,-17,1
681,-8,1,4,1,12,1,2,1,-10,1,8,1,-1,1,-3,1,0,1,-15,1,-19,1,-17,1
682,-7,1,4,1,11,1,1,1,-9,1,7,1,-1,1,-3,1,-1,1,-15,1,-20,1,-17,1
683,-7,1,4,1,11,1,1,1,-9,1,7,1,-1,1,-3,1,0,1,-15,1,-20,1,-18,1
684,-8,1,3,1,11,1,2,1,-9,1,7,1,-1,1,-3,1,-1,1,-14,1,-19,1,-18,1
685,-6,1,3,1,9,1,1,1,-7,1,6,1,-1,1,-2,1,-1,1,-14,1,-19,1,-18,1
686,-4,1,3,1,7,1,0,1,-5,1,5,1,-2,1,-3,1,-3,1,-15,1,-19,1,-18,1
687,-6,1,1,1,7,1,2,1,-6,1,4,1,-2,1,-3,1,-4,1,-15,1,-19,1,-18,1
688,-9,1,1,1,10,1,4,1,-9,1,5,1,-1,1,-3,1,-4,1,-15,1,-19,1,-17,1
689,-11,1,1,1,12,1,5,1,-11,1,6,1,-1,1,-3,1,-4,1,-15,1,-19,1,-17,1
690,-13,1,3,1,16,1,5,1,-14,1,9,1,0,1,-2,1,-3,1,-15,1,-19,1,-15,1
691,-14,1,4,1,18,1,5,1,-16,1,11,1,0,1,-2,1,-2,1,-15,1,-18,1,-15,1
692,-13,1,4,1,17,1,4,1,-15,1,10,1,0,1,-2,1,-1,1,-15,1,-19,1,-15,1
693,-14,1,2,1,16,1,6,1,-15,1,9,1,0,1,-2,1,-1,1,-15,1,-18,1,-15,1
694,-13,1,2,1,15,1,5,1,-14,1,8,1,0,1,-1,1,0,1,-15,1,-18,1,-16,1
695,-11,1,2,1,13,1,4,1,-12,1,7,1,0,1,-1,1,0,1,-14,1,-17,1,-15,1
696,-9,1,2,1,11,1,3,1,-10,1,6,1,1,1,-1,1,1,1,-14,1,-17,1,-15,1
697,-9,1,1,1,10,1,4,1,-9,1,5,1,0,1,-1,1,1,1,-14,1,-17,1,-15,1
698,-10,1,2,1,12,1,4,1,-11,1,7,1,0,1,0,1,1,1,-14,1,-17,1,-15,1
699,-10,1,2,1,12,1,4,1,-11,1,7,1,0,1,0,1,0,1,-14,1,-17,1,-14,1
700,-10,1,4,1,14,1,3,1,-12,1,9,1,-1,1,0,1,0,1,-14,1,-17,1,-14,1
701,-11,1,4,1,15,1,3,1,-13,1,9,1,-1,1,-1,1,0,1,-15,1,-17,1,-14,1
702,-13,1,4,1,17,1,4,1,-15,1,10,1,0,1,0,1,0,1,-14,1,-17,1,-13,1
703,-14,1,4,1,18,1,5,1,-16,1,11,1,0,1,0,1,1,1,-13,1,-17,1,-13,1
704,-14,1,4,1,18,1,5,1,-16,1,11,1,0,1,0,1,1,1,-13,1,-17,1,-14,1
705,-13,1,3,1,16,1,5,1,-14,1,9,1,-1,1,0,1,1,1,-13,1,-17,1,-15,1
706,-11,1,5,1,16,1,3,1,-13,1,10,1,0,1,0,1,2,1,-12,1,-16,1,-14,1
707,-10,1,7,1,17,1,1,1,-13,1,12,1,0,1,1,1,3,1,-11,1,-15,1,-13,1
708,-10,1,8,1,18,1,1,1,-14,1,13,1,0,1,1,1,3,1,-11,1,-14,1,-13,1
709,-9,1,7,1,16,1,1,1,-12,1,11,1,0,1,1,1,3,1,-12,1,-14,1,-13,1
710,-10,1,7,1,17,1,1,1,-13,1,12,1,0,1,1,1,2,1,-12,1,-15,1,-13,1
711,-11,1,6,1,17,1,2,1,-14,1,11,1,0,1,1,1,2,1,-12,1,-15,1,-13,1
712,-12,1,4,1,16,1,4,1,-14,1,10,1,-1,1,1,1,1,1,-12,1,-16,1,-13,1
713,-12,1,4,1,16,1,4,1,-14,1,10,1,-2,1,0,1,1,1,-12,1,-17,1,-14,1
714,-12,1,5,1,17,1,3,1,-14,1,11,1,-2,1,1,1,1,1,-12,1,-17,1,-13,1
715,-12,1,5,1,17,1,3,1,-14,1,11,1,-1,1,1,1,1,1,-11,1,-15,1,-13,1
716,-12,1,6,1,18,1,3,1,-15,1,12,1,0,1,2,1,1,1,-10,1,-14,1,-12,1
717,-11,1,7,1,18,1,2,1,-14,1,12,1,0,1,2,1,0,1,-10,1,-14,1,-12,1
718,-9,1,7,1,16,1,1,1,-12,1,11,1,-1,1,1,1,-1,1,-11,1,-14,1,-13,1
719,-8,1,7,1,15,1,0,1,-11,1,11,1,-1,1,2,1,-2,1,-11,1,-14,1,-13,1
720,-9,1,7,1,16,1,1,1,-12,1,11,1,-1,1,2,1,-3,1,-11,1,-14,1,-13,1
721,-9,1,7,1,16,1,1,1,-12,1,11,1,-1,1,2,1,-8,1,-10,1,-14,1,-13,1
722,-10,1,6,1,16,1,2,1,-13,1,11,1,-1,1,2,1,-16,1,-10,1,-14,1,-13,1
723,-10,1,6,1,16,1,2,1,-13,1,11,1,-2,1,1,1,-24,1,-11,1,-14,1,-13,1
724,-10,1,5,1,15,1,2,1,-12,1,10,1,-3,1,1,1,-31,1,-10,1,-14,1,-13,1
725,-10,1,5,1,15,1,2,1,-12,1,10,1,-3,1,2,1,-38,1,-10,1,-14,1,-13,1
726,-9,1,5,1,14,1,2,1,-11,1,9,1,-4,1,1,1,-45,1,-11,1,-15,1,-12,1
727,-7,1,7,1,14,1,0,1,-10,1,10,1,-4,1,0,1,-49,1,-11,1,-15,1,-12,1
728,-7,1,6,1,13,1,0,1,-10,1,9,1,-5,1,0,1,-55,1,-11,1,-15,1,-12,1
729,-9,1,6,1,15,1,1,1,-12,1,10,1,-4,1,0,1,-59,1,-11,1,-14,1,-12,1
730,-9,1,7,1,16,1,1,1,-12,1,11,1,-3,1,1,1,-61,1,-9,1,-13,1,-11,1
731,-9,1,9,1,18,1,0,1,-13,1,13,1,-3,1,2,1,-64,1,-9,1,-13,1,-11,1
732,-12,1,8,1,20,1,2,1,-16,1,14,1,-2,1,2,1,-66,1,-8,1,-13,1,-11,1
733,-13,1,7,1,20,1,3,1,-16,1,13,1,-2,1,3,1,-69,1,-8,1,-13,1,-11,1
734,-14,1,6,1,20,1,4,1,-17,1,13,1,-2,1,2,1,-72,1,-9,1,-14,1,-11,1
735,-13,1,5,1,18,1,4,1,-15,1,11,1,-3,1,1,1,-74,1,-9,1,-14,1,-12,1
736,-12,1,5,1,17,1,3,1,-14,1,11,1,-3,1,1,1,-76,1,-9,1,-14,1,-12,1
737,-12,1,4,1,16,1,4,1,-14,1,10,1,-3,1,1,1,-77,1,-9,1,-14,1,-11,1
738,-13,1,3,1,16,1,5,1,-14,1,9,1,-3,1,0,1,-78,1,-10,1,-14,1,-11,1
739,-11,1,2,1,13,1,4,1,-12,1,7,1,-3,1,0,1,-79,1,-11,1,-14,1,-11,1
740,-11,1,1,1,12,1,5,1,-11,1,6,1,-4,1,-1,1,-80,1,-12,1,-15,1,-12,1
741,-10,1,1,1,11,1,4,1,-10,1,6,1,-4,1,-1,1,-81,1,-13,1,-15,1,-12,1
742,-9,1,2,1,11,1,3,1,-10,1,6,1,-4,1,-2,1,-81,1,-13,1,-15,1,-13,1
743,-9,1,3,1,12,1,3,1,-10,1,7,1,-4,1,-2,1,-81,1,-13,1,-15,1,-12,1
744,-10,1,3,1,13,1,3,1,-11,1,8,1,-4,1,-2,1,-81,1,-12,1,-15,1,-12,1
745,-10,1,3,1,13,1,3,1,-11,1,8,1,-4,1,-2,1,-82,1,-12,1,-15,1,-12,1
746,-10,1,4,1,14,1,3,1,-12,1,9,1,-4,1,-2,1,-81,1,-12,1,-15,1,-11,1
747,-10,1,2,1,12,1,4,1,-11,1,7,1,-4,1,-2,1,-82,1,-12,1,-15,1,-11,1
748,-10,1,1,1,11,1,4,1,-10,1,6,1,-5,1,-2,1,-82,1,-13,1,-16,1,-12,1
749,-10,1,1,1,11,1,4,1,-10,1,6,1,-5,1,-2,1,-83,1,-14,1,-16,1,-11,1
750,-9,1,2,1,11,1,3,1,-10,1,6,1,-5,1,-2,1,-83,1,-14,1,-16,1,-11,1
751,-10,1,2,1,12,1,4,1,-11,1,7,1,-6,1,-1,1,-83,1,-14,1,-16,1,-11,1
752,-12,1,2,1,14,1,5,1,-13,1,8,1,-5,1,-1,1,-82,1,-14,1,-16,1,-11,1
753,-12,1,2,1,14,1,5,1,-13,1,8,1,-5,1,-1,1,-82,1,-14,1,-16,1,-11,1
754,-10,1,2,1,12,1,4,1,-11,1,7,1,-5,1,-2,1,-82,1,-14,1,-16,1,-12,1
755,-10,1,2,1,12,1,4,1,-11,1,7,1,-5,1,-1,1,-81,1,-14,1,-16,1,-12,1
756,-10,1,2,1,12,1,4,1,-11,1,7,1,-5,1,-1,1,-81,1,-13,1,-15,1,-11,1
757,-11,1,2,1,13,1,4,1,-12,1,7,1,-5,1,-1,1,-81,1,-13,1,-15,1,-11,1
758,-11,1,2,1,13,1,4,1,-12,1,7,1,-5,1,-2,1,-80,1,-13,1,-14,1,-11,1
759,-11,1,3,1,14,1,4,1,-12,1,8,1,-5,1,-2,1,-80,1,-13,1,-15,1,-12,1
760,-12,1,3,1,15,1,4,1,-13,1,9,1,-5,1,-2,1,-80,1,-13,1,-15,1,-12,1
761,-11,1,2,1,13,1,4,1,-12,1,7,1,-5,1,-3,1,-79,1,-13,1,-15,1,-13,1
762,-9,1,2,1,11,1,3,1,-10,1,6,1,-5,1,-3,1,-78,1,-14,1,-16,1,-13,1
763,-8,1,2,1,10,1,3,1,-9,1,6,1,-5,1,-3,1,-77,1,-14,1,-17,1,-13,1
764,-7,1,3,1,10,1,2,1,-8,1,6,1,-5,1,-3,1,-77,1,-14,1,-17,1,-13,1
765,-7,1,4,1,11,1,1,1,-9,1,7,1,-5,1,-2,1,-76,1,-14,1,-18,1,-13,1
766,-7,1,4,1,11,1,1,1,-9,1,7,1,-4,1,-1,1,-75,1,-14,1,-17,1,-13,1
767,-9,1,3,1,12,1,3,1,-10,1,7,1,-4,1,-1,1,-74,1,-14,1,-17,1,-13,1
768,-7,1,2,1,9,1,2,1,-8,1,5,1,-4,1,-1,1,-74,1,-14,1,-17,1,-13,1
769,-6,1,2,1,8,1,2,1,-7,1,5,1,-4,1,-1,1,-73,1,-15,1,-18,1,-13,1
770,-6,1,2,1,8,1,2,1,-7,1,5,1,-3,1,0,1,-72,1,-13,1,-17,1,-13,1
771,-5,1,3,1,8,1,1,1,-6,1,5,1,-2,1,1,1,-70,1,-12,1,-16,1,-12,1
772,-5,1,5,1,10,1,0,1,-7,1,7,1,-1,1,2,1,-68,1,-10,1,-15,1,-11,1
773,-5,1,8,1,13,1,-1,1,-9,1,10,1,0,1,4,1,-66,1,-9,1,-13,1,-11,1
774,-6,1,10,1,16,1,-2,1,-11,1,13,1,1,1,5,1,-64,1,-8,1,-12,1,-10,1
775,-6,1,10,1,16,1,-2,1,-11,1,13,1,1,1,4,1,-64,1,-8,1,-12,1,-10,1
776,-4,1,12,1,16,1,-4,1,-10,1,14,1,1,1,4,1,-62,1,-8,1,-12,1,-10,1
777,-3,1,14,1,17,1,-5,1,-10,1,15,1,1,1,5,1,-61,1,-7,1,-11,1,-9,1
778,-4,1,15,1,19,1,-5,1,-11,1,17,1,2,1,6,1,-59,1,-7,1,-11,1,-8,1
779,-5,1,15,1,20,1,-5,1,-12,1,17,1,4,1,9,1,-57,1,-6,1,-11,1,-6,1
780,-5,1,16,1,21,1,-5,1,-13,1,18,1,6,1,11,1,-55,1,-5,1,-10,1,-5,1
781,-5,1,17,1,22,1,-6,1,-13,1,19,1,7,1,13,1,-53,1,-4,1,-10,1,-5,1
782,-5,1,17,1,22,1,-6,1,-13,1,19,1,8,1,14,1,-52,1,-4,1,-10,1,-5,1
783,-4,1,17,1,21,1,-6,1,-12,1,19,1,9,1,14,1,-51,1,-3,1,-10,1,-6,1
784,-6,1,17,1,23,1,-5,1,-14,1,20,1,9,1,16,1,-49,1,-1,1,-9,1,-5,1
785,-8,1,17,1,25,1,-4,1,-16,1,21,1,8,1,16,1,-48,1,-1,1,-8,1,-6,1
786,-6,1,18,1,24,1,-6,1,-15,1,21,1,6,1,14,1,-48,1,-1,1,-8,1,-5,1
787,-5,1,18,1,23,1,-6,1,-14,1,20,1,1,1,12,1,-48,1,-2,1,-7,1,-6,1
788,-4,1,18,1,22,1,-7,1,-13,1,20,1,-3,1,8,1,-49,1,-3,1,-8,1,-6,1
789,-2,1,19,1,21,1,-8,1,-11,1,20,1,-6,1,6,1,-50,1,-3,1,-8,1,-6,1
790,-2,1,20,1,22,1,-9,1,-12,1,21,1,-9,1,4,1,-50,1,-3,1,-8,1,-6,1
791,-4,1,20,1,24,1,-8,1,-14,1,22,1,-11,1,2,1,-50,1,-3,1,-8,1,-6,1
792,-5,1,20,1,25,1,-7,1,-15,1,22,1,-13,1,-1,1,-50,1,-4,1,-8,1,-6,1
793,-4,1,20,1,24,1,-8,1,-14,1,22,1,-15,1,-4,1,-52,1,-5,1,-8,1,-5,1
794,-2,1,22,1,24,1,-10,1,-13,1,23,1,-16,1,-8,1,-52,1,-6,1,-7,1,-5,1
795,0,1,23,1,23,1,-11,1,-11,1,23,1,-16,1,-9,1,-53,1,-6,1,-7,1,-5,1
796,0,1,23,1,23,1,-11,1,-11,1,23,1,-16,1,-10,1,-53,1,-6,1,-7,1,-4,1
797,0,1,23,1,23,1,-11,1,-11,1,23,1,-16,1,-10,1,-53,1,-6,1,-8,1,-4,1
798,0,1,21,1,21,1,-10,1,-10,1,21,1,-17,1,-10,1,-52,1,-7,1,-8,1,-4,1
799,0,1,21,1,21,1,-10,1,-10,1,21,1,-17,1,-9,1,-51,1,-7,1,-8,1,-3,1
800,1,1,21,1,20,1,-11,1,-9,1,21,1,-18,1,-9,1,-50,1,-7,1,-8,1,-2,1
801,2,1,21,1,19,1,-11,1,-8,1,20,1,-19,1,-10,1,-50,1,-7,1,-8,1,-3,1
802,3,1,21,1,18,1,-12,1,-7,1,20,1,-20,1,-11,1,-50,1,-8,1,-8,1,-2,1
803,3,1,20,1,17,1,-11,1,-7,1,19,1,-20,1,-12,1,-51,1,-8,1,-8,1,-3,1
804,3,1,18,1,15,1,-10,1,-6,1,17,1,-21,1,-12,1,-51,1,-9,1,-8,1,-3,1
805,4,1,15,1,11,1,-9,1,-3,1,13,1,-20,1,-12,1,-50,1,-9,1,-8,1,-4,1
806,4,1,15,1,11,1,-9,1,-3,1,13,1,-19,1,-11,1,-49,1,-9,1,-9,1,-4,1
807,4,1,14,1,10,1,-9,1,-3,1,12,1,-19,1,-11,1,-48,1,-9,1,-9,1,-4,1
808,3,1,12,1,9,1,-7,1,-3,1,11,1,-18,1,-11,1,-48,1,-10,1,-9,1,-4,1
809,3,1,11,1,8,1,-7,1,-2,1,10,1,-17,1,-11,1,-48,1,-11,1,-11,1,-5,1
810,2,1,9,1,7,1,-5,1,-2,1,8,1,-15,1,-11,1,-48,1,-12,1,-12,1,-5,1
811,1,1,8,1,7,1,-4,1,-3,1,8,1,-14,1,-10,1,-48,1,-14,1,-13,1,-7,1
812,1,1,7,1,6,1,-4,1,-2,1,7,1,-12,1,-10,1,-48,1,-14,1,-14,1,-9,1
813,-1,1,6,1,7,1,-2,1,-4,1,6,1,-11,1,-9,1,-48,1,-14,1,-14,1,-10,1
814,-2,1,4,1,6,1,-1,1,-4,1,5,1,-10,1,-9,1,-47,1,-14,1,-15,1,-12,1
815,-6,1,2,1,8,1,2,1,-7,1,5,1,-9,1,-9,1,-47,1,-14,1,-16,1,-13,1
816,-9,1,-1,1,8,1,5,1,-9,1,3,1,-8,1,-8,1,-46,1,-15,1,-17,1,-14,1
817,-10,1,-2,1,8,1,6,1,-9,1,3,1,-7,1,-7,1,-45,1,-15,1,-17,1,-14,1
818,-11,1,-4,1,7,1,7,1,-9,1,1,1,-7,1,-7,1,-46,1,-15,1,-18,1,-15,1
819,-12,1,-6,1,6,1,9,1,-9,1,0,1,-7,1,-7,1,-46,1,-15,1,-19,1,-17,1
820,-10,1,-5,1,5,1,7,1,-8,1,0,1,-7,1,-8,1,-46,1,-16,1,-20,1,-17,1
821,-9,1,-5,1,4,1,7,1,-7,1,-1,1,-7,1,-8,1,-46,1,-16,1,-21,1,-18,1
822,-8,1,-6,1,2,1,7,1,-5,1,-2,1,-6,1,-8,1,-47,1,-17,1,-22,1,-18,1
823,-8,1,-6,1,2,1,7,1,-5,1,-2,1,-6,1,-8,1,-47,1,-17,1,-22,1,-19,1
824,-7,1,-5,1,2,1,6,1,-5,1,-2,1,-5,1,-8,1,-47,1,-17,1,-22,1,-19,1
825,-7,1,-6,1,1,1,6,1,-4,1,-3,1,-5,1,-8,1,-47,1,-18,1,-23,1,-20,1
826,-9,1,-6,1,3,1,7,1,-6,1,-2,1,-5,1,-8,1,-46,1,-19,1,-23,1,-20,1
827,-12,1,-7,1,5,1,9,1,-9,1,-1,1,-5,1,-8,1,-46,1,-19,1,-22,1,-20,1
828,-14,1,-7,1,7,1,10,1,-11,1,0,1,-5,1,-7,1,-45,1,-19,1,-22,1,-20,1
829,-14,1,-8,1,6,1,11,1,-10,1,-1,1,-5,1,-7,1,-45,1,-19,1,-22,1,-20,1
830,-12,1,-7,1,5,1,9,1,-9,1,-1,1,-6,1,-7,1,-44,1,-19,1,-22,1,-20,1
831,-11,1,-8,1,3,1,9,1,-7,1,-3,1,-5,1,-7,1,-44,1,-18,1,-22,1,-20,1
832,-11,1,-8,1,3,1,9,1,-7,1,-3,1,-4,1,-6,1,-42,1,-17,1,-22,1,-20,1
833,-12,1,-8,1,4,1,10,1,-8,1,-2,1,-3,1,-4,1,-40,1,-16,1,-21,1,-20,1
834,-12,1,-8,1,4,1,10,1,-8,1,-2,1,-2,1,-1,1,-39,1,-15,1,-21,1,-21,1
835,-13,1,-9,1,4,1,11,1,-9,1,-3,1,0,1,3,1,-35,1,-14,1,-22,1,-22,1
836,-13,1,-7,1,6,1,10,1,-10,1,-1,1,2,1,9,1,-29,1,-11,1,-22,1,-22,1
837,-14,1,-5,1,9,1,9,1,-12,1,2,1,4,1,17,1,-20,1,-7,1,-20,1,-21,1
838,-13,1,-2,1,11,1,7,1,-12,1,4,1,6,1,25,1,-10,1,0,1,-17,1,-19,1
839,-12,1,0,1,12,1,6,1,-12,1,6,1,7,1,34,1,3,1,9,1,-12,1,-16,1
840,-9,1,4,1,13,1,2,1,-11,1,8,1,7,1,41,1,17,1,21,1,-3,1,-10,1
841,-5,1,12,1,17,1,-3,1,-11,1,14,1,6,1,42,1,27,1,34,1,9,1,-1,1
842,0,1,24,1,24,1,-12,1,-12,1,24,1,5,1,36,1,32,1,46,1,24,1,10,1
843,9,1,38,1,29,1,-23,1,-10,1,34,1,0,1,28,1,37,1,62,1,43,1,27,1
844,23,1,52,1,29,1,-37,1,-3,1,41,1,-10,1,17,1,42,1,81,1,67,1,47,1
845,36,1,65,1,29,1,-50,1,4,1,47,1,-21,1,6,1,49,1,103,1,95,1,71,1
846,49,1,80,1,31,1,-64,1,9,1,56,1,-32,1,-6,1,55,1,126,1,125,1,99,1
847,61,1,96,1,35,1,-78,1,13,1,66,1,-43,1,-21,1,58,1,147,1,155,1,127,1
848,71,1,111,1,40,1,-91,1,16,1,76,1,-54,1,-37,1,59,1,165,1,183,1,155,1
849,78,1,124,1,46,1,-101,1,16,1,85,1,-61,1,-48,1,63,1,183,1,209,1,180,1
850,84,1,131,1,47,1,-107,1,19,1,89,1,-65,1,-52,1,68,1,197,1,228,1,197,1
851,87,1,128,1,41,1,-107,1,23,1,85,1,-64,1,-55,1,68,1,199,1,233,1,198,1
852,86,1,118,1,32,1,-102,1,27,1,75,1,-61,1,-58,1,58,1,190,1,222,1,187,1
853,79,1,110,1,31,1,-94,1,24,1,71,1,-57,1,-67,1,37,1,169,1,201,1,170,1
854,69,1,100,1,31,1,-84,1,19,1,66,1,-54,1,-80,1,7,1,138,1,171,1,147,1
855,56,1,88,1,32,1,-72,1,12,1,60,1,-52,1,-98,1,-35,1,93,1,129,1,117,1
856,40,1,74,1,34,1,-57,1,3,1,54,1,-48,1,-116,1,-80,1,43,1,83,1,85,1
857,24,1,61,1,37,1,-42,1,-6,1,49,1,-44,1,-131,1,-123,1,-9,1,35,1,53,1
858,12,1,48,1,36,1,-30,1,-12,1,42,1,-40,1,-141,1,-155,1,-49,1,-1,1,27,1
859,2,1,35,1,33,1,-18,1,-15,1,34,1,-37,1,-146,1,-173,1,-76,1,-27,1,8,1
860,-7,1,20,1,27,1,-6,1,-17,1,23,1,-33,1,-148,1,-182,1,-96,1,-45,1,-8,1
861,-14,1,6,1,20,1,4,1,-17,1,13,1,-26,1,-143,1,-184,1,-109,1,-58,1,-22,1
862,-17,1,-4,1,13,1,10,1,-15,1,4,1,-19,1,-135,1,-182,1,-114,1,-66,1,-32,1
863,-21,1,-10,1,11,1,15,1,-16,1,0,1,-15,1,-128,1,-176,1,-114,1,-70,1,-38,1
864,-23,1,-13,1,10,1,18,1,-17,1,-2,1,-11,1,-117,1,-165,1,-108,1,-70,1,-40,1
865,-23,1,-15,1,8,1,19,1,-16,1,-4,1,-10,1,-104,1,-151,1,-99,1,-69,1,-42,1
866,-21,1,-17,1,4,1,19,1,-13,1,-7,1,-9,1,-90,1,-136,1,-90,1,-66,1,-43,1
867,-20,1,-18,1,2,1,19,1,-11,1,-8,1,-8,1,-75,1,-120,1,-81,1,-64,1,-42,1
868,-20,1,-17,1,3,1,18,1,-12,1,-7,1,-9,1,-63,1,-104,1,-72,1,-59,1,-40,1
869,-18,1,-15,1,3,1,16,1,-11,1,-6,1,-10,1,-53,1,-91,1,-64,1,-54,1,-37,1
870,-18,1,-14,1,4,1,16,1,-11,1,-5,1,-11,1,-45,1,-80,1,-58,1,-49,1,-34,1
871,-17,1,-13,1,4,1,15,1,-11,1,-5,1,-10,1,-39,1,-71,1,-51,1,-44,1,-32,1
872,-16,1,-11,1,5,1,13,1,-11,1,-3,1,-10,1,-33,1,-64,1,-45,1,-37,1,-29,1
873,-14,1,-8,1,6,1,11,1,-10,1,-1,1,-10,1,-26,1,-59,1,-38,1,-33,1,-26,1
874,-11,1,-6,1,5,1,8,1,-8,1,-1,1,-10,1,-20,1,-54,1,-33,1,-29,1,-24,1
875,-9,1,-4,1,5,1,6,1,-7,1,0,1,-9,1,-15,1,-49,1,-28,1,-26,1,-22,1
876,-8,1,-3,1,5,1,5,1,-7,1,1,1,-6,1,-10,1,-44,1,-25,1,-26,1,-21,1
877,-8,1,-3,1,5,1,5,1,-7,1,1,1,-5,1,-7,1,-40,1,-23,1,-26,1,-20,1
878,-8,1,-3,1,5,1,5,1,-7,1,1,1,-4,1,-6,1,-37,1,-23,1,-26,1,-20,1
879,-8,1,-4,1,4,1,6,1,-6,1,0,1,-3,1,-6,1,-35,1,-24,1,-26,1,-21,1
880,-8,1,-4,1,4,1,6,1,-6,1,0,1,-3,1,-6,1,-34,1,-24,1,-26,1,-23,1
881,-8,1,-5,1,3,1,6,1,-6,1,-1,1,-3,1,-7,1,-34,1,-25,1,-25,1,-23,1
882,-9,1,-5,1,4,1,7,1,-7,1,-1,1,-3,1,-7,1,-33,1,-24,1,-24,1,-23,1
883,-10,1,-6,1,4,1,8,1,-7,1,-1,1,-3,1,-6,1,-33,1,-23,1,-24,1,-23,1
884,-11,1,-7,1,4,1,9,1,-8,1,-2,1,-3,1,-5,1,-32,1,-23,1,-24,1,-22,1
885,-10,1,-7,1,3,1,8,1,-7,1,-2,1,-3,1,-3,1,-31,1,-22,1,-24,1,-22,1
886,-8,1,-7,1,1,1,7,1,-5,1,-3,1,-3,1,-2,1,-30,1,-21,1,-23,1,-21,1
887,-7,1,-6,1,1,1,6,1,-4,1,-3,1,-3,1,-2,1,-28,1,-21,1,-23,1,-21,1
888,-9,1,-6,1,3,1,7,1,-6,1,-2,1,-2,1,-1,1,-27,1,-19,1,-22,1,-21,1
889,-11,1,-6,1,5,1,8,1,-8,1,-1,1,-2,1,0,1,-25,1,-19,1,-22,1,-21,1
890,-12,1,-7,1,5,1,9,1,-9,1,-1,1,-2,1,-1,1,-25,1,-19,1,-23,1,-21,1
891,-10,1,-5,1,5,1,7,1,-8,1,0,1,-2,1,-1,1,-24,1,-19,1,-23,1,-21,1
892,-9,1,-4,1,5,1,6,1,-7,1,0,1,-1,1,-1,1,-23,1,-18,1,-23,1,-21,1
893,-8,1,-4,1,4,1,6,1,-6,1,0,1,-1,1,0,1,-22,1,-17,1,-22,1,-20,1
894,-7,1,-4,1,3,1,5,1,-5,1,-1,1,-1,1,0,1,-22,1,-17,1,-22,1,-21,1
895,-7,1,-4,1,3,1,5,1,-5,1,-1,1,-1,1,0,1,-21,1,-17,1,-22,1,-20,1
896,-7,1,-4,1,3,1,5,1,-5,1,-1,1,-1,1,0,1,-21,1,-17,1,-22,1,-20,1
897,-8,1,-5,1,3,1,6,1,-6,1,-1,1,-2,1,0,1,-22,1,-18,1,-22,1,-21,1
898,-10,1,-5,1,5,1,7,1,-8,1,0,1,-2,1,1,1,-22,1,-17,1,-22,1,-20,1
899,-10,1,-5,1,5,1,7,1,-8,1,0,1,-2,1,1,1,-22,1,-18,1,-22,1,-20,1
900,-11,1,-5,1,6,1,8,1,-9,1,0,1,-2,1,1,1,-21,1,-17,1,-22,1,-20,1
901,-10,1,-4,1,6,1,7,1,-8,1,1,1,-2,1,1,1,-21,1,-17,1,-21,1,-21,1
902,-9,1,-4,1,5,1,6,1,-7,1,0,1,-1,1,1,1,-21,1,-18,1,-22,1,-21,1
903,-8,1,-4,1,4,1,6,1,-6,1,0,1,-1,1,0,1,-21,1,-17,1,-22,1,-21,1
904,-7,1,-4,1,3,1,5,1,-5,1,-1,1,-1,1,-1,1,-20,1,-16,1,-21,1,-20,1
905,-9,1,-5,1,4,1,7,1,-7,1,-1,1,-1,1,-1,1,-20,1,-15,1,-21,1,-19,1
906,-10,1,-6,1,4,1,8,1,-7,1,-1,1,-1,1,-1,1,-20,1,-15,1,-20,1,-19,1
907,-10,1,-6,1,4,1,8,1,-7,1,-1,1,-2,1,-1,1,-20,1,-15,1,-21,1,-19,1
908,-10,1,-5,1,5,1,7,1,-8,1,0,1,-2,1,-1,1,-20,1,-15,1,-21,1,-19,1
909,-10,1,-5,1,5,1,7,1,-8,1,0,1,-2,1,0,1,-19,1,-14,1,-20,1,-19,1
910,-9,1,-4,1,5,1,6,1,-7,1,0,1,-1,1,0,1,-19,1,-15,1,-20,1,-19,1
911,-8,1,-4,1,4,1,6,1,-6,1,0,1,-1,1,-1,1,-19,1,-16,1,-20,1,-20,1
912,-7,1,-4,1,3,1,5,1,-5,1,-1,1,-1,1,-1,1,-18,1,-17,1,-20,1,-20,1
913,-8,1,-4,1,4,1,6,1,-6,1,0,1,0,1,0,1,-17,1,-16,1,-19,1,-20,1
914,-6,1,-3,1,3,1,4,1,-5,1,0,1,-1,1,-1,1,-17,1,-15,1,-19,1,-20,1
915,-4,1,-1,1,3,1,2,1,-4,1,1,1,0,1,0,1,-16,1,-14,1,-18,1,-19,1
916,-3,1,0,1,3,1,1,1,-3,1,1,1,0,1,0,1,-16,1,-14,1,-18,1,-19,1
917,-4,1,0,1,4,1,2,1,-4,1,2,1,0,1,1,1,-16,1,-14,1,-17,1,-18,1
918,-6,1,0,1,6,1,3,1,-6,1,3,1,-1,1,1,1,-15,1,-14,1,-18,1,-18,1
919,-7,1,-2,1,5,1,4,1,-6,1,1,1,-2,1,0,1,-15,1,-15,1,-18,1,-19,1
920,-7,1,-1,1,6,1,4,1,-7,1,2,1,-2,1,1,1,-15,1,-15,1,-18,1,-19,1
921,-7,1,-1,1,6,1,4,1,-7,1,2,1,-1,1,1,1,-14,1,-14,1,-19,1,-18,1
922,-8,1,-1,1,7,1,4,1,-8,1,3,1,-1,1,1,1,-13,1,-13,1,-19,1,-18,1
923,-9,1,-2,1,7,1,5,1,-8,1,2,1,-1,1,0,1,-13,1,-13,1,-20,1,-19,1
924,-8,1,-2,1,6,1,5,1,-7,1,2,1,-3,1,0,1,-14,1,-14,1,-20,1,-19,1
925,-7,1,-2,1,5,1,4,1,-6,1,1,1,-3,1,0,1,-14,1,-13,1,-19,1,-19,1
926,-7,1,-2,1,5,1,4,1,-6,1,1,1,-3,1,0,1,-13,1,-13,1,-19,1,-19,1
927,-7,1,-1,1,6,1,4,1,-7,1,2,1,-3,1,0,1,-13,1,-13,1,-18,1,-19,1
928,-7,1,-1,1,6,1,4,1,-7,1,2,1,-3,1,0,1,-12,1,-13,1,-18,1,-18,1
929,-8,1,-1,1,7,1,4,1,-8,1,3,1,-3,1,0,1,-12,1,-13,1,-17,1,-18,1
930,-7,1,0,1,7,1,3,1,-7,1,3,1,-2,1,0,1,-11,1,-12,1,-17,1,-17,1
931,-5,1,2,1,7,1,1,1,-6,1,4,1,-2,1,0,1,-11,1,-12,1,-16,1,-17,1
932,-4,1,2,1,6,1,1,1,-5,1,4,1,-2,1,1,1,-10,1,-12,1,-16,1,-16,1
933,-5,1,1,1,6,1,2,1,-5,1,3,1,-2,1,1,1,-10,1,-11,1,-15,1,-16,1
934,-7,1,0,1,7,1,3,1,-7,1,3,1,-2,1,0,1,-10,1,-11,1,-15,1,-15,1
935,-6,1,0,1,6,1,3,1,-6,1,3,1,-4,1,0,1,-10,1,-12,1,-16,1,-16,1
936,-6,1,0,1,6,1,3,1,-6,1,3,1,-4,1,0,1,-10,1,-12,1,-16,1,-16,1
937,-6,1,0,1,6,1,3,1,-6,1,3,1,-5,1,0,1,-10,1,-13,1,-16,1,-15,1
938,-6,1,0,1,6,1,3,1,-6,1,3,1,-5,1,0,1,-9,1,-12,1,-15,1,-14,1
939,-6,1,0,1,6,1,3,1,-6,1,3,1,-4,1,1,1,-8,1,-11,1,-15,1,-14,1
940,-4,1,0,1,4,1,2,1,-4,1,2,1,-5,1,0,1,-8,1,-11,1,-15,1,-14,1
941,-3,1,0,1,3,1,1,1,-3,1,1,1,-6,1,-1,1,-8,1,-11,1,-16,1,-14,1
942,-3,1,0,1,3,1,1,1,-3,1,1,1,-5,1,-1,1,-7,1,-11,1,-15,1,-14,1
943,-2,1,1,1,3,1,0,1,-2,1,2,1,-5,1,0,1,-6,1,-10,1,-14,1,-13,1
944,-2,1,3,1,5,1,0,1,-3,1,4,1,-5,1,0,1,-6,1,-10,1,-13,1,-13,1
945,-3,1,3,1,6,1,0,1,-4,1,4,1,-5,1,1,1,-5,1,-10,1,-12,1,-13,1
946,-3,1,4,1,7,1,0,1,-5,1,5,1,-5,1,1,1,-5,1,-10,1,-12,1,-12,1
947,-5,1,3,1,8,1,1,1,-6,1,5,1,-5,1,1,1,-4,1,-9,1,-12,1,-12,1
948,-6,1,3,1,9,1,1,1,-7,1,6,1,-5,1,1,1,-4,1,-9,1,-11,1,-11,1
949,-6,1,4,1,10,1,1,1,-8,1,7,1,-5,1,2,1,-3,1,-8,1,-11,1,-10,1
950,-5,1,5,1,10,1,0,1,-7,1,7,1,-5,1,2,1,-2,1,-7,1,-11,1,-9,1
951,-5,1,4,1,9,1,0,1,-7,1,6,1,-6,1,2,1,-2,1,-7,1,-12,1,-9,1
952,-4,1,4,1,8,1,0,1,-6,1,6,1,-7,1,2,1,-1,1,-6,1,-11,1,-8,1
953,-2,1,4,1,6,1,-1,1,-4,1,5,1,-7,1,2,1,-1,1,-6,1,-11,1,-8,1
954,-2,1,5,1,7,1,-1,1,-4,1,6,1,-7,1,2,1,-2,1,-5,1,-10,1,-8,1
955,-4,1,6,1,10,1,-1,1,-7,1,8,1,-7,1,3,1,-2,1,-5,1,-9,1,-8,1
956,-4,1,6,1,10,1,-1,1,-7,1,8,1,-8,1,2,1,-2,1,-5,1,-9,1,-8,1
957,-4,1,6,1,10,1,-1,1,-7,1,8,1,-9,1,2,1,-3,1,-5,1,-7,1,-8,1
958,-4,1,7,1,11,1,-1,1,-7,1,9,1,-10,1,2,1,-3,1,-5,1,-7,1,-8,1
959,-4,1,8,1,12,1,-2,1,-8,1,10,1,-10,1,1,1,-2,1,-5,1,-6,1,-8,1
960,-3,1,8,1,11,1,-2,1,-7,1,9,1,-10,1,1,1,-2,1,-5,1,-6,1,-7,1
961,-1,1,8,1,9,1,-3,1,-5,1,8,1,-11,1,0,1,-2,1,-5,1,-6,1,-7,1
962,0,1,8,1,8,1,-4,1,-4,1,8,1,-11,1,-1,1,-1,1,-5,1,-6,1,-6,1
963,0,1,9,1,9,1,-4,1,-4,1,9,1,-11,1,-1,1,-1,1,-4,1,-5,1,-5,1
964,1,1,10,1,9,1,-5,1,-4,1,10,1,-13,1,-1,1,-1,1,-4,1,-4,1,-4,1
965,1,1,10,1,9,1,-5,1,-4,1,10,1,-14,1,-2,1,-2,1,-4,1,-4,1,-4,1
966,2,1,11,1,9,1,-6,1,-3,1,10,1,-15,1,-1,1,0,1,-3,1,-3,1,-3,1
967,3,1,12,1,9,1,-7,1,-3,1,11,1,-15,1,-1,1,0,1,-2,1,-2,1,-2,1
968,4,1,14,1,10,1,-9,1,-3,1,12,1,-16,1,-1,1,1,1,-2,1,-2,1,-1,1
969,3,1,12,1,9,1,-7,1,-3,1,11,1,-17,1,-2,1,1,1,-2,1,-2,1,-1,1
970,3,1,11,1,8,1,-7,1,-2,1,10,1,-17,1,-3,1,1,1,-2,1,-1,1,-1,1
971,4,1,11,1,7,1,-7,1,-1,1,9,1,-18,1,-4,1,1,1,-2,1,-1,1,0,1
972,3,1,10,1,7,1,-6,1,-2,1,9,1,-19,1,-4,1,1,1,-2,1,-1,1,0,1
973,1,1,10,1,9,1,-5,1,-4,1,10,1,-20,1,-4,1,1,1,-2,1,0,1,0,1
974,1,1,12,1,11,1,-6,1,-5,1,12,1,-19,1,-5,1,0,1,-2,1,0,1,1,1
975,1,1,14,1,13,1,-7,1,-6,1,14,1,-19,1,-4,1,0,1,-2,1,1,1,2,1
976,4,1,16,1,12,1,-10,1,-4,1,14,1,-20,1,-4,1,-1,1,-3,1,1,1,3,1
977,5,1,17,1,12,1,-11,1,-3,1,15,1,-20,1,-5,1,-1,1,-3,1,1,1,3,1
978,4,1,16,1,12,1,-10,1,-4,1,14,1,-21,1,-5,1,-2,1,-3,1,1,1,3,1
979,5,1,16,1,11,1,-10,1,-3,1,14,1,-22,1,-6,1,-2,1,-3,1,0,1,3,1
980,8,1,16,1,8,1,-12,1,0,1,12,1,-23,1,-7,1,-2,1,-4,1,0,1,3,1
981,10,1,17,1,7,1,-13,1,2,1,12,1,-24,1,-8,1,-3,1,-4,1,0,1,3,1
982,11,1,17,1,6,1,-14,1,3,1,12,1,-25,1,-9,1,-4,1,-5,1,0,1,3,1
983,12,1,17,1,5,1,-14,1,4,1,11,1,-26,1,-10,1,-6,1,-6,1,1,1,3,1
984,11,1,18,1,7,1,-14,1,2,1,13,1,-27,1,-11,1,-7,1,-6,1,1,1,3,1
985,8,1,18,1,10,1,-13,1,-1,1,14,1,-27,1,-11,1,-8,1,-5,1,2,1,3,1
986,5,1,18,1,13,1,-11,1,-4,1,16,1,-27,1,-11,1,-8,1,-5,1,3,1,4,1
987,5,1,19,1,14,1,-12,1,-4,1,17,1,-28,1,-12,1,-9,1,-6,1,2,1,4,1
988,4,1,19,1,15,1,-11,1,-5,1,17,1,-28,1,-11,1,-8,1,-6,1,3,1,6,1
989,4,1,19,1,15,1,-11,1,-5,1,17,1,-28,1,-10,1,-8,1,-6,1,4,1,8,1
990,4,1,19,1,15,1,-11,1,-5,1,17,1,-28,1,-10,1,-8,1,-5,1,4,1,9,1
991,5,1,19,1,14,1,-12,1,-4,1,17,1,-28,1,-10,1,-8,1,-5,1,4,1,10,1
992,5,1,19,1,14,1,-12,1,-4,1,17,1,-28,1,-9,1,-7,1,-5,1,5,1,10,1
993,3,1,19,1,16,1,-11,1,-6,1,18,1,-27,1,-9,1,-7,1,-4,1,6,1,11,1
994,3,1,20,1,17,1,-11,1,-7,1,19,1,-27,1,-8,1,-7,1,-4,1,6,1,11,1
995,4,1,21,1,17,1,-12,1,-6,1,19,1,-26,1,-8,1,-8,1,-4,1,6,1,11,1
996,7,1,22,1,15,1,-14,1,-4,1,19,1,-27,1,-8,1,-8,1,-4,1,5,1,11,1
997,7,1,22,1,15,1,-14,1,-4,1,19,1,-27,1,-7,1,-7,1,-4,1,5,1,11,1
998,5,1,21,1,16,1,-13,1,-5,1,19,1,-26,1,-6,1,-7,1,-4,1,4,1,10,1
999,6,1,20,1,14,1,-13,1,-4,1,17,1,-25,1,-5,1,-6,1,-4,1,4,1,9,1
1000,7,1,20,1,13,1,-13,1,-3,1,17,1,-24,1,-4,1,-4,1,-4,1,3,1,9,1
1001,7,1,19,1,12,1,-13,1,-2,1,16,1,-24,1,-4,1,-4,1,-5,1,3,1,8,1
1002,8,1,18,1,10,1,-13,1,-1,1,14,1,-23,1,-3,1,-3,1,-6,1,2,1,6,1
1003,5,1,17,1,12,1,-11,1,-3,1,15,1,-22,1,-2,1,-2,1,-6,1,2,1,5,1
1004,1,1,16,1,15,1,-8,1,-7,1,16,1,-21,1,-1,1,-1,1,-5,1,1,1,4,1
1005,-1,1,15,1,16,1,-7,1,-8,1,15,1,-20,1,0,1,-1,1,-5,1,0,1,2,1
1006,-2,1,14,1,16,1,-6,1,-9,1,15,1,-19,1,1,1,0,1,-5,1,0,1,1,1
1007,-1,1,14,1,15,1,-6,1,-8,1,14,1,-18,1,2,1,0,1,-5,1,-1,1,0,1
1008,-1,1,12,1,13,1,-5,1,-7,1,12,1,-17,1,3,1,1,1,-5,1,-2,1,0,1
1009,0,1,11,1,11,1,-5,1,-5,1,11,1,-15,1,4,1,2,1,-5,1,-4,1,-1,1
1010,0,1,10,1,10,1,-5,1,-5,1,10,1,-15,1,4,1,2,1,-6,1,-4,1,-3,1
1011,-1,1,9,1,10,1,-4,1,-5,1,9,1,-14,1,4,1,1,1,-7,1,-6,1,-4,1
1012,-4,1,9,1,13,1,-2,1,-8,1,11,1,-12,1,4,1,2,1,-6,1,-6,1,-5,1
1013,-5,1,9,1,14,1,-2,1,-9,1,11,1,-10,1,6,1,2,1,-6,1,-7,1,-5,1
1014,-4,1,10,1,14,1,-3,1,-9,1,12,1,-8,1,6,1,3,1,-6,1,-7,1,-6,1
1015,-4,1,8,1,12,1,-2,1,-8,1,10,1,-8,1,5,1,2,1,-6,1,-7,1,-7,1
1016,-5,1,6,1,11,1,0,1,-8,1,8,1,-8,1,5,1,2,1,-7,1,-8,1,-8,1
1017,-5,1,5,1,10,1,0,1,-7,1,7,1,-7,1,4,1,1,1,-8,1,-9,1,-9,1
1018,-4,1,4,1,8,1,0,1,-6,1,6,1,-7,1,3,1,1,1,-9,1,-11,1,-10,1
1019,-6,1,4,1,10,1,1,1,-8,1,7,1,-6,1,3,1,1,1,-9,1,-12,1,-10,1
1020,-8,1,4,1,12,1,2,1,-10,1,8,1,-4,1,4,1,2,1,-9,1,-12,1,-10,1
1021,-10,1,4,1,14,1,3,1,-12,1,9,1,-3,1,4,1,2,1,-9,1,-13,1,-10,1
1022,-10,1,4,1,14,1,3,1,-12,1,9,1,-3,1,4,1,2,1,-10,1,-14,1,-11,1
1023,-8,1,4,1,12,1,2,1,-10,1,8,1,-2,1,4,1,2,1,-10,1,-14,1,-11,1
1024,-6,1,5,1,11,1,0,1,-8,1,8,1,-2,1,3,1,2,1,-11,1,-14,1,-11,1
1025,-6,1,4,1,10,1,1,1,-8,1,7,1,-2,1,3,1,2,1,-11,1,-14,1,-12,1
1026,-7,1,3,1,10,1,2,1,-8,1,6,1,-3,1,1,1,2,1,-12,1,-15,1,-13,1
1027,-7,1,2,1,9,1,2,1,-8,1,5,1,-3,1,1,1,2,1,-12,1,-15,1,-14,1
1028,-7,1,2,1,9,1,2,1,-8,1,5,1,-3,1,0,1,1,1,-12,1,-15,1,-14,1
1029,-8,1,2,1,10,1,3,1,-9,1,6,1,-2,1,0,1,1,1,-13,1,-16,1,-15,1
1030,-6,1,2,1,8,1,2,1,-7,1,5,1,-3,1,-1,1,0,1,-13,1,-16,1,-15,1
1031,-5,1,2,1,7,1,1,1,-6,1,4,1,-3,1,-1,1,-1,1,-14,1,-18,1,-15,1
1032,-5,1,1,1,6,1,2,1,-5,1,3,1,-3,1,-2,1,-1,1,-14,1,-18,1,-15,1
1033,-7,1,0,1,7,1,3,1,-7,1,3,1,-3,1,-1,1,0,1,-13,1,-17,1,-15,1
1034,-10,1,-1,1,9,1,5,1,-10,1,4,1,-3,1,-1,1,0,1,-13,1,-16,1,-14,1
1035,-12,1,-2,1,10,1,7,1,-11,1,4,1,-3,1,-1,1,0,1,-13,1,-16,1,-14,1
1036,-12,1,-1,1,11,1,6,1,-12,1,5,1,-3,1,-2,1,0,1,-13,1,-17,1,-15,1
1037,-11,1,0,1,11,1,5,1,-11,1,5,1,-3,1,-1,1,0,1,-13,1,-17,1,-15,1
1038,-10,1,1,1,11,1,4,1,-10,1,6,1,-2,1,-1,1,1,1,-13,1,-16,1,-15,1
1039,-9,1,1,1,10,1,4,1,-9,1,5,1,-2,1,0,1,1,1,-13,1,-16,1,-15,1
1040,-8,1,1,1,9,1,3,1,-8,1,5,1,-2,1,0,1,1,1,-13,1,-16,1,-15,1
1041,-8,1,1,1,9,1,3,1,-8,1,5,1,-1,1,0,1,2,1,-13,1,-16,1,-14,1
1042,-8,1,2,1,10,1,3,1,-9,1,6,1,0,1,0,1,2,1,-13,1,-16,1,-14,1
1043,-7,1,2,1,9,1,2,1,-8,1,5,1,0,1,-1,1,0,1,-13,1,-17,1,-14,1
1044,-5,1,2,1,7,1,1,1,-6,1,4,1,-1,1,-2,1,0,1,-14,1,-18,1,-15,1
1045,-5,1,3,1,8,1,1,1,-6,1,5,1,0,1,-2,1,0,1,-13,1,-17,1,-15,1
1046,-5,1,3,1,8,1,1,1,-6,1,5,1,-1,1,-2,1,0,1,-13,1,-17,1,-15,1
1047,-6,1,1,1,7,1,2,1,-6,1,4,1,-1,1,-3,1,0,1,-13,1,-17,1,-15,1
1048,-7,1,0,1,7,1,3,1,-7,1,3,1,-2,1,-3,1,-1,1,-14,1,-18,1,-16,1
1049,-8,1,-1,1,7,1,4,1,-8,1,3,1,-1,1,-3,1,-1,1,-15,1,-19,1,-17,1
1050,-8,1,-1,1,7,1,4,1,-8,1,3,1,-1,1,-2,1,-1,1,-15,1,-19,1,-17,1
1051,-9,1,-1,1,8,1,5,1,-9,1,3,1,-1,1,-2,1,-1,1,-15,1,-18,1,-17,1
1052,-10,1,-1,1,9,1,5,1,-10,1,4,1,0,1,-2,1,-1,1,-15,1,-18,1,-17,1
1053,-11,1,0,1,11,1,5,1,-11,1,5,1,0,1,-1,1,0,1,-14,1,-18,1,-16,1
1054,-12,1,1,1,13,1,5,1,-12,1,7,1,1,1,-1,1,0,1,-14,1,-17,1,-15,1
1055,-12,1,1,1,13,1,5,1,-12,1,7,1,1,1,-1,1,0,1,-14,1,-17,1,-16,1
1056,-9,1,2,1,11,1,3,1,-10,1,6,1,0,1,-1,1,0,1,-14,1,-17,1,-15,1
1057,-10,1,2,1,12,1,4,1,-11,1,7,1,0,1,-1,1,0,1,-13,1,-16,1,-15,1
1058,-12,1,1,1,13,1,5,1,-12,1,7,1,-1,1,-1,1,-1,1,-13,1,-16,1,-15,1
1059,-15,1,0,1,15,1,7,1,-15,1,7,1,0,1,0,1,0,1,-13,1,-16,1,-14,1
1060,-16,1,0,1,16,1,8,1,-16,1,8,1,0,1,0,1,1,1,-12,1,-15,1,-14,1
1061,-15,1,0,1,15,1,7,1,-15,1,7,1,0,1,0,1,0,1,-13,1,-16,1,-14,1
1062,-13,1,0,1,13,1,6,1,-13,1,6,1,0,1,-1,1,0,1,-14,1,-16,1,-15,1
1063,-12,1,1,1,13,1,5,1,-12,1,7,1,0,1,-1,1,1,1,-13,1,-16,1,-14,1
1064,-12,1,2,1,14,1,5,1,-13,1,8,1,-1,1,-1,1,0,1,-13,1,-16,1,-13,1
1065,-13,1,2,1,15,1,5,1,-14,1,8,1,-1,1,0,1,0,1,-13,1,-16,1,-13,1
1066,-13,1,1,1,14,1,6,1,-13,1,7,1,-1,1,-1,1,0,1,-13,1,-16,1,-13,1
1067,-13,1,2,1,15,1,5,1,-14,1,8,1,-2,1,-1,1,0,1,-13,1,-16,1,-13,1
1068,-13,1,2,1,15,1,5,1,-14,1,8,1,-2,1,0,1,0,1,-13,1,-16,1,-13,1
1069,-12,1,2,1,14,1,5,1,-13,1,8,1,-2,1,-1,1,0,1,-14,1,-16,1,-14,1
1070,-11,1,2,1,13,1,4,1,-12,1,7,1,-2,1,0,1,1,1,-13,1,-16,1,-13,1
1071,-11,1,2,1,13,1,4,1,-12,1,7,1,-2,1,0,1,1,1,-13,1,-16,1,-13,1
1072,-11,1,2,1,13,1,4,1,-12,1,7,1,-1,1,0,1,1,1,-13,1,-16,1,-13,1
1073,-11,1,3,1,14,1,4,1,-12,1,8,1,-1,1,1,1,2,1,-12,1,-15,1,-13,1
1074,-12,1,3,1,15,1,4,1,-13,1,9,1,0,1,2,1,3,1,-12,1,-15,1,-12,1
1075,-12,1,3,1,15,1,4,1,-13,1,9,1,-1,1,2,1,4,1,-12,1,-15,1,-12,1
1076,-12,1,4,1,16,1,4,1,-14,1,10,1,-1,1,2,1,4,1,-11,1,-14,1,-12,1
1077,-12,1,4,1,16,1,4,1,-14,1,10,1,-1,1,2,1,5,1,-11,1,-15,1,-12,1
1078,-12,1,3,1,15,1,4,1,-13,1,9,1,-2,1,1,1,5,1,-11,1,-15,1,-12,1
1079,-13,1,3,1,16,1,5,1,-14,1,9,1,-1,1,2,1,5,1,-10,1,-14,1,-11,1
1080,-14,1,4,1,18,1,5,1,-16,1,11,1,0,1,2,1,5,1,-9,1,-14,1,-12,1
1081,-13,1,4,1,17,1,4,1,-15,1,10,1,0,1,2,1,5,1,-9,1,-14,1,-12,1
1082,-12,1,4,1,16,1,4,1,-14,1,10,1,-1,1,2,1,4,1,-10,1,-14,1,-12,1
1083,-11,1,4,1,15,1,3,1,-13,1,9,1,-1,1,2,1,4,1,-10,1,-14,1,-13,1
1084,-11,1,4,1,15,1,3,1,-13,1,9,1,-1,1,1,1,4,1,-10,1,-14,1,-13,1
1085,-11,1,4,1,15,1,3,1,-13,1,9,1,-1,1,1,1,5,1,-10,1,-14,1,-13,1
1086,-11,1,4,1,15,1,3,1,-13,1,9,1,-1,1,1,1,5,1,-10,1,-14,1,-12,1
1087,-12,1,5,1,17,1,3,1,-14,1,11,1,-1,1,2,1,6,1,-9,1,-13,1,-11,1
1088,-11,1,6,1,17,1,2,1,-14,1,11,1,-1,1,2,1,6,1,-9,1,-13,1,-11,1
1089,-10,1,7,1,17,1,1,1,-13,1,12,1,-1,1,2,1,6,1,-9,1,-12,1,-11,1
1090,-8,1,8,1,16,1,0,1,-12,1,12,1,-2,1,1,1,6,1,-10,1,-13,1,-11,1
1091,-9,1,5,1,14,1,2,1,-11,1,9,1,-3,1,0,1,5,1,-10,1,-14,1,-12,1
1092,-11,1,5,1,16,1,3,1,-13,1,10,1,-1,1,1,1,6,1,-9,1,-13,1,-12,1
1093,-11,1,5,1,16,1,3,1,-13,1,10,1,-1,1,2,1,8,1,-8,1,-13,1,-11,1
1094,-11,1,3,1,14,1,4,1,-12,1,8,1,-1,1,1,1,7,1,-8,1,-14,1,-12,1
1095,-11,1,3,1,14,1,4,1,-12,1,8,1,-2,1,1,1,7,1,-9,1,-14,1,-13,1
1096,-11,1,4,1,15,1,3,1,-13,1,9,1,-2,1,2,1,8,1,-8,1,-14,1,-12,1
1097,-11,1,4,1,15,1,3,1,-13,1,9,1,-2,1,2,1,7,1,-9,1,-14,1,-11,1
1098,-10,1,4,1,14,1,3,1,-12,1,9,1,-3,1,1,1,5,1,-9,1,-14,1,-12,1
1099,-11,1,3,1,14,1,4,1,-12,1,8,1,-4,1,1,1,5,1,-10,1,-15,1,-12,1
1100,-11,1,4,1,15,1,3,1,-13,1,9,1,-4,1,1,1,5,1,-9,1,-15,1,-13,1
1101,-10,1,4,1,14,1,3,1,-12,1,9,1,-4,1,0,1,6,1,-9,1,-15,1,-12,1
1102,-10,1,5,1,15,1,2,1,-12,1,10,1,-4,1,0,1,6,1,-9,1,-15,1,-12,1
1103,-11,1,5,1,16,1,3,1,-13,1,10,1,-4,1,0,1,7,1,-9,1,-14,1,-12,1
1104,-11,1,4,1,15,1,3,1,-13,1,9,1,-4,1,0,1,7,1,-9,1,-13,1,-12,1
1105,-11,1,3,1,14,1,4,1,-12,1,8,1,-4,1,0,1,6,1,-10,1,-13,1,-12,1
1106,-11,1,3,1,14,1,4,1,-12,1,8,1,-4,1,0,1,6,1,-10,1,-14,1,-13,1
1107,-14,1,3,1,17,1,5,1,-15,1,10,1,-3,1,1,1,7,1,-10,1,-13,1,-12,1
1108,-16,1,3,1,19,1,6,1,-17,1,11,1,-3,1,2,1,8,1,-9,1,-13,1,-12,1
1109,-13,1,4,1,17,1,4,1,-15,1,10,1,-3,1,1,1,8,1,-9,1,-13,1,-13,1
1110,-12,1,5,1,17,1,3,1,-14,1,11,1,-3,1,1,1,8,1,-10,1,-13,1,-13,1
1111,-12,1,5,1,17,1,3,1,-14,1,11,1,-2,1,1,1,9,1,-10,1,-13,1,-11,1
1112,-13,1,3,1,16,1,5,1,-14,1,9,1,-2,1,0,1,9,1,-10,1,-13,1,-12,1
1113,-13,1,2,1,15,1,5,1,-14,1,8,1,-3,1,0,1,8,1,-10,1,-13,1,-12,1
1114,-12,1,2,1,14,1,5,1,-13,1,8,1,-3,1,0,1,8,1,-10,1,-13,1,-11,1
1115,-12,1,3,1,15,1,4,1,-13,1,9,1,-4,1,0,1,7,1,-9,1,-13,1,-11,1
1116,-12,1,4,1,16,1,4,1,-14,1,10,1,-4,1,0,1,7,1,-9,1,-14,1,-11,1
1117,-12,1,4,1,16,1,4,1,-14,1,10,1,-4,1,-1,1,6,1,-9,1,-14,1,-11,1
1118,-13,1,3,1,16,1,5,1,-14,1,9,1,-4,1,-1,1,6,1,-10,1,-14,1,-12,1
1119,-12,1,3,1,15,1,4,1,-13,1,9,1,-4,1,0,1,6,1,-11,1,-15,1,-12,1
1120,-12,1,2,1,14,1,5,1,-13,1,8,1,-4,1,1,1,6,1,-11,1,-15,1,-12,1
1121,-10,1,2,1,12,1,4,1,-11,1,7,1,-5,1,0,1,6,1,-12,1,-16,1,-12,1
1122,-9,1,2,1,11,1,3,1,-10,1,6,1,-4,1,0,1,6,1,-11,1,-16,1,-13,1
1123,-10,1,3,1,13,1,3,1,-11,1,8,1,-3,1,0,1,6,1,-11,1,-16,1,-13,1
1124,-12,1,3,1,15,1,4,1,-13,1,9,1,-3,1,0,1,6,1,-11,1,-16,1,-14,1
1125,-12,1,3,1,15,1,4,1,-13,1,9,1,-3,1,-1,1,6,1,-11,1,-15,1,-14,1
1126,-11,1,4,1,15,1,3,1,-13,1,9,1,-3,1,-1,1,6,1,-10,1,-15,1,-14,1
1127,-11,1,4,1,15,1,3,1,-13,1,9,1,-3,1,-1,1,6,1,-10,1,-15,1,-13,1
1128,-12,1,3,1,15,1,4,1,-13,1,9,1,-3,1,0,1,7,1,-10,1,-15,1,-13,1
1129,-11,1,3,1,14,1,4,1,-12,1,8,1,-3,1,0,1,7,1,-10,1,-14,1,-12,1
1130,-12,1,3,1,15,1,4,1,-13,1,9,1,-3,1,0,1,8,1,-10,1,-14,1,-12,1
1131,-13,1,2,1,15,1,5,1,-14,1,8,1,-3,1,0,1,7,1,-11,1,-15,1,-12,1
1132,-13,1,2,1,15,1,5,1,-14,1,8,1,-3,1,-1,1,6,1,-12,1,-16,1,-13,1
1133,-12,1,2,1,14,1,5,1,-13,1,8,1,-3,1,-1,1,5,1,-13,1,-16,1,-13,1
1134,-12,1,2,1,14,1,5,1,-13,1,8,1,-4,1,-2,1,5,1,-14,1,-16,1,-14,1
1135,-12,1,1,1,13,1,5,1,-12,1,7,1,-3,1,-2,1,5,1,-13,1,-16,1,-15,1
1136,-13,1,2,1,15,1,5,1,-14,1,8,1,-3,1,-2,1,5,1,-13,1,-15,1,-14,1
1137,-11,1,3,1,14,1,4,1,-12,1,8,1,-4,1,-1,1,5,1,-13,1,-15,1,-14,1
1138,-10,1,3,1,13,1,3,1,-11,1,8,1,-5,1,-2,1,5,1,-12,1,-16,1,-14,1
1139,-10,1,3,1,13,1,3,1,-11,1,8,1,-5,1,-2,1,6,1,-12,1,-16,1,-14,1
1140,-10,1,3,1,13,1,3,1,-11,1,8,1,-4,1,-2,1,7,1,-12,1,-16,1,-14,1
1141,-11,1,3,1,14,1,4,1,-12,1,8,1,-4,1,-2,1,6,1,-12,1,-17,1,-14,1
1142,-10,1,2,1,12,1,4,1,-11,1,7,1,-4,1,-2,1,6,1,-12,1,-17,1,-14,1
1143,-10,1,2,1,12,1,4,1,-11,1,7,1,-3,1,-2,1,6,1,-11,1,-17,1,-13,1
1144,-8,1,2,1,10,1,3,1,-9,1,6,1,-3,1,-1,1,6,1,-11,1,-17,1,-13,1
1145,-6,1,3,1,9,1,1,1,-7,1,6,1,-3,1,0,1,6,1,-11,1,-16,1,-13,1
1146,-6,1,5,1,11,1,0,1,-8,1,8,1,-2,1,0,1,6,1,-11,1,-16,1,-13,1
1147,-7,1,6,1,13,1,0,1,-10,1,9,1,-2,1,0,1,7,1,-11,1,-15,1,-13,1
1148,-8,1,7,1,15,1,0,1,-11,1,11,1,-1,1,2,1,8,1,-10,1,-15,1,-13,1
1149,-10,1,8,1,18,1,1,1,-14,1,13,1,0,1,3,1,9,1,-9,1,-14,1,-12,1
1150,-9,1,10,1,19,1,0,1,-14,1,14,1,1,1,5,1,10,1,-8,1,-13,1,-11,1
1151,-8,1,12,1,20,1,-2,1,-14,1,16,1,2,1,6,1,11,1,-7,1,-12,1,-10,1
1152,-8,1,13,1,21,1,-2,1,-14,1,17,1,3,1,7,1,12,1,-6,1,-10,1,-8,1
1153,-7,1,15,1,22,1,-4,1,-14,1,18,1,4,1,9,1,14,1,-5,1,-9,1,-7,1
1154,-8,1,16,1,24,1,-4,1,-16,1,20,1,5,1,11,1,15,1,-4,1,-8,1,-6,1
1155,-8,1,17,1,25,1,-4,1,-16,1,21,1,6,1,13,1,16,1,-4,1,-8,1,-6,1
1156,-9,1,18,1,27,1,-4,1,-18,1,22,1,8,1,15,1,17,1,-4,1,-8,1,-6,1
1157,-9,1,18,1,27,1,-4,1,-18,1,22,1,9,1,16,1,17,1,-3,1,-8,1,-6,1
1158,-10,1,17,1,27,1,-3,1,-18,1,22,1,9,1,16,1,17,1,-4,1,-9,1,-7,1
1159,-8,1,18,1,26,1,-5,1,-17,1,22,1,9,1,17,1,17,1,-3,1,-9,1,-6,1
1160,-6,1,20,1,26,1,-7,1,-16,1,23,1,9,1,18,1,18,1,-3,1,-8,1,-5,1
1161,-4,1,21,1,25,1,-8,1,-14,1,23,1,7,1,17,1,18,1,-3,1,-8,1,-4,1
1162,-3,1,20,1,23,1,-8,1,-13,1,21,1,4,1,15,1,18,1,-3,1,-8,1,-4,1
1163,-4,1,18,1,22,1,-7,1,-13,1,20,1,0,1,11,1,16,1,-4,1,-8,1,-5,1
1164,-3,1,18,1,21,1,-7,1,-12,1,19,1,-4,1,8,1,15,1,-5,1,-8,1,-5,1
1165,-2,1,19,1,21,1,-8,1,-11,1,20,1,-7,1,6,1,15,1,-4,1,-8,1,-6,1
1166,-1,1,20,1,21,1,-9,1,-11,1,20,1,-9,1,4,1,14,1,-4,1,-7,1,-6,1
1167,-1,1,22,1,23,1,-10,1,-12,1,22,1,-11,1,1,1,13,1,-3,1,-7,1,-6,1
1168,-6,1,21,1,27,1,-7,1,-16,1,24,1,-13,1,0,1,13,1,-2,1,-7,1,-5,1
1169,-7,1,21,1,28,1,-7,1,-17,1,24,1,-14,1,-4,1,10,1,-2,1,-7,1,-5,1
1170,-3,1,23,1,26,1,-10,1,-14,1,24,1,-16,1,-6,1,8,1,-4,1,-8,1,-5,1
1171,-1,1,24,1,25,1,-11,1,-13,1,24,1,-17,1,-8,1,6,1,-5,1,-9,1,-5,1
1172,0,1,24,1,24,1,-12,1,-12,1,24,1,-16,1,-9,1,5,1,-6,1,-9,1,-4,1
1173,-1,1,25,1,26,1,-12,1,-13,1,25,1,-16,1,-8,1,6,1,-5,1,-8,1,-2,1
1174,-1,1,24,1,25,1,-11,1,-13,1,24,1,-16,1,-8,1,6,1,-5,1,-7,1,-2,1
1175,0,1,22,1,22,1,-11,1,-11,1,22,1,-17,1,-9,1,5,1,-6,1,-8,1,-3,1
1176,0,1,21,1,21,1,-10,1,-10,1,21,1,-18,1,-8,1,6,1,-6,1,-7,1,-4,1
1177,-1,1,20,1,21,1,-9,1,-11,1,20,1,-18,1,-8,1,6,1,-6,1,-6,1,-4,1
1178,0,1,20,1,20,1,-10,1,-10,1,20,1,-19,1,-9,1,5,1,-7,1,-6,1,-4,1
1179,1,1,20,1,19,1,-10,1,-9,1,20,1,-19,1,-10,1,4,1,-8,1,-6,1,-5,1
1180,4,1,19,1,15,1,-11,1,-5,1,17,1,-21,1,-11,1,3,1,-9,1,-7,1,-5,1
1181,5,1,17,1,12,1,-11,1,-3,1,15,1,-21,1,-12,1,2,1,-10,1,-8,1,-6,1
1182,6,1,16,1,10,1,-11,1,-2,1,13,1,-21,1,-12,1,2,1,-10,1,-9,1,-7,1
1183,5,1,15,1,10,1,-10,1,-2,1,13,1,-20,1,-11,1,3,1,-10,1,-10,1,-7,1
1184,4,1,14,1,10,1,-9,1,-3,1,12,1,-19,1,-11,1,3,1,-10,1,-10,1,-7,1
1185,3,1,13,1,10,1,-8,1,-3,1,12,1,-18,1,-10,1,2,1,-10,1,-11,1,-8,1
1186,1,1,12,1,11,1,-6,1,-5,1,12,1,-17,1,-10,1,2,1,-11,1,-12,1,-8,1
1187,0,1,10,1,10,1,-5,1,-5,1,10,1,-16,1,-10,1,2,1,-11,1,-13,1,-9,1
1188,-1,1,8,1,9,1,-3,1,-5,1,8,1,-14,1,-9,1,2,1,-12,1,-14,1,-10,1
1189,-1,1,6,1,7,1,-2,1,-4,1,6,1,-13,1,-8,1,1,1,-13,1,-15,1,-11,1
1190,-2,1,4,1,6,1,-1,1,-4,1,5,1,-13,1,-8,1,1,1,-14,1,-16,1,-12,1
1191,-3,1,2,1,5,1,0,1,-4,1,3,1,-12,1,-7,1,0,1,-15,1,-17,1,-13,1
1192,-4,1,0,1,4,1,2,1,-4,1,2,1,-10,1,-6,1,-1,1,-15,1,-18,1,-14,1
1193,-3,1,0,1,3,1,1,1,-3,1,1,1,-9,1,-6,1,-1,1,-16,1,-19,1,-15,1
1194,-4,1,0,1,4,1,2,1,-4,1,2,1,-7,1,-6,1,-1,1,-15,1,-19,1,-16,1
1195,-4,1,-1,1,3,1,2,1,-4,1,1,1,-6,1,-6,1,-1,1,-14,1,-19,1,-17,1
1196,-5,1,-1,1,4,1,3,1,-5,1,1,1,-6,1,-5,1,-1,1,-15,1,-19,1,-18,1
1197,-7,1,-3,1,4,1,5,1,-6,1,0,1,-6,1,-6,1,-2,1,-16,1,-21,1,-19,1
1198,-7,1,-4,1,3,1,5,1,-5,1,-1,1,-6,1,-6,1,-2,1,-17,1,-21,1,-20,1
1199,-9,1,-5,1,4,1,7,1,-7,1,-1,1,-6,1,-6,1,-3,1,-17,1,-21,1,-21,1
1200,-10,1,-5,1,5,1,7,1,-8,1,0,1,-7,1,-6,1,-2,1,-17,1,-21,1,-21,1
1201,-10,1,-6,1,4,1,8,1,-7,1,-1,1,-7,1,-6,1,-3,1,-18,1,-21,1,-21,1
1202,-10,1,-7,1,3,1,8,1,-7,1,-2,1,-7,1,-6,1,-1,1,-18,1,-21,1,-21,1
1203,-11,1,-7,1,4,1,9,1,-8,1,-2,1,-7,1,-7,1,-1,1,-18,1,-22,1,-21,1
1204,-11,1,-8,1,3,1,9,1,-7,1,-3,1,-7,1,-7,1,-1,1,-18,1,-22,1,-22,1
1205,-10,1,-8,1,2,1,9,1,-6,1,-3,1,-7,1,-7,1,-1,1,-19,1,-22,1,-21,1
1206,-8,1,-7,1,1,1,7,1,-5,1,-3,1,-7,1,-6,1,-2,1,-19,1,-22,1,-21,1
1207,-7,1,-6,1,1,1,6,1,-4,1,-3,1,-7,1,-6,1,-2,1,-20,1,-23,1,-20,1
1208,-8,1,-6,1,2,1,7,1,-5,1,-2,1,-7,1,-5,1,-2,1,-19,1,-22,1,-20,1
1209,-9,1,-6,1,3,1,7,1,-6,1,-2,1,-6,1,-4,1,-1,1,-18,1,-22,1,-19,1
1210,-9,1,-6,1,3,1,7,1,-6,1,-2,1,-6,1,-1,1,-1,1,-17,1,-22,1,-20,1
1211,-8,1,-6,1,2,1,7,1,-5,1,-2,1,-4,1,1,1,1,1,-16,1,-24,1,-22,1
1212,-9,1,-7,1,2,1,8,1,-6,1,-3,1,-1,1,7,1,5,1,-14,1,-24,1,-23,1
1213,-9,1,-5,1,4,1,7,1,-7,1,-1,1,0,1,14,1,12,1,-10,1,-23,1,-24,1
1214,-11,1,-4,1,7,1,7,1,-9,1,1,1,2,1,22,1,23,1,-4,1,-20,1,-22,1
1215,-10,1,-1,1,9,1,5,1,-10,1,4,1,4,1,32,1,36,1,5,1,-14,1,-20,1
1216,-7,1,3,1,10,1,2,1,-8,1,6,1,5,1,41,1,50,1,17,1,-5,1,-14,1
1217,-3,1,10,1,13,1,-3,1,-8,1,11,1,4,1,45,1,62,1,29,1,5,1,-6,1
1218,2,1,21,1,19,1,-11,1,-8,1,20,1,1,1,41,1,68,1,42,1,17,1,5,1
1219,8,1,32,1,24,1,-20,1,-8,1,28,1,-3,1,33,1,73,1,56,1,34,1,20,1
1220,19,1,45,1,26,1,-32,1,-3,1,36,1,-12,1,22,1,77,1,74,1,57,1,39,1
1221,31,1,58,1,27,1,-44,1,2,1,43,1,-22,1,10,1,84,1,95,1,83,1,62,1
1222,45,1,74,1,29,1,-59,1,8,1,52,1,-32,1,0,1,91,1,118,1,113,1,89,1
1223,56,1,90,1,34,1,-73,1,11,1,62,1,-42,1,-12,1,95,1,140,1,145,1,117,1
1224,67,1,107,1,40,1,-87,1,14,1,74,1,-53,1,-28,1,97,1,159,1,175,1,145,1
1225,76,1,122,1,46,1,-99,1,15,1,84,1,-62,1,-40,1,100,1,177,1,202,1,170,1
1226,85,1,132,1,47,1,-108,1,19,1,90,1,-68,1,-45,1,105,1,193,1,223,1,190,1
1227,89,1,131,1,42,1,-110,1,24,1,87,1,-69,1,-48,1,106,1,200,1,231,1,196,1
1228,89,1,123,1,34,1,-106,1,28,1,79,1,-66,1,-51,1,100,1,195,1,224,1,190,1
1229,85,1,115,1,30,1,-100,1,28,1,73,1,-62,1,-59,1,82,1,178,1,205,1,174,1
1230,76,1,106,1,30,1,-91,1,23,1,68,1,-59,1,-72,1,53,1,150,1,177,1,154,1
1231,65,1,95,1,30,1,-80,1,18,1,63,1,-56,1,-90,1,13,1,109,1,139,1,125,1
1232,51,1,81,1,30,1,-66,1,11,1,56,1,-53,1,-109,1,-32,1,58,1,94,1,94,1
1233,36,1,68,1,32,1,-52,1,2,1,50,1,-48,1,-126,1,-78,1,4,1,47,1,61,1
1234,23,1,55,1,32,1,-39,1,-4,1,44,1,-44,1,-137,1,-114,1,-41,1,8,1,33,1
1235,12,1,42,1,30,1,-27,1,-9,1,36,1,-41,1,-143,1,-136,1,-71,1,-19,1,12,1
1236,0,1,28,1,28,1,-14,1,-14,1,28,1,-38,1,-145,1,-147,1,-91,1,-38,1,-4,1
1237,-8,1,12,1,20,1,-2,1,-14,1,16,1,-32,1,-142,1,-151,1,-105,1,-53,1,-18,1
1238,-14,1,0,1,14,1,7,1,-14,1,7,1,-26,1,-135,1,-151,1,-113,1,-65,1,-30,1
1239,-16,1,-7,1,9,1,11,1,-13,1,1,1,-19,1,-129,1,-147,1,-114,1,-71,1,-38,1
1240,-20,1,-12,1,8,1,16,1,-14,1,-2,1,-15,1,-121,1,-139,1,-111,1,-72,1,-43,1
1241,-22,1,-14,1,8,1,18,1,-15,1,-3,1,-12,1,-110,1,-128,1,-103,1,-71,1,-45,1
1242,-21,1,-15,1,6,1,18,1,-14,1,-5,1,-11,1,-96,1,-114,1,-95,1,-67,1,-44,1
1243,-18,1,-15,1,3,1,16,1,-11,1,-6,1,-10,1,-79,1,-100,1,-86,1,-63,1,-43,1
1244,-16,1,-13,1,3,1,14,1,-10,1,-5,1,-10,1,-65,1,-84,1,-76,1,-58,1,-41,1
1245,-13,1,-10,1,3,1,11,1,-8,1,-4,1,-12,1,-53,1,-68,1,-68,1,-53,1,-38,1
1246,-12,1,-9,1,3,1,10,1,-8,1,-3,1,-12,1,-44,1,-55,1,-60,1,-48,1,-35,1
1247,-11,1,-8,1,3,1,9,1,-7,1,-3,1,-12,1,-37,1,-43,1,-52,1,-43,1,-32,1
1248,-11,1,-8,1,3,1,9,1,-7,1,-3,1,-12,1,-33,1,-36,1,-46,1,-39,1,-30,1
1249,-9,1,-6,1,3,1,7,1,-6,1,-2,1,-12,1,-28,1,-29,1,-40,1,-36,1,-27,1
1250,-7,1,-3,1,4,1,5,1,-6,1,0,1,-12,1,-22,1,-25,1,-34,1,-32,1,-24,1
1251,-7,1,-1,1,6,1,4,1,-7,1,2,1,-12,1,-17,1,-21,1,-30,1,-29,1,-23,1
1252,-7,1,-1,1,6,1,4,1,-7,1,2,1,-11,1,-13,1,-19,1,-28,1,-28,1,-22,1
1253,-8,1,-2,1,6,1,5,1,-7,1,2,1,-10,1,-9,1,-17,1,-27,1,-27,1,-22,1
1254,-9,1,-3,1,6,1,6,1,-8,1,1,1,-9,1,-7,1,-15,1,-26,1,-27,1,-22,1
1255,-8,1,-3,1,5,1,5,1,-7,1,1,1,-8,1,-6,1,-13,1,-26,1,-26,1,-22,1
1256,-7,1,-3,1,4,1,5,1,-6,1,0,1,-8,1,-6,1,-11,1,-26,1,-27,1,-23,1
1257,-7,1,-3,1,4,1,5,1,-6,1,0,1,-8,1,-6,1,-10,1,-26,1,-27,1,-23,1
1258,-7,1,-4,1,3,1,5,1,-5,1,-1,1,-8,1,-6,1,-10,1,-25,1,-27,1,-24,1
1259,-7,1,-4,1,3,1,5,1,-5,1,-1,1,-9,1,-5,1,-9,1,-24,1,-27,1,-23,1
1260,-7,1,-3,1,4,1,5,1,-6,1,0,1,-8,1,-4,1,-8,1,-23,1,-26,1,-23,1
1261,-6,1,-2,1,4,1,4,1,-5,1,1,1,-8,1,-2,1,-8,1,-22,1,-25,1,-23,1
1262,-5,1,-2,1,3,1,3,1,-4,1,0,1,-8,1,-2,1,-8,1,-21,1,-25,1,-23,1
1263,-5,1,-2,1,3,1,3,1,-4,1,0,1,-8,1,-2,1,-7,1,-21,1,-25,1,-22,1
1264,-5,1,-2,1,3,1,3,1,-4,1,0,1,-7,1,-1,1,-6,1,-21,1,-24,1,-22,1
1265,-5,1,-3,1,2,1,4,1,-4,1,-1,1,-7,1,-1,1,-7,1,-21,1,-24,1,-22,1
1266,-6,1,-3,1,3,1,4,1,-5,1,0,1,-7,1,-1,1,-6,1,-20,1,-24,1,-22,1
1267,-5,1,-2,1,3,1,3,1,-4,1,0,1,-7,1,0,1,-5,1,-19,1,-24,1,-22,1
1268,-5,1,-2,1,3,1,3,1,-4,1,0,1,-6,1,0,1,-5,1,-19,1,-24,1,-21,1
1269,-3,1,-1,1,2,1,2,1,-3,1,0,1,-6,1,0,1,-4,1,-19,1,-25,1,-21,1
1270,-3,1,-1,1,2,1,2,1,-3,1,0,1,-7,1,0,1,-4,1,-19,1,-24,1,-21,1
1271,-4,1,-3,1,1,1,3,1,-3,1,-1,1,-7,1,0,1,-4,1,-19,1,-25,1,-21,1
1272,-5,1,-3,1,2,1,4,1,-4,1,-1,1,-7,1,0,1,-4,1,-19,1,-24,1,-21,1
1273,-4,1,-2,1,2,1,3,1,-3,1,0,1,-7,1,0,1,-4,1,-19,1,-24,1,-21,1
1274,-4,1,-2,1,2,1,3,1,-3,1,0,1,-7,1,0,1,-4,1,-20,1,-24,1,-22,1
1275,-4,1,-2,1,2,1,3,1,-3,1,0,1,-7,1,0,1,-4,1,-20,1,-24,1,-22,1
1276,-4,1,-2,1,2,1,3,1,-3,1,0,1,-6,1,0,1,-4,1,-20,1,-23,1,-22,1
1277,-3,1,-1,1,2,1,2,1,-3,1,0,1,-6,1,0,1,-4,1,-20,1,-23,1,-22,1
1278,-3,1,-1,1,2,1,2,1,-3,1,0,1,-5,1,1,1,-3,1,-19,1,-22,1,-21,1
1279,-4,1,-1,1,3,1,2,1,-4,1,1,1,-5,1,1,1,-2,1,-19,1,-22,1,-21,1
1280,-3,1,-1,1,2,1,2,1,-3,1,0,1,-5,1,1,1,-2,1,-19,1,-23,1,-21,1
1281,-3,1,-2,1,1,1,2,1,-2,1,-1,1,-6,1,1,1,-3,1,-19,1,-24,1,-21,1
1282,-3,1,-1,1,2,1,2,1,-3,1,0,1,-7,1,0,1,-3,1,-19,1,-25,1,-21,1
1283,-1,1,0,1,1,1,0,1,-1,1,0,1,-7,1,1,1,-4,1,-18,1,-25,1,-20,1
1284,0,1,0,1,0,1,0,1,0,1,0,1,-8,1,1,1,-4,1,-17,1,-25,1,-20,1
1285,-1,1,0,1,1,1,0,1,-1,1,0,1,-8,1,1,1,-5,1,-17,1,-25,1,-20,1
1286,-2,1,1,1,3,1,0,1,-2,1,2,1,-7,1,1,1,-4,1,-17,1,-23,1,-19,1
1287,-2,1,3,1,5,1,0,1,-3,1,4,1,-7,1,1,1,-4,1,-16,1,-21,1,-19,1
1288,-3,1,2,1,5,1,0,1,-4,1,3,1,-7,1,1,1,-3,1,-16,1,-21,1,-19,1
1289,-4,1,0,1,4,1,2,1,-4,1,2,1,-7,1,1,1,-3,1,-16,1,-21,1,-19,1
1290,-3,1,0,1,3,1,1,1,-3,1,1,1,-8,1,1,1,-3,1,-17,1,-21,1,-20,1
1291,-1,1,0,1,1,1,0,1,-1,1,0,1,-8,1,1,1,-4,1,-17,1,-21,1,-20,1
1292,-1,1,1,1,2,1,0,1,-1,1,1,1,-8,1,1,1,-3,1,-15,1,-21,1,-19,1
1293,-1,1,2,1,3,1,0,1,-2,1,2,1,-8,1,1,1,-3,1,-15,1,-21,1,-18,1
1294,-1,1,2,1,3,1,0,1,-2,1,2,1,-9,1,2,1,-4,1,-15,1,-21,1,-18,1
1295,-1,1,2,1,3,1,0,1,-2,1,2,1,-9,1,2,1,-4,1,-15,1,-21,1,-17,1
1296,0,1,2,1,2,1,-1,1,-1,1,2,1,-10,1,1,1,-4,1,-16,1,-22,1,-18,1
1297,2,1,2,1,0,1,-2,1,1,1,1,1,-10,1,0,1,-4,1,-16,1,-22,1,-19,1
1298,2,1,2,1,0,1,-2,1,1,1,1,1,-10,1,0,1,-3,1,-16,1,-22,1,-19,1
1299,0,1,2,1,2,1,-1,1,-1,1,2,1,-8,1,1,1,-2,1,-16,1,-22,1,-19,1
1300,0,1,2,1,2,1,-1,1,-1,1,2,1,-8,1,1,1,-2,1,-15,1,-21,1,-18,1
1301,-1,1,2,1,3,1,0,1,-2,1,2,1,-8,1,2,1,-3,1,-15,1,-21,1,-18,1
1302,-3,1,2,1,5,1,0,1,-4,1,3,1,-8,1,2,1,-3,1,-15,1,-21,1,-17,1
1303,-3,1,2,1,5,1,0,1,-4,1,3,1,-8,1,2,1,-3,1,-14,1,-21,1,-17,1
1304,-3,1,3,1,6,1,0,1,-4,1,4,1,-8,1,2,1,-3,1,-14,1,-20,1,-17,1
1305,-3,1,3,1,6,1,0,1,-4,1,4,1,-7,1,3,1,-2,1,-13,1,-20,1,-17,1
1306,-4,1,3,1,7,1,0,1,-5,1,5,1,-7,1,2,1,-2,1,-12,1,-19,1,-17,1
1307,-3,1,3,1,6,1,0,1,-4,1,4,1,-8,1,2,1,-2,1,-12,1,-19,1,-17,1
1308,-1,1,3,1,4,1,-1,1,-2,1,3,1,-8,1,2,1,-2,1,-12,1,-19,1,-18,1
1309,1,1,4,1,3,1,-2,1,-1,1,4,1,-8,1,2,1,-2,1,-13,1,-20,1,-17,1
1310,2,1,4,1,2,1,-3,1,0,1,3,1,-9,1,2,1,-1,1,-14,1,-20,1,-16,1
1311,3,1,5,1,2,1,-4,1,1,1,4,1,-10,1,2,1,-1,1,-14,1,-19,1,-15,1
1312,4,1,5,1,1,1,-4,1,2,1,3,1,-10,1,1,1,-1,1,-14,1,-19,1,-15,1
1313,4,1,5,1,1,1,-4,1,2,1,3,1,-11,1,1,1,-1,1,-14,1,-18,1,-15,1
1314,2,1,6,1,4,1,-4,1,-1,1,5,1,-10,1,2,1,0,1,-13,1,-17,1,-14,1
1315,1,1,7,1,6,1,-4,1,-2,1,7,1,-9,1,3,1,0,1,-12,1,-17,1,-14,1
1316,0,1,7,1,7,1,-3,1,-3,1,7,1,-9,1,3,1,0,1,-11,1,-17,1,-14,1
1317,-1,1,7,1,8,1,-3,1,-4,1,7,1,-9,1,3,1,0,1,-11,1,-16,1,-14,1
1318,-1,1,8,1,9,1,-3,1,-5,1,8,1,-9,1,3,1,1,1,-10,1,-15,1,-14,1
1319,-1,1,7,1,8,1,-3,1,-4,1,7,1,-9,1,3,1,2,1,-9,1,-15,1,-13,1
1320,0,1,7,1,7,1,-3,1,-3,1,7,1,-10,1,2,1,2,1,-9,1,-15,1,-13,1
1321,1,1,7,1,6,1,-4,1,-2,1,7,1,-12,1,2,1,2,1,-9,1,-14,1,-13,1
1322,2,1,7,1,5,1,-4,1,-1,1,6,1,-12,1,3,1,2,1,-9,1,-14,1,-12,1
1323,2,1,7,1,5,1,-4,1,-1,1,6,1,-12,1,4,1,2,1,-10,1,-14,1,-12,1
1324,3,1,7,1,4,1,-5,1,0,1,6,1,-13,1,4,1,2,1,-10,1,-14,1,-12,1
1325,5,1,8,1,3,1,-6,1,1,1,6,1,-12,1,4,1,2,1,-10,1,-14,1,-12,1
1326,6,1,9,1,3,1,-7,1,2,1,6,1,-12,1,4,1,1,1,-10,1,-13,1,-12,1
1327,6,1,10,1,4,1,-8,1,1,1,7,1,-12,1,4,1,1,1,-9,1,-13,1,-11,1
1328,6,1,11,1,5,1,-8,1,1,1,8,1,-11,1,5,1,1,1,-8,1,-12,1,-10,1
1329,7,1,12,1,5,1,-9,1,1,1,9,1,-12,1,4,1,1,1,-7,1,-12,1,-10,1
1330,8,1,11,1,3,1,-9,1,3,1,7,1,-12,1,3,1,1,1,-7,1,-12,1,-10,1
1331,7,1,10,1,3,1,-8,1,2,1,7,1,-13,1,3,1,2,1,-8,1,-12,1,-9,1
1332,6,1,9,1,3,1,-7,1,2,1,6,1,-14,1,2,1,1,1,-8,1,-11,1,-9,1
1333,6,1,9,1,3,1,-7,1,2,1,6,1,-15,1,1,1,1,1,-8,1,-11,1,-9,1
1334,6,1,10,1,4,1,-8,1,1,1,7,1,-14,1,1,1,1,1,-8,1,-10,1,-8,1
1335,7,1,12,1,5,1,-9,1,1,1,9,1,-14,1,1,1,2,1,-7,1,-9,1,-7,1
1336,7,1,13,1,6,1,-10,1,1,1,10,1,-13,1,2,1,3,1,-6,1,-8,1,-6,1
1337,7,1,14,1,7,1,-10,1,0,1,11,1,-13,1,2,1,3,1,-6,1,-7,1,-6,1
1338,6,1,14,1,8,1,-10,1,-1,1,11,1,-14,1,2,1,3,1,-7,1,-6,1,-5,1
1339,6,1,14,1,8,1,-10,1,-1,1,11,1,-15,1,2,1,3,1,-7,1,-7,1,-5,1
1340,7,1,14,1,7,1,-10,1,0,1,11,1,-16,1,2,1,2,1,-7,1,-6,1,-4,1
1341,8,1,14,1,6,1,-11,1,1,1,10,1,-16,1,2,1,2,1,-6,1,-6,1,-2,1
1342,9,1,15,1,6,1,-12,1,2,1,11,1,-16,1,2,1,2,1,-5,1,-6,1,-2,1
1343,10,1,16,1,6,1,-13,1,2,1,11,1,-17,1,1,1,1,1,-5,1,-6,1,-2,1
1344,10,1,17,1,7,1,-13,1,2,1,12,1,-18,1,0,1,1,1,-5,1,-6,1,-1,1
1345,10,1,16,1,6,1,-13,1,2,1,11,1,-20,1,0,1,1,1,-6,1,-6,1,-1,1
1346,10,1,16,1,6,1,-13,1,2,1,11,1,-21,1,-1,1,0,1,-5,1,-5,1,-1,1
1347,10,1,16,1,6,1,-13,1,2,1,11,1,-22,1,-2,1,0,1,-5,1,-5,1,0,1
1348,9,1,16,1,7,1,-12,1,1,1,12,1,-21,1,-2,1,1,1,-5,1,-4,1,0,1
1349,9,1,16,1,7,1,-12,1,1,1,12,1,-21,1,-1,1,1,1,-4,1,-3,1,1,1
1350,12,1,18,1,6,1,-15,1,3,1,12,1,-21,1,-1,1,1,1,-3,1,-2,1,2,1
1351,13,1,18,1,5,1,-15,1,4,1,12,1,-22,1,-1,1,0,1,-3,1,-2,1,2,1
1352,14,1,18,1,4,1,-16,1,5,1,11,1,-22,1,-2,1,-1,1,-4,1,-2,1,2,1
1353,14,1,19,1,5,1,-16,1,5,1,12,1,-23,1,-3,1,-1,1,-4,1,-2,1,2,1
1354,14,1,19,1,5,1,-16,1,5,1,12,1,-24,1,-4,1,-2,1,-5,1,-1,1,2,1
1355,14,1,19,1,5,1,-16,1,5,1,12,1,-25,1,-4,1,-3,1,-5,1,-1,1,2,1
1356,14,1,20,1,6,1,-17,1,4,1,13,1,-25,1,-4,1,-3,1,-5,1,0,1,3,1
1357,14,1,20,1,6,1,-17,1,4,1,13,1,-26,1,-5,1,-3,1,-5,1,0,1,3,1
1358,15,1,19,1,4,1,-17,1,6,1,12,1,-27,1,-7,1,-4,1,-6,1,-1,1,3,1
1359,13,1,19,1,6,1,-16,1,4,1,13,1,-27,1,-8,1,-5,1,-6,1,-1,1,4,1
1360,14,1,20,1,6,1,-17,1,4,1,13,1,-27,1,-8,1,-5,1,-6,1,0,1,6,1
1361,16,1,21,1,5,1,-18,1,6,1,13,1,-27,1,-8,1,-6,1,-7,1,0,1,7,1
1362,17,1,23,1,6,1,-20,1,6,1,15,1,-27,1,-8,1,-6,1,-7,1,0,1,7,1
1363,17,1,23,1,6,1,-20,1,6,1,15,1,-28,1,-9,1,-7,1,-8,1,0,1,7,1
1364,18,1,24,1,6,1,-21,1,6,1,15,1,-28,1,-9,1,-8,1,-8,1,1,1,8,1
1365,19,1,24,1,5,1,-21,1,7,1,15,1,-29,1,-9,1,-9,1,-9,1,0,1,8,1
1366,18,1,23,1,5,1,-20,1,7,1,14,1,-29,1,-9,1,-10,1,-9,1,0,1,8,1
1367,17,1,22,1,5,1,-19,1,6,1,14,1,-28,1,-9,1,-9,1,-9,1,1,1,8,1
1368,14,1,22,1,8,1,-18,1,3,1,15,1,-27,1,-8,1,-8,1,-8,1,2,1,10,1
1369,14,1,23,1,9,1,-18,1,3,1,16,1,-27,1,-8,1,-7,1,-7,1,3,1,10,1
1370,15,1,23,1,8,1,-19,1,4,1,16,1,-27,1,-9,1,-7,1,-8,1,2,1,11,1
1371,14,1,23,1,9,1,-18,1,3,1,16,1,-28,1,-8,1,-7,1,-7,1,3,1,11,1
1372,13,1,24,1,11,1,-18,1,1,1,18,1,-28,1,-8,1,-6,1,-6,1,4,1,12,1
1373,11,1,23,1,12,1,-17,1,0,1,18,1,-27,1,-6,1,-6,1,-6,1,4,1,11,1
1374,10,1,23,1,13,1,-16,1,-1,1,18,1,-27,1,-5,1,-5,1,-5,1,5,1,11,1
1375,10,1,23,1,13,1,-16,1,-1,1,18,1,-26,1,-4,1,-5,1,-4,1,4,1,10,1
1376,12,1,24,1,12,1,-18,1,0,1,18,1,-25,1,-2,1,-4,1,-4,1,4,1,9,1
1377,12,1,23,1,11,1,-17,1,1,1,17,1,-24,1,-1,1,-4,1,-3,1,3,1,9,1
1378,12,1,22,1,10,1,-17,1,1,1,16,1,-23,1,0,1,-3,1,-3,1,3,1,8,1
1379,12,1,20,1,8,1,-16,1,2,1,14,1,-22,1,0,1,-3,1,-4,1,1,1,8,1
1380,13,1,19,1,6,1,-16,1,4,1,13,1,-22,1,1,1,-2,1,-4,1,0,1,6,1
1381,13,1,19,1,6,1,-16,1,4,1,13,1,-21,1,1,1,-2,1,-5,1,-1,1,5,1
1382,13,1,18,1,5,1,-15,1,4,1,12,1,-19,1,1,1,-2,1,-5,1,-2,1,4,1
1383,12,1,18,1,6,1,-15,1,3,1,12,1,-18,1,2,1,-1,1,-5,1,-3,1,3,1
1384,10,1,17,1,7,1,-13,1,2,1,12,1,-17,1,3,1,-1,1,-6,1,-4,1,0,1
1385,8,1,16,1,8,1,-12,1,0,1,12,1,-15,1,4,1,-1,1,-7,1,-5,1,-1,1
1386,7,1,14,1,7,1,-10,1,0,1,11,1,-14,1,5,1,0,1,-7,1,-6,1,-2,1
1387,7,1,12,1,5,1,-9,1,1,1,9,1,-14,1,5,1,0,1,-8,1,-7,1,-4,1
1388,8,1,11,1,3,1,-9,1,3,1,7,1,-13,1,6,1,1,1,-8,1,-8,1,-5,1
1389,8,1,11,1,3,1,-9,1,3,1,7,1,-12,1,6,1,1,1,-9,1,-9,1,-7,1
1390,7,1,12,1,5,1,-9,1,1,1,9,1,-11,1,6,1,2,1,-9,1,-10,1,-8,1
1391,6,1,11,1,5,1,-8,1,1,1,8,1,-11,1,6,1,1,1,-9,1,-10,1,-8,1
1392,4,1,11,1,7,1,-7,1,-1,1,9,1,-9,1,5,1,1,1,-10,1,-11,1,-9,1
1393,0,1,11,1,11,1,-5,1,-5,1,11,1,-8,1,6,1,2,1,-9,1,-10,1,-8,1
1394,1,1,11,1,10,1,-6,1,-4,1,11,1,-6,1,7,1,2,1,-9,1,-10,1,-8,1
1395,2,1,10,1,8,1,-6,1,-3,1,9,1,-5,1,6,1,0,1,-9,1,-11,1,-9,1
1396,4,1,11,1,7,1,-7,1,-1,1,9,1,-4,1,6,1,0,1,-10,1,-12,1,-9,1
1397,5,1,11,1,6,1,-8,1,0,1,9,1,-4,1,6,1,0,1,-10,1,-13,1,-10,1
1398,4,1,11,1,7,1,-7,1,-1,1,9,1,-3,1,5,1,0,1,-10,1,-14,1,-10,1
1399,3,1,9,1,6,1,-6,1,-1,1,8,1,-3,1,4,1,0,1,-11,1,-15,1,-11,1
1400,2,1,8,1,6,1,-5,1,-2,1,7,1,-3,1,4,1,-1,1,-12,1,-16,1,-12,1
1401,3,1,8,1,5,1,-5,1,-1,1,7,1,-3,1,3,1,0,1,-13,1,-17,1,-12,1
1402,3,1,9,1,6,1,-6,1,-1,1,8,1,-2,1,4,1,0,1,-12,1,-16,1,-12,1
1403,3,1,8,1,5,1,-5,1,-1,1,7,1,-1,1,4,1,0,1,-12,1,-16,1,-12,1
1404,2,1,6,1,4,1,-4,1,-1,1,5,1,-2,1,2,1,0,1,-13,1,-17,1,-13,1
1405,1,1,4,1,3,1,-2,1,-1,1,4,1,-2,1,1,1,-1,1,-14,1,-17,1,-13,1
1406,1,1,4,1,3,1,-2,1,-1,1,4,1,-2,1,1,1,-1,1,-14,1,-16,1,-14,1
1407,2,1,5,1,3,1,-3,1,0,1,4,1,-2,1,0,1,-2,1,-14,1,-16,1,-14,1
1408,2,1,6,1,4,1,-4,1,-1,1,5,1,-2,1,1,1,-1,1,-14,1,-17,1,-14,1
1409,4,1,8,1,4,1,-6,1,0,1,6,1,-1,1,1,1,0,1,-13,1,-16,1,-14,1
1410,4,1,8,1,4,1,-6,1,0,1,6,1,-2,1,1,1,0,1,-13,1,-16,1,-15,1
1411,4,1,7,1,3,1,-5,1,1,1,5,1,-2,1,1,1,-1,1,-13,1,-17,1,-15,1
1412,4,1,7,1,3,1,-5,1,1,1,5,1,-1,1,1,1,-1,1,-13,1,-17,1,-14,1
1413,3,1,7,1,4,1,-5,1,0,1,6,1,-1,1,2,1,-1,1,-13,1,-17,1,-14,1
1414,1,1,6,1,5,1,-3,1,-2,1,6,1,-1,1,1,1,-2,1,-14,1,-18,1,-14,1
1415,0,1,5,1,5,1,-2,1,-2,1,5,1,-1,1,1,1,-3,1,-14,1,-19,1,-14,1
1416,0,1,6,1,6,1,-3,1,-3,1,6,1,-1,1,1,1,-2,1,-13,1,-18,1,-14,1
1417,1,1,8,1,7,1,-4,1,-3,1,8,1,-1,1,0,1,-1,1,-12,1,-18,1,-14,1
1418,0,1,6,1,6,1,-3,1,-3,1,6,1,-2,1,0,1,-2,1,-12,1,-19,1,-14,1
1419,0,1,6,1,6,1,-3,1,-3,1,6,1,-1,1,0,1,-1,1,-13,1,-19,1,-14,1
1420,1,1,6,1,5,1,-3,1,-2,1,6,1,-2,1,0,1,-1,1,-13,1,-19,1,-14,1
1421,1,1,6,1,5,1,-3,1,-2,1,6,1,-1,1,0,1,-1,1,-14,1,-19,1,-14,1
1422,2,1,7,1,5,1,-4,1,-1,1,6,1,0,1,0,1,-1,1,-13,1,-18,1,-14,1
1423,2,1,8,1,6,1,-5,1,-2,1,7,1,0,1,1,1,-1,1,-13,1,-18,1,-14,1
1424,2,1,9,1,7,1,-5,1,-2,1,8,1,0,1,0,1,-2,1,-13,1,-18,1,-14,1
1425,1,1,7,1,6,1,-4,1,-2,1,7,1,-1,1,0,1,-3,1,-14,1,-18,1,-15,1
1426,0,1,7,1,7,1,-3,1,-3,1,7,1,-2,1,-1,1,-4,1,-15,1,-19,1,-16,1
1427,-1,1,6,1,7,1,-2,1,-4,1,6,1,-2,1,-1,1,-4,1,-15,1,-19,1,-16,1
1428,-1,1,6,1,7,1,-2,1,-4,1,6,1,-2,1,0,1,-4,1,-16,1,-19,1,-16,1
1429,0,1,8,1,8,1,-4,1,-4,1,8,1,-2,1,0,1,-4,1,-16,1,-19,1,-15,1
1430,0,1,8,1,8,1,-4,1,-4,1,8,1,-2,1,0,1,-4,1,-16,1,-19,1,-15,1
1431,1,1,8,1,7,1,-4,1,-3,1,8,1,-2,1,0,1,-4,1,-17,1,-19,1,-15,1
1432,1,1,8,1,7,1,-4,1,-3,1,8,1,-1,1,0,1,-3,1,-17,1,-19,1,-15,1
1433,2,1,9,1,7,1,-5,1,-2,1,8,1,-1,1,0,1,-3,1,-17,1,-19,1,-15,1
1434,2,1,9,1,7,1,-5,1,-2,1,8,1,0,1,0,1,-4,1,-16,1,-20,1,-16,1
1435,0,1,8,1,8,1,-4,1,-4,1,8,1,0,1,0,1,-3,1,-16,1,-20,1,-15,1
1436,-1,1,8,1,9,1,-3,1,-5,1,8,1,0,1,0,1,-4,1,-16,1,-20,1,-15,1
1437,0,1,8,1,8,1,-4,1,-4,1,8,1,0,1,0,1,-4,1,-16,1,-20,1,-15,1
1438,2,1,9,1,7,1,-5,1,-2,1,8,1,0,1,0,1,-5,1,-16,1,-19,1,-15,1
1439,4,1,9,1,5,1,-6,1,0,1,7,1,-1,1,0,1,-5,1,-16,1,-19,1,-15,1
1440,5,1,9,1,4,1,-7,1,1,1,7,1,-2,1,-1,1,-6,1,-16,1,-20,1,-16,1
1441,3,1,9,1,6,1,-6,1,-1,1,8,1,-2,1,-1,1,-5,1,-15,1,-19,1,-15,1
1442,1,1,9,1,8,1,-5,1,-3,1,9,1,0,1,-1,1,-4,1,-14,1,-18,1,-14,1
1443,0,1,9,1,9,1,-4,1,-4,1,9,1,0,1,0,1,-4,1,-13,1,-18,1,-13,1
1444,0,1,9,1,9,1,-4,1,-4,1,9,1,-1,1,-1,1,-4,1,-13,1,-18,1,-14,1
1445,0,1,9,1,9,1,-4,1,-4,1,9,1,-1,1,-1,1,-4,1,-13,1,-18,1,-14,1
1446,-1,1,9,1,10,1,-4,1,-5,1,9,1,0,1,0,1,-3,1,-13,1,-17,1,-14,1
1447,-2,1,9,1,11,1,-3,1,-6,1,10,1,0,1,1,1,-2,1,-13,1,-17,1,-14,1
1448,-2,1,10,1,12,1,-4,1,-7,1,11,1,0,1,2,1,-1,1,-12,1,-16,1,-14,1
1449,-2,1,10,1,12,1,-4,1,-7,1,11,1,0,1,4,1,-1,1,-12,1,-16,1,-13,1
1450,-2,1,11,1,13,1,-4,1,-7,1,12,1,0,1,4,1,-1,1,-12,1,-16,1,-13,1
1451,-1,1,11,1,12,1,-5,1,-6,1,11,1,-1,1,4,1,-1,1,-12,1,-16,1,-13,1
1452,0,1,10,1,10,1,-5,1,-5,1,10,1,-1,1,3,1,0,1,-11,1,-16,1,-13,1
1453,0,1,11,1,11,1,-5,1,-5,1,11,1,-1,1,3,1,0,1,-11,1,-16,1,-14,1
1454,1,1,10,1,9,1,-5,1,-4,1,10,1,0,1,2,1,0,1,-11,1,-16,1,-14,1
1455,1,1,10,1,9,1,-5,1,-4,1,10,1,0,1,2,1,0,1,-11,1,-15,1,-14,1
1456,1,1,11,1,10,1,-6,1,-4,1,11,1,0,1,2,1,1,1,-11,1,-15,1,-14,1
1457,0,1,10,1,10,1,-5,1,-5,1,10,1,0,1,3,1,1,1,-11,1,-15,1,-14,1
1458,-1,1,9,1,10,1,-4,1,-5,1,9,1,0,1,2,1,0,1,-12,1,-15,1,-15,1
1459,0,1,10,1,10,1,-5,1,-5,1,10,1,-1,1,2,1,0,1,-12,1,-15,1,-15,1
1460,1,1,11,1,10,1,-6,1,-4,1,11,1,-2,1,1,1,0,1,-13,1,-15,1,-15,1
1461,1,1,11,1,10,1,-6,1,-4,1,11,1,-2,1,1,1,-1,1,-13,1,-15,1,-15,1
1462,2,1,12,1,10,1,-7,1,-4,1,11,1,-2,1,1,1,-1,1,-12,1,-15,1,-15,1
1463,5,1,14,1,9,1,-9,1,-2,1,12,1,-3,1,0,1,-2,1,-13,1,-17,1,-15,1
1464,5,1,12,1,7,1,-8,1,-1,1,10,1,-3,1,0,1,-2,1,-13,1,-18,1,-16,1
1465,2,1,11,1,9,1,-6,1,-3,1,10,1,-2,1,1,1,-1,1,-13,1,-18,1,-15,1
1466,1,1,11,1,10,1,-6,1,-4,1,11,1,-1,1,2,1,-1,1,-12,1,-18,1,-14,1
1467,1,1,11,1,10,1,-6,1,-4,1,11,1,-1,1,3,1,-1,1,-12,1,-17,1,-13,1
1468,1,1,11,1,10,1,-6,1,-4,1,11,1,0,1,3,1,-1,1,-11,1,-17,1,-13,1
1469,1,1,11,1,10,1,-6,1,-4,1,11,1,0,1,3,1,-1,1,-11,1,-16,1,-12,1
1470,0,1,10,1,10,1,-5,1,-5,1,10,1,-1,1,3,1,-1,1,-11,1,-16,1,-12,1
1471,0,1,10,1,10,1,-5,1,-5,1,10,1,-1,1,2,1,-1,1,-11,1,-16,1,-12,1
1472,-2,1,9,1,11,1,-3,1,-6,1,10,1,-2,1,1,1,-1,1,-12,1,-16,1,-13,1
1473,-1,1,9,1,10,1,-4,1,-5,1,9,1,-2,1,1,1,-1,1,-12,1,-16,1,-14,1
1474,-1,1,11,1,12,1,-5,1,-6,1,11,1,-2,1,2,1,0,1,-12,1,-16,1,-14,1
1475,0,1,11,1,11,1,-5,1,-5,1,11,1,-2,1,1,1,0,1,-12,1,-16,1,-14,1
1476,0,1,11,1,11,1,-5,1,-5,1,11,1,-2,1,1,1,0,1,-12,1,-16,1,-15,1
1477,2,1,11,1,9,1,-6,1,-3,1,10,1,-3,1,0,1,-1,1,-12,1,-16,1,-15,1
1478,2,1,10,1,8,1,-6,1,-3,1,9,1,-3,1,-1,1,-1,1,-13,1,-17,1,-15,1
1479,2,1,10,1,8,1,-6,1,-3,1,9,1,-3,1,-1,1,-1,1,-13,1,-16,1,-15,1
1480,2,1,10,1,8,1,-6,1,-3,1,9,1,-3,1,-1,1,0,1,-13,1,-16,1,-14,1
1481,2,1,11,1,9,1,-6,1,-3,1,10,1,-2,1,1,1,0,1,-12,1,-15,1,-13,1
1482,1,1,12,1,11,1,-6,1,-5,1,12,1,-2,1,1,1,0,1,-12,1,-15,1,-13,1
1483,2,1,11,1,9,1,-6,1,-3,1,10,1,-2,1,1,1,0,1,-12,1,-16,1,-13,1
1484,3,1,12,1,9,1,-7,1,-3,1,11,1,-2,1,1,1,-1,1,-12,1,-16,1,-14,1
1485,2,1,11,1,9,1,-6,1,-3,1,10,1,-2,1,1,1,-1,1,-12,1,-16,1,-14,1
1486,1,1,10,1,9,1,-5,1,-4,1,10,1,-2,1,1,1,-1,1,-12,1,-16,1,-14,1
1487,0,1,9,1,9,1,-4,1,-4,1,9,1,-3,1,0,1,-1,1,-12,1,-16,1,-14,1
1488,-2,1,7,1,9,1,-2,1,-5,1,8,1,-2,1,0,1,-2,1,-12,1,-17,1,-15,1
1489,-3,1,7,1,10,1,-2,1,-6,1,8,1,-1,1,1,1,-1,1,-12,1,-17,1,-14,1
1490,-3,1,7,1,10,1,-2,1,-6,1,8,1,-1,1,1,1,-1,1,-12,1,-17,1,-13,1
1491,-3,1,6,1,9,1,-1,1,-6,1,7,1,-1,1,1,1,-1,1,-13,1,-18,1,-13,1
1492,-3,1,6,1,9,1,-1,1,-6,1,7,1,-2,1,1,1,-2,1,-13,1,-18,1,-13,1
1493,-2,1,7,1,9,1,-2,1,-5,1,8,1,-2,1,1,1,-2,1,-13,1,-18,1,-13,1
1494,-1,1,8,1,9,1,-3,1,-5,1,8,1,-1,1,0,1,-2,1,-13,1,-17,1,-14,1
1495,0,1,10,1,10,1,-5,1,-5,1,10,1,-1,1,0,1,-2,1,-13,1,-17,1,-14,1
1496,1,1,10,1,9,1,-5,1,-4,1,10,1,-1,1,0,1,-2,1,-14,1,-17,1,-15,1
1497,0,1,8,1,8,1,-4,1,-4,1,8,1,-1,1,0,1,-3,1,-14,1,-17,1,-16,1
1498,-1,1,6,1,7,1,-2,1,-4,1,6,1,-1,1,0,1,-4,1,-15,1,-17,1,-16,1
1499,-2,1,6,1,8,1,-2,1,-5,1,7,1,-1,1,0,1,-4,1,-15,1,-17,1,-16,1
1500,-1,1,5,1,6,1,-2,1,-3,1,5,1,-2,1,-1,1,-4,1,-15,1,-18,1,-16,1
1501,0,1,5,1,5,1,-2,1,-2,1,5,1,-3,1,-2,1,-4,1,-15,1,-19,1,-17,1
1502,2,1,6,1,4,1,-4,1,-1,1,5,1,-3,1,-2,1,-5,1,-15,1,-19,1,-17,1
1503,1,1,5,1,4,1,-3,1,-1,1,5,1,-4,1,-2,1,-5,1,-16,1,-20,1,-17,1
1504,0,1,5,1,5,1,-2,1,-2,1,5,1,-4,1,-2,1,-6,1,-16,1,-20,1,-18,1
1505,0,1,5,1,5,1,-2,1,-2,1,5,1,-3,1,-2,1,-6,1,-16,1,-19,1,-17,1
1506,0,1,7,1,7,1,-3,1,-3,1,7,1,-2,1,-2,1,-6,1,-16,1,-19,1,-17,1
1507,0,1,6,1,6,1,-3,1,-3,1,6,1,-3,1,-2,1,-6,1,-16,1,-19,1,-18,1
1508,0,1,5,1,5,1,-2,1,-2,1,5,1,-3,1,-2,1,-7,1,-16,1,-20,1,-18,1
1509,0,1,5,1,5,1,-2,1,-2,1,5,1,-3,1,-2,1,-6,1,-17,1,-21,1,-18,1
1510,0,1,6,1,6,1,-3,1,-3,1,6,1,-3,1,-1,1,-5,1,-16,1,-20,1,-18,1
1511,0,1,6,1,6,1,-3,1,-3,1,6,1,-3,1,-1,1,-6,1,-16,1,-20,1,-18,1
1512,0,1,7,1,7,1,-3,1,-3,1,7,1,-3,1,0,1,-6,1,-15,1,-19,1,-18,1
1513,-1,1,8,1,9,1,-3,1,-5,1,8,1,-3,1,-1,1,-6,1,-14,1,-19,1,-18,1
1514,-1,1,7,1,8,1,-3,1,-4,1,7,1,-3,1,-2,1,-6,1,-14,1,-19,1,-18,1
1515,-1,1,7,1,8,1,-3,1,-4,1,7,1,-3,1,-2,1,-6,1,-15,1,-19,1,-18,1
1516,-1,1,7,1,8,1,-3,1,-4,1,7,1,-4,1,-3,1,-6,1,-15,1,-20,1,-18,1
1517,0,1,6,1,6,1,-3,1,-3,1,6,1,-3,1,-3,1,-6,1,-15,1,-20,1,-17,1
1518,0,1,6,1,6,1,-3,1,-3,1,6,1,-2,1,-2,1,-5,1,-14,1,-19,1,-17,1
1519,-2,1,6,1,8,1,-2,1,-5,1,7,1,-1,1,-2,1,-4,1,-13,1,-18,1,-17,1
1520,-4,1,6,1,10,1,-1,1,-7,1,8,1,0,1,-2,1,-3,1,-13,1,-17,1,-17,1
1521,-2,1,7,1,9,1,-2,1,-5,1,8,1,1,1,-1,1,-3,1,-12,1,-17,1,-16,1
1522,-2,1,8,1,10,1,-3,1,-6,1,9,1,1,1,-1,1,-2,1,-11,1,-17,1,-15,1
1523,-1,1,9,1,10,1,-4,1,-5,1,9,1,2,1,0,1,-1,1,-11,1,-16,1,-15,1
1524,0,1,10,1,10,1,-5,1,-5,1,10,1,3,1,1,1,-1,1,-10,1,-16,1,-14,1
1525,1,1,13,1,12,1,-7,1,-5,1,13,1,4,1,2,1,0,1,-9,1,-15,1,-14,1
1526,1,1,14,1,13,1,-7,1,-6,1,14,1,4,1,3,1,1,1,-9,1,-15,1,-13,1
1527,1,1,16,1,15,1,-8,1,-7,1,16,1,4,1,5,1,1,1,-9,1,-15,1,-13,1
1528,0,1,17,1,17,1,-8,1,-8,1,17,1,4,1,5,1,2,1,-8,1,-15,1,-13,1
1529,0,1,18,1,18,1,-9,1,-9,1,18,1,5,1,6,1,2,1,-8,1,-15,1,-13,1
1530,-2,1,17,1,19,1,-7,1,-10,1,18,1,6,1,7,1,3,1,-8,1,-15,1,-13,1
1531,-2,1,17,1,19,1,-7,1,-10,1,18,1,8,1,9,1,3,1,-7,1,-15,1,-13,1
1532,-2,1,17,1,19,1,-7,1,-10,1,18,1,10,1,10,1,4,1,-6,1,-14,1,-12,1
1533,-2,1,17,1,19,1,-7,1,-10,1,18,1,11,1,11,1,5,1,-6,1,-14,1,-12,1
1534,0,1,17,1,17,1,-8,1,-8,1,17,1,12,1,11,1,5,1,-6,1,-13,1,-11,1
1535,1,1,19,1,18,1,-10,1,-8,1,19,1,12,1,13,1,6,1,-5,1,-12,1,-10,1
1536,2,1,20,1,18,1,-11,1,-8,1,19,1,9,1,13,1,6,1,-5,1,-12,1,-10,1
1537,2,1,21,1,19,1,-11,1,-8,1,20,1,5,1,11,1,5,1,-6,1,-12,1,-10,1
1538,0,1,20,1,20,1,-10,1,-10,1,20,1,1,1,8,1,3,1,-6,1,-12,1,-10,1
1539,0,1,20,1,20,1,-10,1,-10,1,20,1,-2,1,5,1,3,1,-5,1,-12,1,-10,1
1540,0,1,22,1,22,1,-11,1,-11,1,22,1,-5,1,2,1,2,1,-5,1,-11,1,-10,1
1541,1,1,24,1,23,1,-12,1,-11,1,24,1,-7,1,0,1,2,1,-4,1,-11,1,-9,1
1542,1,1,25,1,24,1,-13,1,-11,1,25,1,-9,1,-1,1,1,1,-4,1,-11,1,-8,1
1543,1,1,25,1,24,1,-13,1,-11,1,25,1,-11,1,-4,1,0,1,-5,1,-11,1,-9,1
1544,3,1,26,1,23,1,-14,1,-10,1,25,1,-13,1,-6,1,-2,1,-6,1,-11,1,-9,1
1545,3,1,25,1,22,1,-14,1,-9,1,24,1,-13,1,-9,1,-5,1,-8,1,-12,1,-10,1
1546,2,1,24,1,22,1,-13,1,-10,1,23,1,-13,1,-11,1,-6,1,-9,1,-12,1,-10,1
1547,2,1,24,1,22,1,-13,1,-10,1,23,1,-13,1,-12,1,-5,1,-10,1,-12,1,-11,1
1548,2,1,24,1,22,1,-13,1,-10,1,23,1,-13,1,-12,1,-5,1,-9,1,-12,1,-10,1
1549,4,1,26,1,22,1,-15,1,-9,1,24,1,-12,1,-12,1,-5,1,-8,1,-12,1,-9,1
1550,5,1,27,1,22,1,-16,1,-8,1,25,1,-13,1,-12,1,-5,1,-8,1,-12,1,-9,1
1551,7,1,27,1,20,1,-17,1,-6,1,24,1,-15,1,-12,1,-6,1,-9,1,-12,1,-9,1
1552,8,1,27,1,19,1,-17,1,-5,1,23,1,-16,1,-13,1,-6,1,-9,1,-13,1,-10,1
1553,7,1,26,1,19,1,-16,1,-6,1,23,1,-18,1,-13,1,-7,1,-9,1,-13,1,-10,1
1554,8,1,25,1,17,1,-16,1,-4,1,21,1,-19,1,-14,1,-8,1,-9,1,-13,1,-10,1
1555,9,1,23,1,14,1,-16,1,-2,1,19,1,-19,1,-14,1,-8,1,-10,1,-12,1,-11,1
1556,8,1,21,1,13,1,-14,1,-2,1,17,1,-17,1,-13,1,-6,1,-9,1,-12,1,-11,1
1557,6,1,19,1,13,1,-12,1,-3,1,16,1,-16,1,-10,1,-5,1,-8,1,-11,1,-10,1
1558,4,1,16,1,12,1,-10,1,-4,1,14,1,-15,1,-10,1,-5,1,-8,1,-11,1,-10,1
1559,4,1,14,1,10,1,-9,1,-3,1,12,1,-15,1,-10,1,-6,1,-10,1,-12,1,-12,1
1560,4,1,12,1,8,1,-8,1,-2,1,10,1,-15,1,-10,1,-7,1,-11,1,-13,1,-13,1
1561,3,1,10,1,7,1,-6,1,-2,1,9,1,-14,1,-10,1,-9,1,-12,1,-15,1,-14,1
1562,1,1,9,1,8,1,-5,1,-3,1,9,1,-12,1,-9,1,-9,1,-13,1,-17,1,-16,1
1563,-1,1,9,1,10,1,-4,1,-5,1,9,1,-10,1,-8,1,-9,1,-13,1,-17,1,-16,1
1564,-4,1,7,1,11,1,-1,1,-7,1,9,1,-10,1,-7,1,-9,1,-13,1,-18,1,-16,1
1565,-6,1,5,1,11,1,0,1,-8,1,8,1,-9,1,-8,1,-9,1,-13,1,-19,1,-17,1
1566,-6,1,4,1,10,1,1,1,-8,1,7,1,-9,1,-8,1,-10,1,-14,1,-20,1,-19,1
1567,-5,1,3,1,8,1,1,1,-6,1,5,1,-8,1,-8,1,-10,1,-15,1,-21,1,-21,1
1568,-8,1,0,1,8,1,4,1,-8,1,4,1,-7,1,-7,1,-10,1,-15,1,-21,1,-22,1
1569,-8,1,-1,1,7,1,4,1,-8,1,3,1,-5,1,-6,1,-9,1,-15,1,-21,1,-22,1
1570,-8,1,-1,1,7,1,4,1,-8,1,3,1,-4,1,-5,1,-9,1,-16,1,-22,1,-22,1
1571,-7,1,-2,1,5,1,4,1,-6,1,1,1,-4,1,-5,1,-9,1,-17,1,-23,1,-22,1
1572,-8,1,-3,1,5,1,5,1,-7,1,1,1,-4,1,-6,1,-10,1,-17,1,-24,1,-23,1
1573,-9,1,-3,1,6,1,6,1,-8,1,1,1,-4,1,-7,1,-11,1,-18,1,-25,1,-24,1
1574,-9,1,-4,1,5,1,6,1,-7,1,0,1,-5,1,-8,1,-12,1,-19,1,-25,1,-24,1
1575,-10,1,-5,1,5,1,7,1,-8,1,0,1,-5,1,-8,1,-13,1,-19,1,-26,1,-25,1
1576,-10,1,-5,1,5,1,7,1,-8,1,0,1,-5,1,-8,1,-14,1,-20,1,-25,1,-25,1
1577,-10,1,-7,1,3,1,8,1,-7,1,-2,1,-5,1,-7,1,-15,1,-21,1,-25,1,-26,1
1578,-9,1,-8,1,1,1,8,1,-5,1,-4,1,-5,1,-7,1,-15,1,-21,1,-26,1,-26,1
1579,-9,1,-8,1,1,1,8,1,-5,1,-4,1,-4,1,-6,1,-14,1,-21,1,-26,1,-27,1
1580,-9,1,-8,1,1,1,8,1,-5,1,-4,1,-4,1,-6,1,-13,1,-21,1,-26,1,-27,1
1581,-9,1,-7,1,2,1,8,1,-6,1,-3,1,-4,1,-6,1,-13,1,-21,1,-26,1,-27,1
1582,-10,1,-6,1,4,1,8,1,-7,1,-1,1,-5,1,-5,1,-13,1,-20,1,-26,1,-28,1
1583,-11,1,-6,1,5,1,8,1,-8,1,-1,1,-4,1,-5,1,-12,1,-20,1,-25,1,-28,1
1584,-11,1,-6,1,5,1,8,1,-8,1,-1,1,-4,1,-4,1,-11,1,-19,1,-25,1,-28,1
1585,-11,1,-7,1,4,1,9,1,-8,1,-2,1,-2,1,-2,1,-10,1,-19,1,-26,1,-28,1
1586,-13,1,-8,1,5,1,10,1,-9,1,-2,1,0,1,3,1,-6,1,-18,1,-27,1,-29,1
1587,-14,1,-9,1,5,1,11,1,-10,1,-2,1,3,1,10,1,0,1,-16,1,-27,1,-29,1
1588,-15,1,-9,1,6,1,12,1,-11,1,-2,1,6,1,19,1,10,1,-10,1,-25,1,-27,1
1589,-15,1,-6,1,9,1,10,1,-12,1,1,1,8,1,29,1,22,1,-1,1,-21,1,-25,1
1590,-11,1,-2,1,9,1,6,1,-10,1,3,1,9,1,39,1,35,1,10,1,-15,1,-22,1
1591,-7,1,4,1,11,1,1,1,-9,1,7,1,9,1,46,1,49,1,24,1,-5,1,-16,1
1592,-4,1,12,1,16,1,-4,1,-10,1,14,1,7,1,46,1,58,1,36,1,5,1,-7,1
1593,0,1,24,1,24,1,-12,1,-12,1,24,1,3,1,39,1,62,1,48,1,20,1,5,1
1594,9,1,36,1,27,1,-22,1,-9,1,32,1,-3,1,28,1,64,1,61,1,39,1,22,1
1595,22,1,49,1,27,1,-35,1,-2,1,38,1,-13,1,16,1,68,1,78,1,64,1,44,1
1596,37,1,63,1,26,1,-50,1,6,1,45,1,-24,1,6,1,76,1,101,1,95,1,71,1
1597,49,1,79,1,30,1,-64,1,10,1,55,1,-34,1,-4,1,82,1,125,1,127,1,100,1
1598,60,1,95,1,35,1,-77,1,13,1,65,1,-44,1,-17,1,86,1,147,1,157,1,129,1
1599,70,1,112,1,42,1,-91,1,14,1,77,1,-54,1,-31,1,86,1,167,1,186,1,156,1
1600,76,1,126,1,50,1,-101,1,13,1,88,1,-62,1,-41,1,90,1,185,1,211,1,179,1
1601,82,1,131,1,49,1,-106,1,17,1,90,1,-66,1,-43,1,95,1,199,1,227,1,192,1
1602,83,1,126,1,43,1,-104,1,20,1,85,1,-64,1,-43,1,95,1,200,1,228,1,191,1
1603,79,1,115,1,36,1,-97,1,22,1,76,1,-58,1,-46,1,85,1,189,1,215,1,177,1
1604,71,1,102,1,31,1,-86,1,20,1,67,1,-54,1,-55,1,64,1,165,1,191,1,157,1
1605,60,1,89,1,29,1,-74,1,16,1,59,1,-51,1,-69,1,33,1,132,1,159,1,132,1
1606,46,1,75,1,29,1,-60,1,9,1,52,1,-49,1,-89,1,-9,1,85,1,116,1,101,1
1607,33,1,64,1,31,1,-48,1,1,1,48,1,-48,1,-107,1,-55,1,34,1,69,1,69,1
1608,19,1,53,1,34,1,-36,1,-7,1,44,1,-43,1,-122,1,-98,1,-16,1,23,1,38,1
1609,6,1,44,1,38,1,-25,1,-16,1,41,1,-39,1,-131,1,-128,1,-53,1,-10,1,14,1
1610,-3,1,34,1,37,1,-15,1,-20,1,35,1,-36,1,-137,1,-145,1,-78,1,-33,1,-3,1
1611,-12,1,24,1,36,1,-6,1,-24,1,30,1,-32,1,-140,1,-154,1,-94,1,-50,1,-17,1
1612,-19,1,11,1,30,1,4,1,-24,1,20,1,-26,1,-137,1,-158,1,-106,1,-62,1,-30,1
1613,-24,1,1,1,25,1,11,1,-24,1,13,1,-20,1,-130,1,-156,1,-111,1,-70,1,-39,1
1614,-26,1,-6,1,20,1,16,1,-23,1,7,1,-15,1,-122,1,-151,1,-112,1,-74,1,-45,1
1615,-28,1,-11,1,17,1,19,1,-23,1,3,1,-11,1,-112,1,-142,1,-108,1,-73,1,-47,1
1616,-29,1,-14,1,15,1,21,1,-22,1,0,1,-9,1,-101,1,-129,1,-101,1,-70,1,-46,1
1617,-28,1,-17,1,11,1,22,1,-20,1,-3,1,-9,1,-89,1,-115,1,-93,1,-67,1,-46,1
1618,-26,1,-20,1,6,1,23,1,-16,1,-7,1,-7,1,-75,1,-101,1,-85,1,-64,1,-46,1
1619,-24,1,-21,1,3,1,22,1,-14,1,-9,1,-6,1,-63,1,-86,1,-76,1,-61,1,-45,1
1620,-23,1,-20,1,3,1,21,1,-13,1,-9,1,-6,1,-55,1,-74,1,-68,1,-57,1,-44,1
1621,-22,1,-19,1,3,1,20,1,-13,1,-8,1,-6,1,-47,1,-63,1,-60,1,-54,1,-42,1
1622,-19,1,-17,1,2,1,18,1,-11,1,-8,1,-6,1,-42,1,-55,1,-53,1,-49,1,-40,1
1623,-17,1,-15,1,2,1,16,1,-10,1,-7,1,-7,1,-38,1,-48,1,-48,1,-45,1,-38,1
1624,-15,1,-13,1,2,1,14,1,-9,1,-6,1,-8,1,-34,1,-43,1,-42,1,-40,1,-35,1
1625,-15,1,-11,1,4,1,13,1,-10,1,-4,1,-8,1,-27,1,-37,1,-37,1,-35,1,-31,1
1626,-16,1,-11,1,5,1,13,1,-11,1,-3,1,-7,1,-21,1,-31,1,-33,1,-31,1,-28,1
1627,-15,1,-11,1,4,1,13,1,-10,1,-4,1,-7,1,-16,1,-27,1,-30,1,-29,1,-28,1
1628,-14,1,-11,1,3,1,12,1,-9,1,-4,1,-5,1,-12,1,-24,1,-30,1,-29,1,-28,1
1629,-14,1,-11,1,3,1,12,1,-9,1,-4,1,-4,1,-11,1,-22,1,-29,1,-30,1,-27,1
1630,-14,1,-11,1,3,1,12,1,-9,1,-4,1,-4,1,-11,1,-21,1,-29,1,-31,1,-27,1
1631,-13,1,-10,1,3,1,11,1,-8,1,-4,1,-3,1,-12,1,-20,1,-28,1,-32,1,-28,1
1632,-14,1,-11,1,3,1,12,1,-9,1,-4,1,-3,1,-13,1,-19,1,-27,1,-32,1,-28,1
1633,-17,1,-11,1,6,1,14,1,-12,1,-3,1,-3,1,-13,1,-18,1,-26,1,-31,1,-27,1
1634,-18,1,-12,1,6,1,15,1,-12,1,-3,1,-3,1,-13,1,-18,1,-25,1,-31,1,-27,1
1635,-17,1,-12,1,5,1,14,1,-11,1,-4,1,-3,1,-13,1,-18,1,-25,1,-29,1,-27,1
1636,-16,1,-13,1,3,1,14,1,-10,1,-5,1,-3,1,-12,1,-17,1,-23,1,-28,1,-27,1
1637,-14,1,-13,1,1,1,13,1,-8,1,-6,1,-3,1,-11,1,-17,1,-23,1,-28,1,-27,1
1638,-11,1,-12,1,-1,1,11,1,-5,1,-7,1,-3,1,-11,1,-16,1,-24,1,-28,1,-27,1
1639,-10,1,-12,1,-2,1,11,1,-4,1,-7,1,-2,1,-10,1,-15,1,-24,1,-28,1,-27,1
1640,-11,1,-12,1,-1,1,11,1,-5,1,-7,1,-2,1,-10,1,-14,1,-24,1,-27,1,-27,1
1641,-11,1,-13,1,-2,1,12,1,-5,1,-8,1,-2,1,-10,1,-13,1,-24,1,-28,1,-27,1
1642,-12,1,-13,1,-1,1,12,1,-6,1,-7,1,-2,1,-10,1,-13,1,-23,1,-28,1,-27,1
1643,-15,1,-12,1,3,1,13,1,-9,1,-5,1,-2,1,-9,1,-12,1,-21,1,-27,1,-27,1
1644,-16,1,-11,1,5,1,13,1,-11,1,-3,1,-1,1,-9,1,-11,1,-21,1,-27,1,-26,1
1645,-15,1,-10,1,5,1,12,1,-10,1,-3,1,-2,1,-10,1,-11,1,-21,1,-27,1,-27,1
1646,-15,1,-10,1,5,1,12,1,-10,1,-3,1,-3,1,-10,1,-11,1,-21,1,-26,1,-27,1
1647,-14,1,-10,1,4,1,12,1,-9,1,-3,1,-3,1,-9,1,-11,1,-21,1,-26,1,-27,1
1648,-12,1,-10,1,2,1,11,1,-7,1,-4,1,-2,1,-8,1,-10,1,-21,1,-25,1,-27,1
1649,-12,1,-10,1,2,1,11,1,-7,1,-4,1,-2,1,-8,1,-10,1,-21,1,-25,1,-27,1
1650,-12,1,-11,1,1,1,11,1,-7,1,-5,1,-2,1,-8,1,-9,1,-21,1,-26,1,-26,1
1651,-14,1,-12,1,2,1,13,1,-8,1,-5,1,-2,1,-8,1,-8,1,-21,1,-26,1,-25,1
1652,-16,1,-13,1,3,1,14,1,-10,1,-5,1,-2,1,-8,1,-8,1,-21,1,-26,1,-25,1
1653,-14,1,-11,1,3,1,12,1,-9,1,-4,1,-2,1,-8,1,-9,1,-21,1,-26,1,-25,1
1654,-14,1,-11,1,3,1,12,1,-9,1,-4,1,-2,1,-8,1,-9,1,-21,1,-27,1,-25,1
1655,-15,1,-11,1,4,1,13,1,-10,1,-4,1,-2,1,-8,1,-11,1,-22,1,-26,1,-25,1
1656,-15,1,-10,1,5,1,12,1,-10,1,-3,1,-1,1,-7,1,-10,1,-21,1,-25,1,-25,1
1657,-16,1,-11,1,5,1,13,1,-11,1,-3,1,-2,1,-7,1,-11,1,-21,1,-24,1,-25,1
1658,-15,1,-12,1,3,1,13,1,-9,1,-5,1,-2,1,-7,1,-11,1,-20,1,-25,1,-25,1
1659,-14,1,-12,1,2,1,13,1,-8,1,-5,1,-2,1,-7,1,-11,1,-19,1,-25,1,-25,1
1660,-14,1,-13,1,1,1,13,1,-8,1,-6,1,-2,1,-7,1,-10,1,-19,1,-25,1,-25,1
1661,-13,1,-13,1,0,1,13,1,-7,1,-7,1,-1,1,-6,1,-10,1,-18,1,-24,1,-25,1
1662,-12,1,-13,1,-1,1,12,1,-6,1,-7,1,-1,1,-6,1,-9,1,-18,1,-24,1,-25,1
1663,-13,1,-13,1,0,1,13,1,-7,1,-7,1,-2,1,-6,1,-9,1,-18,1,-24,1,-25,1
1664,-14,1,-12,1,2,1,13,1,-8,1,-5,1,-2,1,-6,1,-10,1,-18,1,-24,1,-25,1
1665,-14,1,-12,1,2,1,13,1,-8,1,-5,1,-3,1,-7,1,-11,1,-18,1,-25,1,-26,1
1666,-14,1,-11,1,3,1,12,1,-9,1,-4,1,-4,1,-6,1,-10,1,-18,1,-24,1,-26,1
1667,-14,1,-11,1,3,1,12,1,-9,1,-4,1,-4,1,-6,1,-10,1,-17,1,-24,1,-25,1
1668,-16,1,-12,1,4,1,14,1,-10,1,-4,1,-3,1,-5,1,-10,1,-18,1,-24,1,-25,1
1669,-15,1,-11,1,4,1,13,1,-10,1,-4,1,-4,1,-5,1,-9,1,-18,1,-25,1,-24,1
1670,-13,1,-10,1,3,1,11,1,-8,1,-4,1,-3,1,-5,1,-9,1,-17,1,-24,1,-24,1
1671,-12,1,-10,1,2,1,11,1,-7,1,-4,1,-3,1,-5,1,-9,1,-18,1,-24,1,-24,1
1672,-12,1,-10,1,2,1,11,1,-7,1,-4,1,-2,1,-5,1,-9,1,-17,1,-23,1,-24,1
1673,-12,1,-9,1,3,1,10,1,-8,1,-3,1,-2,1,-5,1,-9,1,-17,1,-23,1,-24,1
1674,-12,1,-9,1,3,1,10,1,-8,1,-3,1,-3,1,-6,1,-9,1,-18,1,-23,1,-25,1
1675,-12,1,-7,1,5,1,9,1,-9,1,-1,1,-2,1,-4,1,-8,1,-17,1,-22,1,-23,1
1676,-12,1,-7,1,5,1,9,1,-9,1,-1,1,-1,1,-4,1,-8,1,-17,1,-22,1,-23,1
1677,-12,1,-6,1,6,1,9,1,-9,1,0,1,-2,1,-4,1,-8,1,-17,1,-21,1,-23,1
1678,-12,1,-8,1,4,1,10,1,-8,1,-2,1,-3,1,-5,1,-8,1,-17,1,-22,1,-23,1
1679,-12,1,-9,1,3,1,10,1,-8,1,-3,1,-4,1,-5,1,-7,1,-17,1,-21,1,-22,1
1680,-11,1,-8,1,3,1,9,1,-7,1,-3,1,-4,1,-5,1,-7,1,-17,1,-21,1,-22,1
1681,-11,1,-9,1,2,1,10,1,-7,1,-4,1,-5,1,-5,1,-8,1,-17,1,-22,1,-22,1
1682,-12,1,-10,1,2,1,11,1,-7,1,-4,1,-5,1,-6,1,-9,1,-17,1,-22,1,-23,1
1683,-11,1,-10,1,1,1,10,1,-6,1,-5,1,-6,1,-7,1,-9,1,-18,1,-23,1,-23,1
1684,-10,1,-9,1,1,1,9,1,-6,1,-4,1,-6,1,-7,1,-9,1,-18,1,-23,1,-23,1
1685,-10,1,-9,1,1,1,9,1,-6,1,-4,1,-6,1,-6,1,-9,1,-18,1,-23,1,-23,1
1686,-9,1,-8,1,1,1,8,1,-5,1,-4,1,-7,1,-6,1,-9,1,-19,1,-22,1,-22,1
1687,-9,1,-7,1,2,1,8,1,-6,1,-3,1,-7,1,-5,1,-7,1,-18,1,-22,1,-22,1
1688,-10,1,-6,1,4,1,8,1,-7,1,-1,1,-6,1,-4,1,-5,1,-16,1,-20,1,-21,1
1689,-13,1,-6,1,7,1,9,1,-10,1,0,1,-7,1,-3,1,-4,1,-15,1,-19,1,-21,1
1690,-15,1,-7,1,8,1,11,1,-12,1,0,1,-7,1,-3,1,-4,1,-15,1,-19,1,-21,1
1691,-13,1,-6,1,7,1,9,1,-10,1,0,1,-8,1,-3,1,-4,1,-14,1,-19,1,-21,1
1692,-11,1,-6,1,5,1,8,1,-8,1,-1,1,-8,1,-3,1,-4,1,-14,1,-18,1,-21,1
1693,-10,1,-6,1,4,1,8,1,-7,1,-1,1,-9,1,-3,1,-5,1,-13,1,-19,1,-21,1
1694,-11,1,-7,1,4,1,9,1,-8,1,-2,1,-9,1,-4,1,-5,1,-12,1,-19,1,-20,1
1695,-11,1,-8,1,3,1,9,1,-7,1,-3,1,-10,1,-3,1,-5,1,-12,1,-19,1,-20,1
1696,-10,1,-8,1,2,1,9,1,-6,1,-3,1,-10,1,-3,1,-5,1,-11,1,-20,1,-20,1
1697,-10,1,-7,1,3,1,8,1,-7,1,-2,1,-11,1,-4,1,-5,1,-12,1,-20,1,-19,1
1698,-11,1,-7,1,4,1,9,1,-8,1,-2,1,-11,1,-4,1,-5,1,-12,1,-19,1,-19,1
1699,-11,1,-7,1,4,1,9,1,-8,1,-2,1,-11,1,-5,1,-4,1,-12,1,-19,1,-18,1
1700,-10,1,-6,1,4,1,8,1,-7,1,-1,1,-12,1,-5,1,-4,1,-13,1,-17,1,-18,1
1701,-9,1,-6,1,3,1,7,1,-6,1,-2,1,-12,1,-5,1,-4,1,-13,1,-16,1,-18,1
1702,-9,1,-6,1,3,1,7,1,-6,1,-2,1,-11,1,-5,1,-4,1,-13,1,-15,1,-16,1
1703,-9,1,-5,1,4,1,7,1,-7,1,-1,1,-11,1,-5,1,-4,1,-12,1,-14,1,-16,1
1704,-8,1,-4,1,4,1,6,1,-6,1,0,1,-12,1,-5,1,-4,1,-11,1,-14,1,-15,1
1705,-6,1,-4,1,2,1,5,1,-4,1,-1,1,-13,1,-5,1,-5,1,-11,1,-15,1,-15,1
1706,-5,1,-3,1,2,1,4,1,-4,1,-1,1,-13,1,-5,1,-5,1,-11,1,-15,1,-15,1
1707,-4,1,-2,1,2,1,3,1,-3,1,0,1,-14,1,-5,1,-5,1,-10,1,-15,1,-15,1
1708,-3,1,-1,1,2,1,2,1,-3,1,0,1,-15,1,-4,1,-4,1,-10,1,-15,1,-14,1
1709,-4,1,-1,1,3,1,2,1,-4,1,1,1,-15,1,-5,1,-4,1,-10,1,-14,1,-14,1
1710,-5,1,-1,1,4,1,3,1,-5,1,1,1,-16,1,-6,1,-5,1,-10,1,-14,1,-14,1
1711,-6,1,-3,1,3,1,4,1,-5,1,0,1,-17,1,-7,1,-5,1,-11,1,-15,1,-14,1
1712,-7,1,-3,1,4,1,5,1,-6,1,0,1,-17,1,-7,1,-5,1,-10,1,-14,1,-14,1
1713,-5,1,-1,1,4,1,3,1,-5,1,1,1,-18,1,-7,1,-5,1,-10,1,-14,1,-13,1
1714,-5,1,0,1,5,1,2,1,-5,1,2,1,-18,1,-7,1,-4,1,-9,1,-12,1,-12,1
1715,-7,1,0,1,7,1,3,1,-7,1,3,1,-19,1,-7,1,-4,1,-9,1,-12,1,-12,1
1716,-7,1,0,1,7,1,3,1,-7,1,3,1,-20,1,-7,1,-4,1,-9,1,-12,1,-11,1
1717,-6,1,1,1,7,1,2,1,-6,1,4,1,-20,1,-7,1,-4,1,-8,1,-11,1,-10,1
1718,-6,1,2,1,8,1,2,1,-7,1,5,1,-20,1,-7,1,-5,1,-8,1,-10,1,-9,1
1719,-5,1,1,1,6,1,2,1,-5,1,3,1,-20,1,-8,1,-5,1,-8,1,-11,1,-9,1
1720,-3,1,1,1,4,1,1,1,-3,1,2,1,-21,1,-8,1,-6,1,-8,1,-10,1,-9,1
1721,-3,1,1,1,4,1,1,1,-3,1,2,1,-22,1,-8,1,-6,1,-8,1,-10,1,-9,1
1722,-1,1,1,1,2,1,0,1,-1,1,1,1,-23,1,-8,1,-7,1,-9,1,-9,1,-8,1
1723,0,1,1,1,1,1,0,1,0,1,1,1,-24,1,-10,1,-7,1,-10,1,-9,1,-8,1
1724,1,1,3,1,2,1,-2,1,0,1,3,1,-25,1,-10,1,-7,1,-10,1,-7,1,-7,1
1725,0,1,2,1,2,1,-1,1,-1,1,2,1,-26,1,-11,1,-7,1,-11,1,-7,1,-7,1
1726,-2,1,1,1,3,1,0,1,-2,1,2,1,-27,1,-12,1,-8,1,-11,1,-7,1,-8,1
1727,-1,1,2,1,3,1,0,1,-2,1,2,1,-28,1,-13,1,-9,1,-11,1,-7,1,-7,1
1728,1,1,3,1,2,1,-2,1,0,1,3,1,-28,1,-13,1,-10,1,-11,1,-7,1,-6,1
1729,2,1,3,1,1,1,-2,1,1,1,2,1,-29,1,-14,1,-11,1,-11,1,-7,1,-5,1
1730,4,1,4,1,0,1,-4,1,2,1,2,1,-30,1,-15,1,-11,1,-11,1,-8,1,-5,1
1731,6,1,4,1,-2,1,-5,1,4,1,1,1,-30,1,-16,1,-12,1,-12,1,-9,1,-4,1
1732,7,1,4,1,-3,1,-5,1,5,1,1,1,-30,1,-17,1,-13,1,-13,1,-9,1,-4,1
1733,8,1,4,1,-4,1,-6,1,6,1,0,1,-31,1,-18,1,-14,1,-13,1,-9,1,-4,1
1734,6,1,5,1,-1,1,-5,1,4,1,2,1,-30,1,-19,1,-15,1,-13,1,-8,1,-3,1
1735,3,1,5,1,2,1,-4,1,1,1,4,1,-30,1,-18,1,-14,1,-13,1,-7,1,-2,1
1736,1,1,6,1,5,1,-3,1,-2,1,6,1,-30,1,-18,1,-14,1,-12,1,-6,1,0,1
1737,1,1,6,1,5,1,-3,1,-2,1,6,1,-31,1,-20,1,-15,1,-13,1,-5,1,0,1
1738,1,1,7,1,6,1,-4,1,-2,1,7,1,-31,1,-20,1,-16,1,-14,1,-4,1,1,1
1739,1,1,6,1,5,1,-3,1,-2,1,6,1,-32,1,-21,1,-17,1,-15,1,-4,1,1,1
1740,1,1,6,1,5,1,-3,1,-2,1,6,1,-33,1,-22,1,-18,1,-14,1,-3,1,2,1
1741,1,1,6,1,5,1,-3,1,-2,1,6,1,-32,1,-22,1,-18,1,-14,1,-3,1,2,1
1742,1,1,7,1,6,1,-4,1,-2,1,7,1,-31,1,-21,1,-18,1,-13,1,-2,1,2,1
1743,3,1,7,1,4,1,-5,1,0,1,6,1,-31,1,-21,1,-19,1,-14,1,-3,1,2,1
1744,3,1,8,1,5,1,-5,1,-1,1,7,1,-32,1,-22,1,-19,1,-14,1,-3,1,2,1
1745,2,1,8,1,6,1,-5,1,-2,1,7,1,-32,1,-22,1,-18,1,-14,1,-3,1,3,1
1746,2,1,8,1,6,1,-5,1,-2,1,7,1,-32,1,-21,1,-17,1,-13,1,-2,1,3,1
1747,2,1,9,1,7,1,-5,1,-2,1,8,1,-32,1,-20,1,-16,1,-13,1,-2,1,3,1
1748,-1,1,7,1,8,1,-3,1,-4,1,7,1,-31,1,-19,1,-16,1,-13,1,-2,1,2,1
1749,-3,1,6,1,9,1,-1,1,-6,1,7,1,-31,1,-18,1,-16,1,-13,1,-3,1,1,1
1750,-2,1,7,1,9,1,-2,1,-5,1,8,1,-30,1,-17,1,-16,1,-11,1,-3,1,0,1
1751,-1,1,6,1,7,1,-2,1,-4,1,6,1,-29,1,-16,1,-16,1,-11,1,-3,1,0,1
1752,-3,1,4,1,7,1,0,1,-5,1,5,1,-29,1,-16,1,-16,1,-11,1,-3,1,-1,1
1753,-4,1,3,1,7,1,0,1,-5,1,5,1,-28,1,-15,1,-16,1,-12,1,-4,1,-2,1
1754,-3,1,3,1,6,1,0,1,-4,1,4,1,-26,1,-13,1,-15,1,-12,1,-5,1,-3,1
1755,-3,1,3,1,6,1,0,1,-4,1,4,1,-25,1,-12,1,-14,1,-12,1,-5,1,-4,1
1756,-2,1,3,1,5,1,0,1,-3,1,4,1,-24,1,-10,1,-12,1,-12,1,-6,1,-5,1
1757,-2,1,3,1,5,1,0,1,-3,1,4,1,-23,1,-9,1,-11,1,-12,1,-6,1,-6,1
1758,-3,1,3,1,6,1,0,1,-4,1,4,1,-22,1,-7,1,-9,1,-12,1,-7,1,-7,1
1759,-4,1,5,1,9,1,0,1,-6,1,7,1,-20,1,-6,1,-9,1,-12,1,-7,1,-7,1
1760,-4,1,4,1,8,1,0,1,-6,1,6,1,-19,1,-7,1,-9,1,-12,1,-8,1,-9,1
1761,-3,1,3,1,6,1,0,1,-4,1,4,1,-18,1,-6,1,-9,1,-12,1,-10,1,-10,1
1762,-2,1,2,1,4,1,0,1,-3,1,3,1,-17,1,-5,1,-9,1,-12,1,-12,1,-11,1
1763,-2,1,0,1,2,1,1,1,-2,1,1,1,-16,1,-5,1,-9,1,-12,1,-13,1,-12,1
1764,-4,1,-2,1,2,1,3,1,-3,1,0,1,-15,1,-5,1,-10,1,-13,1,-14,1,-14,1
1765,-4,1,-3,1,1,1,3,1,-3,1,-1,1,-14,1,-4,1,-10,1,-14,1,-15,1,-15,1
1766,-6,1,-3,1,3,1,4,1,-5,1,0,1,-14,1,-3,1,-9,1,-14,1,-15,1,-16,1
1767,-7,1,-3,1,4,1,5,1,-6,1,0,1,-13,1,-3,1,-9,1,-15,1,-15,1,-16,1
1768,-8,1,-3,1,5,1,5,1,-7,1,1,1,-12,1,-2,1,-9,1,-16,1,-17,1,-16,1
1769,-8,1,-3,1,5,1,5,1,-7,1,1,1,-11,1,-1,1,-7,1,-16,1,-17,1,-17,1
1770,-8,1,-3,1,5,1,5,1,-7,1,1,1,-10,1,-2,1,-6,1,-16,1,-18,1,-17,1
1771,-9,1,-5,1,4,1,7,1,-7,1,-1,1,-9,1,-1,1,-6,1,-16,1,-19,1,-17,1
1772,-11,1,-6,1,5,1,8,1,-8,1,-1,1,-9,1,-1,1,-6,1,-16,1,-19,1,-18,1
1773,-10,1,-6,1,4,1,8,1,-7,1,-1,1,-9,1,-2,1,-6,1,-16,1,-20,1,-18,1
1774,-10,1,-5,1,5,1,7,1,-8,1,0,1,-8,1,-2,1,-6,1,-16,1,-20,1,-19,1
1775,-10,1,-5,1,5,1,7,1,-8,1,0,1,-7,1,-1,1,-6,1,-16,1,-20,1,-19,1
1776,-12,1,-5,1,7,1,8,1,-10,1,1,1,-7,1,-1,1,-6,1,-16,1,-21,1,-20,1
1777,-13,1,-5,1,8,1,9,1,-11,1,1,1,-7,1,-1,1,-6,1,-16,1,-21,1,-20,1
1778,-12,1,-5,1,7,1,8,1,-10,1,1,1,-7,1,-1,1,-7,1,-16,1,-21,1,-20,1
1779,-11,1,-5,1,6,1,8,1,-9,1,0,1,-7,1,-1,1,-8,1,-17,1,-22,1,-21,1
1780,-10,1,-6,1,4,1,8,1,-7,1,-1,1,-7,1,-2,1,-8,1,-17,1,-23,1,-22,1
1781,-11,1,-7,1,4,1,9,1,-8,1,-2,1,-7,1,-3,1,-7,1,-17,1,-22,1,-22,1
1782,-11,1,-7,1,4,1,9,1,-8,1,-2,1,-6,1,-2,1,-6,1,-16,1,-22,1,-21,1
1783,-11,1,-7,1,4,1,9,1,-8,1,-2,1,-6,1,-2,1,-6,1,-15,1,-22,1,-21,1
1784,-11,1,-7,1,4,1,9,1,-8,1,-2,1,-6,1,-2,1,-6,1,-15,1,-23,1,-21,1
1785,-12,1,-7,1,5,1,9,1,-9,1,-1,1,-5,1,-2,1,-6,1,-16,1,-23,1,-21,1
1786,-12,1,-6,1,6,1,9,1,-9,1,0,1,-5,1,-2,1,-6,1,-16,1,-23,1,-21,1
1787,-10,1,-6,1,4,1,8,1,-7,1,-1,1,-6,1,-2,1,-7,1,-17,1,-23,1,-22,1
1788,-9,1,-6,1,3,1,7,1,-6,1,-2,1,-6,1,-3,1,-7,1,-17,1,-24,1,-22,1
1789,-10,1,-8,1,2,1,9,1,-6,1,-3,1,-7,1,-3,1,-8,1,-18,1,-24,1,-23,1
1790,-11,1,-8,1,3,1,9,1,-7,1,-3,1,-7,1,-4,1,-8,1,-19,1,-24,1,-23,1
1791,-10,1,-8,1,2,1,9,1,-6,1,-3,1,-6,1,-4,1,-9,1,-19,1,-25,1,-24,1
1792,-10,1,-6,1,4,1,8,1,-7,1,-1,1,-6,1,-4,1,-8,1,-19,1,-25,1,-23,1
1793,-9,1,-5,1,4,1,7,1,-7,1,-1,1,-6,1,-4,1,-8,1,-19,1,-25,1,-23,1
1794,-9,1,-5,1,4,1,7,1,-7,1,-1,1,-6,1,-4,1,-9,1,-19,1,-26,1,-24,1
1795,-12,1,-8,1,4,1,10,1,-8,1,-2,1,-7,1,-4,1,-9,1,-20,1,-26,1,-24,1
1796,-14,1,-9,1,5,1,11,1,-10,1,-2,1,-7,1,-4,1,-10,1,-20,1,-27,1,-25,1
1797,-12,1,-8,1,4,1,10,1,-8,1,-2,1,-7,1,-4,1,-10,1,-20,1,-27,1,-25,1
1798,-10,1,-6,1,4,1,8,1,-7,1,-1,1,-6,1,-3,1,-9,1,-19,1,-27,1,-24,1
1799,-10,1,-6,1,4,1,8,1,-7,1,-1,1,-6,1,-3,1,-8,1,-19,1,-26,1,-23,1
1800,-10,1,-6,1,4,1,8,1,-7,1,-1,1,-5,1,-3,1,-8,1,-19,1,-27,1,-24,1
1801,-10,1,-6,1,4,1,8,1,-7,1,-1,1,-5,1,-3,1,-8,1,-21,1,-27,1,-24,1
1802,-11,1,-6,1,5,1,8,1,-8,1,-1,1,-5,1,-1,1,-8,1,-20,1,-27,1,-23,1
1803,-11,1,-6,1,5,1,8,1,-8,1,-1,1,-5,1,-1,1,-8,1,-20,1,-27,1,-23,1
1804,-11,1,-6,1,5,1,8,1,-8,1,-1,1,-4,1,-1,1,-9,1,-21,1,-27,1,-24,1
1805,-11,1,-5,1,6,1,8,1,-9,1,0,1,-4,1,-2,1,-10,1,-20,1,-27,1,-23,1
1806,-11,1,-6,1,5,1,8,1,-8,1,-1,1,-4,1,-2,1,-10,1,-19,1,-27,1,-23,1
1807,-12,1,-6,1,6,1,9,1,-9,1,0,1,-4,1,-2,1,-10,1,-19,1,-27,1,-23,1
1808,-13,1,-7,1,6,1,10,1,-10,1,-1,1,-4,1,-1,1,-9,1,-19,1,-27,1,-23,1
1809,-13,1,-7,1,6,1,10,1,-10,1,-1,1,-4,1,0,1,-9,1,-19,1,-27,1,-22,1
1810,-14,1,-8,1,6,1,11,1,-10,1,-1,1,-4,1,0,1,-9,1,-19,1,-26,1,-22,1
1811,-13,1,-7,1,6,1,10,1,-10,1,-1,1,-4,1,0,1,-9,1,-19,1,-26,1,-21,1
1812,-12,1,-7,1,5,1,9,1,-9,1,-1,1,-5,1,0,1,-9,1,-19,1,-26,1,-21,1
1813,-14,1,-7,1,7,1,10,1,-11,1,0,1,-5,1,0,1,-8,1,-19,1,-26,1,-21,1
1814,-15,1,-6,1,9,1,10,1,-12,1,1,1,-4,1,0,1,-8,1,-19,1,-24,1,-21,1
1815,-14,1,-5,1,9,1,9,1,-12,1,2,1,-4,1,0,1,-8,1,-18,1,-24,1,-21,1
1816,-13,1,-5,1,8,1,9,1,-11,1,1,1,-4,1,1,1,-8,1,-18,1,-24,1,-22,1
1817,-12,1,-5,1,7,1,8,1,-10,1,1,1,-4,1,1,1,-8,1,-19,1,-24,1,-22,1
1818,-12,1,-6,1,6,1,9,1,-9,1,0,1,-4,1,1,1,-7,1,-19,1,-24,1,-22,1
1819,-12,1,-5,1,7,1,8,1,-10,1,1,1,-4,1,2,1,-6,1,-20,1,-24,1,-21,1
1820,-12,1,-5,1,7,1,8,1,-10,1,1,1,-3,1,2,1,-6,1,-20,1,-23,1,-20,1
1821,-13,1,-5,1,8,1,9,1,-11,1,1,1,-3,1,2,1,-6,1,-20,1,-23,1,-20,1
1822,-12,1,-4,1,8,1,8,1,-10,1,2,1,-4,1,2,1,-6,1,-19,1,-23,1,-20,1
1823,-11,1,-3,1,8,1,7,1,-10,1,2,1,-5,1,2,1,-6,1,-18,1,-22,1,-20,1
1824,-10,1,-3,1,7,1,6,1,-9,1,2,1,-6,1,1,1,-7,1,-18,1,-23,1,-20,1
1825,-9,1,-3,1,6,1,6,1,-8,1,1,1,-6,1,1,1,-8,1,-18,1,-23,1,-21,1
1826,-9,1,-2,1,7,1,5,1,-8,1,2,1,-6,1,2,1,-9,1,-18,1,-23,1,-21,1
1827,-10,1,-1,1,9,1,5,1,-10,1,4,1,-6,1,2,1,-8,1,-18,1,-23,1,-21,1
1828,-13,1,-2,1,11,1,7,1,-12,1,4,1,-5,1,3,1,-7,1,-18,1,-23,1,-21,1
1829,-14,1,-1,1,13,1,7,1,-14,1,6,1,-6,1,2,1,-6,1,-18,1,-23,1,-21,1
1830,-14,1,-1,1,13,1,7,1,-14,1,6,1,-6,1,2,1,-6,1,-17,1,-23,1,-21,1
1831,-14,1,-1,1,13,1,7,1,-14,1,6,1,-6,1,2,1,-6,1,-16,1,-23,1,-20,1
1832,-14,1,-1,1,13,1,7,1,-14,1,6,1,-5,1,3,1,-6,1,-15,1,-22,1,-20,1
1833,-14,1,-1,1,13,1,7,1,-14,1,6,1,-4,1,2,1,-6,1,-15,1,-22,1,-20,1
1834,-13,1,-2,1,11,1,7,1,-12,1,4,1,-5,1,2,1,-6,1,-15,1,-22,1,-20,1
1835,-13,1,-2,1,11,1,7,1,-12,1,4,1,-5,1,3,1,-6,1,-14,1,-22,1,-20,1
