TS,I,If,II,IIf,III,IIIf,aVR,aVRf,aVL,aVLf,aVF,aVFf,V1,V1f,V2,V2f,V3,V3f,V4,V4f,V5,V5f,V6,V6f
1,9,1,-2,1,-11,1,-3,1,10,1,-6,1,14,1,0,1,14,1,-10,1,-9,1,-16,1
2,9,1,-2,1,-11,1,-3,1,10,1,-6,1,15,1,0,1,16,1,-10,1,-8,1,-16,1
3,10,1,-1,1,-11,1,-4,1,10,1,-6,1,15,1,0,1,17,1,-10,1,-8,1,-16,1
4,9,1,-1,1,-10,1,-4,1,9,1,-5,1,15,1,0,1,18,1,-11,1,-9,1,-17,1
5,7,1,-1,1,-8,1,-3,1,7,1,-4,1,15,1,-2,1,18,1,-11,1,-9,1,-17,1
6,8,1,-1,1,-9,1,-3,1,8,1,-5,1,15,1,-2,1,19,1,-11,1,-10,1,-17,1
7,7,1,-1,1,-8,1,-3,1,7,1,-4,1,14,1,-2,1,20,1,-11,1,-10,1,-17,1
8,6,1,-2,1,-8,1,-2,1,7,1,-5,1,14,1,-3,1,19,1,-11,1,-9,1,-18,1
9,5,1,-3,1,-8,1,-1,1,6,1,-5,1,14,1,-3,1,20,1,-10,1,-9,1,-18,1
10,6,1,-3,1,-9,1,-1,1,7,1,-6,1,13,1,-3,1,22,1,-11,1,-9,1,-18,1
11,5,1,-2,1,-7,1,-1,1,6,1,-4,1,13,1,-3,1,22,1,-11,1,-10,1,-19,1
12,5,1,-2,1,-7,1,-1,1,6,1,-4,1,13,1,-2,1,23,1,-10,1,-9,1,-18,1
13,5,1,-2,1,-7,1,-1,1,6,1,-4,1,13,1,-1,1,24,1,-10,1,-9,1,-16,1
14,5,1,-3,1,-8,1,-1,1,6,1,-5,1,13,1,-1,1,25,1,-10,1,-9,1,-16,1
15,6,1,-2,1,-8,1,-2,1,7,1,-5,1,13,1,-1,1,24,1,-10,1,-8,1,-16,1
16,7,1,-2,1,-9,1,-2,1,8,1,-5,1,12,1,-1,1,23,1,-11,1,-8,1,-16,1
17,9,1,-1,1,-10,1,-4,1,9,1,-5,1,12,1,-1,1,24,1,-10,1,-7,1,-17,1
18,11,1,0,1,-11,1,-5,1,11,1,-5,1,12,1,-1,1,25,1,-8,1,-7,1,-16,1
19,9,1,1,1,-8,1,-5,1,9,1,-3,1,12,1,-1,1,24,1,-8,1,-8,1,-16,1
20,9,1,3,1,-6,1,-6,1,8,1,-1,1,12,1,-2,1,25,1,-6,1,-9,1,-15,1
21,9,1,6,1,-3,1,-7,1,6,1,2,1,12,1,-1,1,27,1,-5,1,-7,1,-14,1
22,10,1,10,1,0,1,-10,1,5,1,5,1,12,1,-1,1,27,1,-5,1,-6,1,-13,1
23,8,1,13,1,5,1,-10,1,2,1,9,1,10,1,-2,1,27,1,-5,1,-6,1,-13,1
24,6,1,13,1,7,1,-9,1,0,1,10,1,10,1,-2,1,27,1,-6,1,-6,1,-13,1
25,5,1,11,1,6,1,-8,1,0,1,9,1,9,1,-1,1,28,1,-6,1,-5,1,-12,1
26,2,1,10,1,8,1,-6,1,-3,1,9,1,8,1,-2,1,27,1,-6,1,-6,1,-13,1
27,2,1,11,1,9,1,-6,1,-3,1,10,1,7,1,-2,1,27,1,-5,1,-5,1,-13,1
28,5,1,13,1,8,1,-9,1,-1,1,11,1,5,1,-3,1,27,1,-5,1,-4,1,-12,1
29,7,1,13,1,6,1,-10,1,1,1,10,1,4,1,-4,1,26,1,-5,1,-5,1,-13,1
30,8,1,12,1,4,1,-10,1,2,1,8,1,3,1,-5,1,24,1,-6,1,-6,1,-14,1
31,8,1,8,1,0,1,-8,1,4,1,4,1,2,1,-6,1,25,1,-7,1,-7,1,-15,1
32,8,1,7,1,-1,1,-7,1,5,1,3,1,1,1,-6,1,26,1,-6,1,-7,1,-15,1
33,6,1,6,1,0,1,-6,1,3,1,3,1,0,1,-5,1,28,1,-6,1,-5,1,-14,1
34,5,1,8,1,3,1,-6,1,1,1,6,1,-1,1,-5,1,30,1,-5,1,-4,1,-14,1
35,5,1,10,1,5,1,-7,1,0,1,8,1,-2,1,-6,1,32,1,-6,1,-4,1,-14,1
36,5,1,10,1,5,1,-7,1,0,1,8,1,-3,1,-7,1,33,1,-6,1,-4,1,-13,1
37,7,1,11,1,4,1,-9,1,2,1,8,1,-2,1,-8,1,35,1,-7,1,-4,1,-13,1
38,9,1,9,1,0,1,-9,1,5,1,5,1,-2,1,-8,1,35,1,-8,1,-5,1,-13,1
39,9,1,7,1,-2,1,-8,1,6,1,3,1,0,1,-9,1,36,1,-9,1,-5,1,-13,1
40,10,1,5,1,-5,1,-7,1,8,1,0,1,0,1,-9,1,37,1,-10,1,-6,1,-14,1
41,11,1,4,1,-7,1,-7,1,9,1,-1,1,0,1,-10,1,37,1,-11,1,-7,1,-14,1
42,12,1,3,1,-9,1,-7,1,11,1,-3,1,1,1,-9,1,37,1,-11,1,-7,1,-14,1
43,12,1,3,1,-9,1,-7,1,11,1,-3,1,2,1,-8,1,39,1,-12,1,-7,1,-13,1
44,12,1,3,1,-9,1,-7,1,11,1,-3,1,2,1,-8,1,38,1,-12,1,-6,1,-14,1
45,10,1,3,1,-7,1,-6,1,9,1,-2,1,3,1,-8,1,39,1,-11,1,-5,1,-14,1
46,10,1,4,1,-6,1,-7,1,8,1,-1,1,5,1,-7,1,39,1,-11,1,-5,1,-13,1
47,10,1,2,1,-8,1,-6,1,9,1,-3,1,5,1,-7,1,40,1,-11,1,-6,1,-14,1
48,9,1,-1,1,-10,1,-4,1,9,1,-5,1,4,1,-8,1,40,1,-12,1,-8,1,-14,1
49,9,1,-3,1,-12,1,-3,1,10,1,-7,1,6,1,-8,1,41,1,-11,1,-9,1,-15,1
50,10,1,-4,1,-14,1,-3,1,12,1,-9,1,8,1,-7,1,40,1,-10,1,-8,1,-14,1
51,9,1,-3,1,-12,1,-3,1,10,1,-7,1,10,1,-7,1,41,1,-10,1,-7,1,-14,1
52,8,1,-3,1,-11,1,-2,1,9,1,-7,1,11,1,-8,1,42,1,-10,1,-7,1,-15,1
53,7,1,-2,1,-9,1,-2,1,8,1,-5,1,11,1,-8,1,41,1,-11,1,-7,1,-15,1
54,7,1,-2,1,-9,1,-2,1,8,1,-5,1,12,1,-7,1,40,1,-11,1,-7,1,-16,1
55,7,1,-1,1,-8,1,-3,1,7,1,-4,1,13,1,-7,1,40,1,-11,1,-7,1,-16,1
56,8,1,-1,1,-9,1,-3,1,8,1,-5,1,14,1,-7,1,40,1,-11,1,-7,1,-16,1
57,8,1,-1,1,-9,1,-3,1,8,1,-5,1,15,1,-5,1,40,1,-11,1,-7,1,-16,1
58,8,1,-4,1,-12,1,-2,1,10,1,-8,1,17,1,-3,1,40,1,-11,1,-6,1,-15,1
59,9,1,-4,1,-13,1,-2,1,11,1,-8,1,20,1,-1,1,41,1,-10,1,-6,1,-15,1
60,7,1,-5,1,-12,1,-1,1,9,1,-8,1,21,1,0,1,41,1,-10,1,-6,1,-15,1
61,7,1,-7,1,-14,1,0,1,10,1,-10,1,21,1,0,1,41,1,-10,1,-7,1,-16,1
62,7,1,-8,1,-15,1,0,1,11,1,-11,1,22,1,1,1,40,1,-10,1,-6,1,-16,1
63,8,1,-8,1,-16,1,0,1,12,1,-12,1,21,1,1,1,40,1,-10,1,-6,1,-16,1
64,7,1,-8,1,-15,1,0,1,11,1,-11,1,21,1,0,1,38,1,-11,1,-7,1,-19,1
65,4,1,-9,1,-13,1,2,1,8,1,-11,1,21,1,-3,1,35,1,-14,1,-10,1,-21,1
66,3,1,-9,1,-12,1,3,1,7,1,-10,1,21,1,-5,1,33,1,-16,1,-12,1,-23,1
67,4,1,-7,1,-11,1,1,1,7,1,-9,1,23,1,-5,1,31,1,-16,1,-11,1,-23,1
68,6,1,-7,1,-13,1,0,1,9,1,-10,1,23,1,-5,1,31,1,-17,1,-11,1,-23,1
69,7,1,-7,1,-14,1,0,1,10,1,-10,1,23,1,-5,1,32,1,-16,1,-11,1,-23,1
70,7,1,-8,1,-15,1,0,1,11,1,-11,1,24,1,-6,1,33,1,-17,1,-11,1,-24,1
71,8,1,-7,1,-15,1,0,1,11,1,-11,1,23,1,-6,1,33,1,-16,1,-12,1,-24,1
72,7,1,-9,1,-16,1,1,1,11,1,-12,1,22,1,-6,1,34,1,-16,1,-12,1,-24,1
73,6,1,-9,1,-15,1,1,1,10,1,-12,1,23,1,-6,1,36,1,-15,1,-12,1,-24,1
74,3,1,-9,1,-12,1,3,1,7,1,-10,1,22,1,-6,1,38,1,-15,1,-13,1,-25,1
75,1,1,-11,1,-12,1,5,1,6,1,-11,1,22,1,-6,1,38,1,-16,1,-13,1,-24,1
76,2,1,-11,1,-13,1,4,1,7,1,-12,1,22,1,-6,1,39,1,-16,1,-14,1,-23,1
77,2,1,-12,1,-14,1,5,1,8,1,-13,1,23,1,-6,1,41,1,-16,1,-14,1,-23,1
78,3,1,-12,1,-15,1,4,1,9,1,-13,1,24,1,-6,1,43,1,-15,1,-13,1,-22,1
79,4,1,-12,1,-16,1,4,1,10,1,-14,1,25,1,-6,1,45,1,-14,1,-13,1,-22,1
80,4,1,-11,1,-15,1,3,1,9,1,-13,1,25,1,-5,1,45,1,-15,1,-13,1,-22,1
81,5,1,-9,1,-14,1,2,1,9,1,-11,1,25,1,-5,1,46,1,-15,1,-14,1,-22,1
82,3,1,-9,1,-12,1,3,1,7,1,-10,1,24,1,-4,1,47,1,-14,1,-14,1,-23,1
83,3,1,-10,1,-13,1,3,1,8,1,-11,1,24,1,-3,1,48,1,-14,1,-14,1,-23,1
84,5,1,-8,1,-13,1,1,1,9,1,-10,1,24,1,-2,1,49,1,-13,1,-13,1,-22,1
85,7,1,-5,1,-12,1,-1,1,9,1,-8,1,24,1,-1,1,51,1,-13,1,-12,1,-21,1
86,6,1,-6,1,-12,1,0,1,9,1,-9,1,24,1,-2,1,51,1,-13,1,-12,1,-21,1
87,4,1,-7,1,-11,1,1,1,7,1,-9,1,24,1,-3,1,51,1,-14,1,-12,1,-22,1
88,3,1,-9,1,-12,1,3,1,7,1,-10,1,26,1,-3,1,51,1,-13,1,-13,1,-22,1
89,3,1,-9,1,-12,1,3,1,7,1,-10,1,26,1,-3,1,50,1,-13,1,-14,1,-22,1
90,3,1,-9,1,-12,1,3,1,7,1,-10,1,26,1,-3,1,50,1,-12,1,-13,1,-22,1
91,2,1,-8,1,-10,1,3,1,6,1,-9,1,25,1,-3,1,50,1,-13,1,-14,1,-23,1
92,1,1,-8,1,-9,1,3,1,5,1,-8,1,24,1,-3,1,50,1,-13,1,-14,1,-23,1
93,0,1,-9,1,-9,1,4,1,4,1,-9,1,23,1,-3,1,49,1,-13,1,-14,1,-23,1
94,0,1,-9,1,-9,1,4,1,4,1,-9,1,22,1,-3,1,48,1,-14,1,-14,1,-24,1
95,0,1,-9,1,-9,1,4,1,4,1,-9,1,21,1,-3,1,48,1,-14,1,-13,1,-24,1
96,1,1,-8,1,-9,1,3,1,5,1,-8,1,20,1,-4,1,47,1,-14,1,-13,1,-24,1
97,1,1,-7,1,-8,1,3,1,4,1,-7,1,20,1,-4,1,46,1,-14,1,-13,1,-24,1
98,0,1,-8,1,-8,1,4,1,4,1,-8,1,20,1,-4,1,45,1,-13,1,-13,1,-24,1
99,0,1,-10,1,-10,1,5,1,5,1,-10,1,20,1,-4,1,44,1,-13,1,-14,1,-24,1
100,-4,1,-9,1,-5,1,6,1,0,1,-7,1,20,1,-7,1,41,1,-16,1,-16,1,-25,1
101,-6,1,-4,1,2,1,5,1,-4,1,-1,1,19,1,-11,1,35,1,-20,1,-18,1,-26,1
102,-9,1,4,1,13,1,2,1,-11,1,8,1,19,1,-16,1,29,1,-23,1,-21,1,-26,1
103,-11,1,16,1,27,1,-2,1,-19,1,21,1,19,1,-19,1,27,1,-23,1,-22,1,-24,1
104,-12,1,28,1,40,1,-8,1,-26,1,34,1,21,1,-18,1,33,1,-16,1,-20,1,-21,1
105,-12,1,41,1,53,1,-14,1,-32,1,47,1,22,1,-16,1,48,1,0,1,-13,1,-15,1
106,-10,1,55,1,65,1,-22,1,-37,1,60,1,22,1,-13,1,74,1,27,1,2,1,-6,1
107,-9,1,69,1,78,1,-30,1,-43,1,73,1,21,1,-8,1,108,1,63,1,24,1,6,1
108,-7,1,82,1,89,1,-37,1,-48,1,85,1,20,1,-2,1,150,1,109,1,54,1,23,1
109,-5,1,92,1,97,1,-43,1,-51,1,94,1,19,1,5,1,199,1,165,1,91,1,43,1
110,-2,1,99,1,101,1,-48,1,-51,1,100,1,19,1,16,1,256,1,230,1,133,1,65,1
111,4,1,107,1,103,1,-55,1,-49,1,105,1,20,1,33,1,319,1,299,1,180,1,89,1
112,12,1,117,1,105,1,-64,1,-46,1,111,1,21,1,54,1,388,1,370,1,230,1,116,1
113,23,1,123,1,100,1,-73,1,-38,1,112,1,23,1,80,1,457,1,434,1,274,1,143,1
114,32,1,114,1,82,1,-73,1,-25,1,98,1,22,1,106,1,515,1,476,1,304,1,160,1
115,41,1,95,1,54,1,-68,1,-6,1,75,1,19,1,132,1,554,1,493,1,315,1,167,1
116,48,1,70,1,22,1,-59,1,13,1,46,1,11,1,145,1,560,1,478,1,306,1,164,1
117,49,1,48,1,-1,1,-48,1,25,1,24,1,1,1,138,1,524,1,432,1,281,1,154,1
118,48,1,28,1,-20,1,-38,1,34,1,4,1,-11,1,113,1,434,1,338,1,229,1,136,1
119,42,1,11,1,-31,1,-26,1,37,1,-10,1,-29,1,63,1,272,1,192,1,154,1,110,1
120,37,1,2,1,-35,1,-19,1,36,1,-16,1,-57,1,-2,1,82,1,38,1,75,1,86,1
121,31,1,-4,1,-35,1,-13,1,33,1,-19,1,-84,1,-59,1,-77,1,-91,1,4,1,61,1
122,24,1,-7,1,-31,1,-8,1,27,1,-19,1,-107,1,-104,1,-192,1,-186,1,-54,1,36,1
123,19,1,-7,1,-26,1,-6,1,22,1,-16,1,-125,1,-137,1,-264,1,-244,1,-98,1,14,1
124,13,1,-9,1,-22,1,-2,1,17,1,-15,1,-139,1,-156,1,-303,1,-275,1,-128,1,-4,1
125,11,1,-19,1,-30,1,4,1,20,1,-24,1,-145,1,-159,1,-316,1,-287,1,-147,1,-21,1
126,10,1,-30,1,-40,1,10,1,25,1,-35,1,-144,1,-155,1,-313,1,-287,1,-158,1,-34,1
127,9,1,-41,1,-50,1,16,1,29,1,-45,1,-139,1,-145,1,-301,1,-282,1,-165,1,-45,1
128,10,1,-52,1,-62,1,21,1,36,1,-57,1,-135,1,-131,1,-285,1,-275,1,-169,1,-54,1
129,12,1,-60,1,-72,1,24,1,42,1,-66,1,-132,1,-116,1,-264,1,-264,1,-169,1,-60,1
130,14,1,-68,1,-82,1,27,1,48,1,-75,1,-130,1,-100,1,-240,1,-249,1,-164,1,-63,1
131,15,1,-75,1,-90,1,30,1,52,1,-82,1,-127,1,-82,1,-214,1,-232,1,-156,1,-67,1
132,18,1,-80,1,-98,1,31,1,58,1,-89,1,-123,1,-66,1,-190,1,-214,1,-149,1,-69,1
133,18,1,-88,1,-106,1,35,1,62,1,-97,1,-117,1,-55,1,-170,1,-198,1,-142,1,-72,1
134,17,1,-94,1,-111,1,38,1,64,1,-102,1,-111,1,-46,1,-155,1,-183,1,-135,1,-73,1
135,19,1,-90,1,-109,1,35,1,64,1,-99,1,-104,1,-41,1,-143,1,-168,1,-127,1,-71,1
136,20,1,-82,1,-102,1,31,1,61,1,-92,1,-98,1,-39,1,-132,1,-154,1,-119,1,-70,1
137,19,1,-76,1,-95,1,28,1,57,1,-85,1,-93,1,-38,1,-122,1,-141,1,-110,1,-66,1
138,17,1,-70,1,-87,1,26,1,52,1,-78,1,-89,1,-37,1,-111,1,-132,1,-103,1,-64,1
139,15,1,-64,1,-79,1,24,1,47,1,-71,1,-85,1,-34,1,-98,1,-122,1,-97,1,-60,1
140,15,1,-57,1,-72,1,21,1,43,1,-64,1,-81,1,-29,1,-83,1,-110,1,-89,1,-56,1
141,13,1,-53,1,-66,1,20,1,39,1,-59,1,-77,1,-23,1,-67,1,-99,1,-82,1,-53,1
142,13,1,-52,1,-65,1,19,1,39,1,-58,1,-74,1,-18,1,-53,1,-90,1,-75,1,-50,1
143,14,1,-48,1,-62,1,17,1,38,1,-55,1,-69,1,-13,1,-41,1,-81,1,-69,1,-47,1
144,13,1,-45,1,-58,1,16,1,35,1,-51,1,-64,1,-8,1,-30,1,-72,1,-63,1,-44,1
145,11,1,-42,1,-53,1,15,1,32,1,-47,1,-60,1,-4,1,-22,1,-62,1,-57,1,-41,1
146,8,1,-37,1,-45,1,14,1,26,1,-41,1,-56,1,0,1,-13,1,-54,1,-52,1,-38,1
147,4,1,-32,1,-36,1,14,1,20,1,-34,1,-55,1,0,1,-8,1,-49,1,-48,1,-37,1
148,0,1,-27,1,-27,1,13,1,13,1,-27,1,-55,1,0,1,-2,1,-43,1,-45,1,-34,1
149,-1,1,-21,1,-20,1,11,1,9,1,-21,1,-55,1,1,1,7,1,-37,1,-39,1,-31,1
150,0,1,-15,1,-15,1,7,1,7,1,-15,1,-55,1,1,1,17,1,-30,1,-35,1,-27,1
151,0,1,-11,1,-11,1,5,1,5,1,-11,1,-55,1,2,1,26,1,-25,1,-31,1,-24,1
152,-1,1,-9,1,-8,1,5,1,3,1,-9,1,-54,1,2,1,33,1,-22,1,-28,1,-22,1
153,-1,1,-7,1,-6,1,4,1,2,1,-7,1,-53,1,2,1,37,1,-19,1,-26,1,-21,1
154,0,1,-7,1,-7,1,3,1,3,1,-7,1,-53,1,2,1,39,1,-17,1,-25,1,-20,1
155,0,1,-7,1,-7,1,3,1,3,1,-7,1,-53,1,3,1,38,1,-16,1,-25,1,-20,1
156,0,1,-6,1,-6,1,3,1,3,1,-6,1,-54,1,2,1,35,1,-17,1,-26,1,-20,1
157,0,1,-6,1,-6,1,3,1,3,1,-6,1,-54,1,2,1,34,1,-16,1,-25,1,-20,1
158,-1,1,-6,1,-5,1,3,1,2,1,-6,1,-54,1,1,1,34,1,-15,1,-22,1,-20,1
159,-1,1,-4,1,-3,1,2,1,1,1,-4,1,-55,1,1,1,37,1,-14,1,-21,1,-20,1
160,-1,1,-3,1,-2,1,2,1,0,1,-3,1,-56,1,1,1,41,1,-13,1,-20,1,-19,1
161,0,1,0,1,0,1,0,1,0,1,0,1,-56,1,1,1,44,1,-11,1,-18,1,-18,1
162,1,1,0,1,-1,1,0,1,1,1,0,1,-56,1,1,1,46,1,-9,1,-17,1,-18,1
163,2,1,1,1,-1,1,-1,1,2,1,0,1,-57,1,1,1,47,1,-9,1,-16,1,-18,1
164,2,1,1,1,-1,1,-1,1,2,1,0,1,-56,1,0,1,46,1,-9,1,-16,1,-18,1
165,1,1,0,1,-1,1,0,1,1,1,0,1,-56,1,-1,1,45,1,-9,1,-17,1,-18,1
166,1,1,1,1,0,1,-1,1,1,1,1,1,-57,1,-1,1,43,1,-9,1,-16,1,-18,1
167,2,1,1,1,-1,1,-1,1,2,1,0,1,-57,1,-1,1,42,1,-8,1,-16,1,-17,1
168,1,1,1,1,0,1,-1,1,1,1,1,1,-57,1,-1,1,40,1,-9,1,-15,1,-17,1
169,0,1,1,1,1,1,0,1,0,1,1,1,-57,1,-1,1,40,1,-9,1,-15,1,-17,1
170,0,1,2,1,2,1,-1,1,-1,1,2,1,-57,1,0,1,41,1,-9,1,-14,1,-14,1
171,1,1,3,1,2,1,-2,1,0,1,3,1,-57,1,1,1,42,1,-8,1,-13,1,-14,1
172,3,1,4,1,1,1,-3,1,1,1,3,1,-58,1,2,1,42,1,-8,1,-13,1,-14,1
173,3,1,3,1,0,1,-3,1,2,1,2,1,-58,1,2,1,40,1,-8,1,-12,1,-15,1
174,2,1,1,1,-1,1,-1,1,2,1,0,1,-57,1,2,1,39,1,-8,1,-13,1,-15,1
175,2,1,1,1,-1,1,-1,1,2,1,0,1,-56,1,2,1,39,1,-6,1,-13,1,-14,1
176,3,1,0,1,-3,1,-1,1,3,1,-1,1,-52,1,2,1,38,1,-6,1,-13,1,-14,1
177,2,1,-1,1,-3,1,0,1,2,1,-2,1,-50,1,2,1,36,1,-6,1,-14,1,-14,1
178,2,1,-1,1,-3,1,0,1,2,1,-2,1,-47,1,3,1,35,1,-5,1,-15,1,-13,1
179,2,1,0,1,-2,1,-1,1,2,1,-1,1,-44,1,4,1,33,1,-5,1,-14,1,-13,1
180,1,1,0,1,-1,1,0,1,1,1,0,1,-41,1,4,1,32,1,-5,1,-15,1,-13,1
181,3,1,1,1,-2,1,-2,1,3,1,0,1,-37,1,4,1,33,1,-5,1,-16,1,-13,1
182,0,1,0,1,0,1,0,1,0,1,0,1,-34,1,4,1,33,1,-5,1,-16,1,-13,1
183,0,1,-1,1,-1,1,0,1,0,1,-1,1,-30,1,3,1,35,1,-5,1,-17,1,-14,1
184,0,1,0,1,0,1,0,1,0,1,0,1,-26,1,4,1,36,1,-5,1,-15,1,-14,1
185,0,1,0,1,0,1,0,1,0,1,0,1,-23,1,4,1,37,1,-6,1,-15,1,-14,1
186,2,1,0,1,-2,1,-1,1,2,1,-1,1,-19,1,4,1,38,1,-6,1,-15,1,-15,1
187,1,1,0,1,-1,1,0,1,1,1,0,1,-16,1,4,1,39,1,-6,1,-15,1,-15,1
188,0,1,0,1,0,1,0,1,0,1,0,1,-12,1,4,1,39,1,-6,1,-15,1,-15,1
189,1,1,2,1,1,1,-1,1,0,1,2,1,-8,1,4,1,41,1,-5,1,-14,1,-15,1
190,4,1,5,1,1,1,-4,1,2,1,3,1,-5,1,5,1,42,1,-4,1,-14,1,-14,1
191,4,1,7,1,3,1,-5,1,1,1,5,1,-2,1,5,1,44,1,-4,1,-14,1,-14,1
192,2,1,6,1,4,1,-4,1,-1,1,5,1,0,1,5,1,43,1,-5,1,-14,1,-14,1
193,0,1,6,1,6,1,-3,1,-3,1,6,1,1,1,4,1,45,1,-6,1,-15,1,-15,1
194,0,1,5,1,5,1,-2,1,-2,1,5,1,5,1,5,1,47,1,-5,1,-14,1,-15,1
195,0,1,2,1,2,1,-1,1,-1,1,2,1,8,1,6,1,48,1,-5,1,-13,1,-13,1
196,0,1,1,1,1,1,0,1,0,1,1,1,10,1,6,1,49,1,-5,1,-13,1,-13,1
197,-1,1,0,1,1,1,0,1,-1,1,0,1,10,1,6,1,49,1,-6,1,-14,1,-14,1
198,0,1,1,1,1,1,0,1,0,1,1,1,11,1,6,1,50,1,-5,1,-14,1,-15,1
199,0,1,2,1,2,1,-1,1,-1,1,2,1,13,1,7,1,51,1,-5,1,-14,1,-14,1
200,0,1,2,1,2,1,-1,1,-1,1,2,1,15,1,7,1,52,1,-4,1,-14,1,-13,1
201,1,1,3,1,2,1,-2,1,0,1,3,1,16,1,7,1,53,1,-4,1,-14,1,-13,1
202,2,1,5,1,3,1,-3,1,0,1,4,1,17,1,8,1,53,1,-3,1,-14,1,-12,1
203,1,1,3,1,2,1,-2,1,0,1,3,1,18,1,9,1,52,1,-3,1,-14,1,-13,1
204,0,1,3,1,3,1,-1,1,-1,1,3,1,19,1,9,1,52,1,-2,1,-13,1,-13,1
205,0,1,3,1,3,1,-1,1,-1,1,3,1,21,1,9,1,52,1,0,1,-10,1,-13,1
206,0,1,5,1,5,1,-2,1,-2,1,5,1,23,1,10,1,50,1,-1,1,-10,1,-12,1
207,1,1,8,1,7,1,-4,1,-3,1,8,1,24,1,11,1,49,1,-2,1,-11,1,-11,1
208,3,1,11,1,8,1,-7,1,-2,1,10,1,24,1,11,1,49,1,-2,1,-12,1,-11,1
209,2,1,11,1,9,1,-6,1,-3,1,10,1,25,1,12,1,48,1,-1,1,-11,1,-10,1
210,1,1,10,1,9,1,-5,1,-4,1,10,1,25,1,13,1,48,1,0,1,-9,1,-10,1
211,0,1,11,1,11,1,-5,1,-5,1,11,1,27,1,12,1,47,1,0,1,-9,1,-10,1
212,0,1,11,1,11,1,-5,1,-5,1,11,1,28,1,12,1,46,1,1,1,-8,1,-10,1
213,2,1,13,1,11,1,-7,1,-4,1,12,1,28,1,13,1,45,1,3,1,-7,1,-9,1
214,1,1,10,1,9,1,-5,1,-4,1,10,1,29,1,13,1,43,1,4,1,-6,1,-9,1
215,0,1,9,1,9,1,-4,1,-4,1,9,1,30,1,13,1,43,1,5,1,-5,1,-9,1
216,-1,1,11,1,12,1,-5,1,-6,1,11,1,30,1,13,1,44,1,6,1,-5,1,-8,1
217,-1,1,12,1,13,1,-5,1,-7,1,12,1,31,1,13,1,44,1,7,1,-4,1,-8,1
218,-2,1,14,1,16,1,-6,1,-9,1,15,1,32,1,14,1,45,1,7,1,-4,1,-6,1
219,-1,1,16,1,17,1,-7,1,-9,1,16,1,34,1,15,1,47,1,9,1,-2,1,-5,1
220,-1,1,18,1,19,1,-8,1,-10,1,18,1,34,1,15,1,49,1,9,1,-1,1,-4,1
221,0,1,20,1,20,1,-10,1,-10,1,20,1,35,1,16,1,50,1,9,1,0,1,-3,1
222,-2,1,19,1,21,1,-8,1,-11,1,20,1,36,1,15,1,51,1,9,1,0,1,-3,1
223,-4,1,18,1,22,1,-7,1,-13,1,20,1,36,1,14,1,51,1,10,1,0,1,-4,1
224,-5,1,19,1,24,1,-7,1,-14,1,21,1,36,1,14,1,52,1,12,1,1,1,-3,1
225,-6,1,21,1,27,1,-7,1,-16,1,24,1,37,1,15,1,53,1,13,1,3,1,-2,1
226,-6,1,24,1,30,1,-9,1,-18,1,27,1,38,1,15,1,55,1,15,1,4,1,-1,1
227,-4,1,29,1,33,1,-12,1,-18,1,31,1,39,1,16,1,57,1,17,1,5,1,0,1
228,-3,1,31,1,34,1,-14,1,-18,1,32,1,39,1,16,1,58,1,17,1,6,1,1,1
229,-4,1,29,1,33,1,-12,1,-18,1,31,1,39,1,15,1,56,1,18,1,7,1,1,1
230,-6,1,27,1,33,1,-10,1,-19,1,30,1,38,1,14,1,56,1,18,1,8,1,2,1
231,-7,1,27,1,34,1,-10,1,-20,1,30,1,38,1,14,1,56,1,18,1,8,1,3,1
232,-7,1,27,1,34,1,-10,1,-20,1,30,1,38,1,13,1,56,1,18,1,9,1,4,1
233,-8,1,29,1,37,1,-10,1,-22,1,33,1,38,1,13,1,57,1,19,1,9,1,5,1
234,-8,1,31,1,39,1,-11,1,-23,1,35,1,35,1,12,1,56,1,20,1,9,1,7,1
235,-10,1,33,1,43,1,-11,1,-26,1,38,1,31,1,11,1,56,1,20,1,10,1,7,1
236,-9,1,35,1,44,1,-13,1,-26,1,39,1,29,1,11,1,55,1,20,1,11,1,8,1
237,-9,1,36,1,45,1,-13,1,-27,1,40,1,27,1,11,1,55,1,20,1,11,1,8,1
238,-10,1,36,1,46,1,-13,1,-28,1,41,1,24,1,10,1,52,1,20,1,11,1,9,1
239,-9,1,37,1,46,1,-14,1,-27,1,41,1,20,1,10,1,50,1,19,1,11,1,9,1
240,-9,1,40,1,49,1,-15,1,-29,1,44,1,18,1,9,1,49,1,19,1,12,1,11,1
241,-10,1,41,1,51,1,-15,1,-30,1,46,1,15,1,8,1,47,1,19,1,12,1,12,1
242,-11,1,42,1,53,1,-15,1,-32,1,47,1,11,1,6,1,44,1,18,1,11,1,13,1
243,-12,1,42,1,54,1,-15,1,-33,1,48,1,7,1,5,1,42,1,17,1,10,1,14,1
244,-12,1,44,1,56,1,-16,1,-34,1,50,1,3,1,4,1,40,1,17,1,10,1,14,1
245,-11,1,48,1,59,1,-18,1,-35,1,53,1,0,1,2,1,38,1,16,1,12,1,15,1
246,-9,1,49,1,58,1,-20,1,-33,1,53,1,-1,1,1,1,35,1,15,1,11,1,15,1
247,-7,1,48,1,55,1,-20,1,-31,1,51,1,-3,1,1,1,34,1,15,1,12,1,16,1
248,-7,1,46,1,53,1,-19,1,-30,1,49,1,-5,1,1,1,32,1,15,1,13,1,16,1
249,-7,1,46,1,53,1,-19,1,-30,1,49,1,-8,1,0,1,31,1,14,1,13,1,16,1
250,-7,1,46,1,53,1,-19,1,-30,1,49,1,-10,1,0,1,30,1,13,1,13,1,16,1
251,-7,1,47,1,54,1,-20,1,-30,1,50,1,-13,1,-1,1,29,1,12,1,12,1,16,1
252,-6,1,49,1,55,1,-21,1,-30,1,52,1,-14,1,-2,1,30,1,12,1,12,1,16,1
253,-4,1,49,1,53,1,-22,1,-28,1,51,1,-16,1,-2,1,32,1,13,1,13,1,16,1
254,-2,1,49,1,51,1,-23,1,-26,1,50,1,-18,1,-3,1,33,1,13,1,14,1,17,1
255,-2,1,47,1,49,1,-22,1,-25,1,48,1,-20,1,-4,1,34,1,13,1,15,1,17,1
256,-2,1,46,1,48,1,-22,1,-25,1,47,1,-23,1,-4,1,34,1,12,1,14,1,15,1
257,-3,1,44,1,47,1,-20,1,-25,1,45,1,-26,1,-6,1,34,1,11,1,13,1,15,1
258,-4,1,43,1,47,1,-19,1,-25,1,45,1,-28,1,-6,1,33,1,11,1,12,1,14,1
259,-4,1,42,1,46,1,-19,1,-25,1,44,1,-30,1,-6,1,33,1,10,1,13,1,14,1
260,-2,1,41,1,43,1,-19,1,-22,1,42,1,-31,1,-6,1,32,1,10,1,13,1,13,1
261,0,1,40,1,40,1,-20,1,-20,1,40,1,-32,1,-6,1,31,1,9,1,12,1,12,1
262,1,1,39,1,38,1,-20,1,-18,1,39,1,-32,1,-6,1,31,1,8,1,12,1,11,1
263,0,1,36,1,36,1,-18,1,-18,1,36,1,-34,1,-6,1,30,1,7,1,10,1,9,1
264,-2,1,30,1,32,1,-14,1,-17,1,31,1,-35,1,-7,1,29,1,5,1,10,1,8,1
265,-3,1,28,1,31,1,-12,1,-17,1,29,1,-36,1,-8,1,29,1,4,1,9,1,8,1
266,-2,1,28,1,30,1,-13,1,-16,1,29,1,-37,1,-8,1,28,1,4,1,10,1,8,1
267,0,1,28,1,28,1,-14,1,-14,1,28,1,-38,1,-8,1,26,1,3,1,9,1,7,1
268,2,1,27,1,25,1,-14,1,-11,1,26,1,-38,1,-6,1,26,1,3,1,10,1,7,1
269,5,1,26,1,21,1,-15,1,-8,1,24,1,-38,1,-5,1,25,1,3,1,11,1,6,1
270,5,1,23,1,18,1,-14,1,-6,1,21,1,-39,1,-6,1,23,1,2,1,10,1,4,1
271,4,1,20,1,16,1,-12,1,-6,1,18,1,-39,1,-6,1,20,1,1,1,8,1,1,1
272,4,1,16,1,12,1,-10,1,-4,1,14,1,-40,1,-6,1,19,1,0,1,8,1,0,1
273,5,1,14,1,9,1,-9,1,-2,1,12,1,-40,1,-5,1,19,1,0,1,8,1,0,1
274,5,1,14,1,9,1,-9,1,-2,1,12,1,-40,1,-5,1,18,1,-2,1,7,1,0,1
275,5,1,13,1,8,1,-9,1,-1,1,11,1,-41,1,-6,1,16,1,-4,1,5,1,-1,1
276,5,1,12,1,7,1,-8,1,-1,1,10,1,-42,1,-7,1,14,1,-6,1,4,1,-3,1
277,7,1,12,1,5,1,-9,1,1,1,9,1,-42,1,-8,1,12,1,-7,1,4,1,-3,1
278,5,1,10,1,5,1,-7,1,0,1,8,1,-43,1,-8,1,10,1,-8,1,3,1,-4,1
279,4,1,8,1,4,1,-6,1,0,1,6,1,-44,1,-8,1,7,1,-9,1,2,1,-4,1
280,5,1,7,1,2,1,-6,1,2,1,5,1,-43,1,-8,1,5,1,-10,1,0,1,-5,1
281,5,1,6,1,1,1,-5,1,2,1,4,1,-43,1,-7,1,4,1,-10,1,0,1,-6,1
282,6,1,5,1,-1,1,-5,1,4,1,2,1,-44,1,-7,1,3,1,-11,1,0,1,-7,1
283,7,1,4,1,-3,1,-5,1,5,1,1,1,-45,1,-7,1,3,1,-12,1,0,1,-8,1
284,8,1,4,1,-4,1,-6,1,6,1,0,1,-46,1,-6,1,3,1,-12,1,0,1,-8,1
285,7,1,2,1,-5,1,-4,1,6,1,-1,1,-46,1,-6,1,3,1,-12,1,0,1,-8,1
286,5,1,0,1,-5,1,-2,1,5,1,-2,1,-47,1,-7,1,2,1,-14,1,-1,1,-10,1
287,5,1,0,1,-5,1,-2,1,5,1,-2,1,-47,1,-8,1,1,1,-16,1,-1,1,-10,1
288,6,1,-1,1,-7,1,-2,1,6,1,-4,1,-47,1,-8,1,1,1,-17,1,-2,1,-10,1
289,6,1,-2,1,-8,1,-2,1,7,1,-5,1,-45,1,-9,1,1,1,-17,1,-3,1,-11,1
290,6,1,-1,1,-7,1,-2,1,6,1,-4,1,-42,1,-8,1,1,1,-18,1,-3,1,-11,1
291,6,1,-1,1,-7,1,-2,1,6,1,-4,1,-38,1,-8,1,1,1,-18,1,-2,1,-11,1
292,7,1,-1,1,-8,1,-3,1,7,1,-4,1,-36,1,-8,1,1,1,-18,1,-3,1,-11,1
293,8,1,0,1,-8,1,-4,1,8,1,-4,1,-35,1,-8,1,1,1,-18,1,-2,1,-11,1
294,10,1,1,1,-9,1,-5,1,10,1,-4,1,-33,1,-8,1,0,1,-17,1,-1,1,-11,1
295,12,1,2,1,-10,1,-7,1,11,1,-4,1,-30,1,-7,1,0,1,-17,1,0,1,-11,1
296,11,1,1,1,-10,1,-6,1,11,1,-4,1,-27,1,-7,1,-1,1,-18,1,0,1,-11,1
297,10,1,-1,1,-11,1,-4,1,10,1,-6,1,-24,1,-8,1,-2,1,-19,1,-1,1,-12,1
298,10,1,-2,1,-12,1,-4,1,11,1,-7,1,-21,1,-8,1,-2,1,-19,1,-1,1,-12,1
299,11,1,-1,1,-12,1,-5,1,11,1,-6,1,-18,1,-8,1,-3,1,-19,1,-1,1,-11,1
300,11,1,-1,1,-12,1,-5,1,11,1,-6,1,-15,1,-7,1,-3,1,-19,1,-1,1,-11,1
301,11,1,-1,1,-12,1,-5,1,11,1,-6,1,-13,1,-7,1,-3,1,-19,1,-1,1,-11,1
302,10,1,-1,1,-11,1,-4,1,10,1,-6,1,-13,1,-8,1,-4,1,-19,1,-2,1,-11,1
303,9,1,-1,1,-10,1,-4,1,9,1,-5,1,-12,1,-8,1,-4,1,-20,1,-3,1,-10,1
304,7,1,-2,1,-9,1,-2,1,8,1,-5,1,-11,1,-8,1,-5,1,-21,1,-3,1,-10,1
305,6,1,-2,1,-8,1,-2,1,7,1,-5,1,-10,1,-8,1,-6,1,-22,1,-4,1,-11,1
306,6,1,-2,1,-8,1,-2,1,7,1,-5,1,-9,1,-7,1,-7,1,-22,1,-4,1,-12,1
307,8,1,-4,1,-12,1,-2,1,10,1,-8,1,-6,1,-6,1,-9,1,-22,1,-3,1,-12,1
308,10,1,-5,1,-15,1,-2,1,12,1,-10,1,-4,1,-6,1,-10,1,-21,1,-2,1,-12,1
309,9,1,-7,1,-16,1,-1,1,12,1,-11,1,-3,1,-6,1,-12,1,-22,1,-1,1,-13,1
310,7,1,-6,1,-13,1,0,1,10,1,-9,1,-3,1,-7,1,-13,1,-23,1,-2,1,-14,1
311,6,1,-6,1,-12,1,0,1,9,1,-9,1,-1,1,-8,1,-14,1,-24,1,-3,1,-13,1
312,7,1,-6,1,-13,1,0,1,10,1,-9,1,0,1,-7,1,-14,1,-24,1,-3,1,-13,1
313,6,1,-6,1,-12,1,0,1,9,1,-9,1,0,1,-7,1,-15,1,-24,1,-2,1,-13,1
314,3,1,-7,1,-10,1,2,1,6,1,-8,1,0,1,-7,1,-16,1,-25,1,-3,1,-14,1
315,3,1,-9,1,-12,1,3,1,7,1,-10,1,1,1,-6,1,-16,1,-25,1,-4,1,-14,1
316,4,1,-9,1,-13,1,2,1,8,1,-11,1,1,1,-6,1,-18,1,-25,1,-4,1,-14,1
317,5,1,-9,1,-14,1,2,1,9,1,-11,1,2,1,-5,1,-17,1,-25,1,-3,1,-14,1
318,5,1,-8,1,-13,1,1,1,9,1,-10,1,3,1,-4,1,-17,1,-25,1,-2,1,-14,1
319,6,1,-7,1,-13,1,0,1,9,1,-10,1,4,1,-4,1,-16,1,-25,1,-2,1,-13,1
320,6,1,-8,1,-14,1,1,1,10,1,-11,1,4,1,-4,1,-17,1,-25,1,-2,1,-13,1
321,4,1,-10,1,-14,1,3,1,9,1,-12,1,4,1,-4,1,-17,1,-26,1,-2,1,-13,1
322,3,1,-11,1,-14,1,4,1,8,1,-12,1,5,1,-4,1,-17,1,-26,1,-1,1,-14,1
323,3,1,-12,1,-15,1,4,1,9,1,-13,1,5,1,-4,1,-16,1,-25,1,-1,1,-14,1
324,3,1,-10,1,-13,1,3,1,8,1,-11,1,5,1,-3,1,-16,1,-25,1,-1,1,-14,1
325,5,1,-8,1,-13,1,1,1,9,1,-10,1,6,1,-3,1,-15,1,-24,1,0,1,-14,1
326,7,1,-7,1,-14,1,0,1,10,1,-10,1,6,1,-2,1,-14,1,-24,1,0,1,-14,1
327,6,1,-8,1,-14,1,1,1,10,1,-11,1,4,1,-2,1,-15,1,-24,1,0,1,-15,1
328,5,1,-9,1,-14,1,2,1,9,1,-11,1,4,1,-2,1,-14,1,-25,1,-2,1,-15,1
329,7,1,-8,1,-15,1,0,1,11,1,-11,1,5,1,-1,1,-13,1,-24,1,-2,1,-15,1
330,6,1,-9,1,-15,1,1,1,10,1,-12,1,5,1,-1,1,-13,1,-23,1,-1,1,-15,1
331,5,1,-11,1,-16,1,3,1,10,1,-13,1,6,1,0,1,-12,1,-21,1,0,1,-14,1
332,5,1,-12,1,-17,1,3,1,11,1,-14,1,6,1,0,1,-12,1,-21,1,1,1,-14,1
333,5,1,-13,1,-18,1,4,1,11,1,-15,1,7,1,1,1,-12,1,-21,1,1,1,-14,1
334,5,1,-12,1,-17,1,3,1,11,1,-14,1,6,1,1,1,-13,1,-20,1,1,1,-14,1
335,6,1,-10,1,-16,1,2,1,11,1,-13,1,6,1,1,1,-14,1,-20,1,2,1,-14,1
336,6,1,-9,1,-15,1,1,1,10,1,-12,1,6,1,2,1,-14,1,-20,1,3,1,-13,1
337,7,1,-9,1,-16,1,1,1,11,1,-12,1,5,1,2,1,-14,1,-20,1,3,1,-13,1
338,8,1,-8,1,-16,1,0,1,12,1,-12,1,5,1,3,1,-14,1,-18,1,4,1,-12,1
339,8,1,-8,1,-16,1,0,1,12,1,-12,1,4,1,2,1,-14,1,-18,1,3,1,-12,1
340,6,1,-9,1,-15,1,1,1,10,1,-12,1,4,1,2,1,-15,1,-18,1,4,1,-12,1
341,6,1,-9,1,-15,1,1,1,10,1,-12,1,3,1,2,1,-15,1,-18,1,5,1,-11,1
342,4,1,-11,1,-15,1,3,1,9,1,-13,1,1,1,2,1,-15,1,-18,1,5,1,-12,1
343,2,1,-14,1,-16,1,6,1,9,1,-15,1,1,1,3,1,-16,1,-18,1,5,1,-13,1
344,2,1,-14,1,-16,1,6,1,9,1,-15,1,1,1,3,1,-17,1,-18,1,6,1,-13,1
345,3,1,-13,1,-16,1,5,1,9,1,-14,1,1,1,4,1,-18,1,-17,1,7,1,-13,1
346,5,1,-13,1,-18,1,4,1,11,1,-15,1,2,1,4,1,-19,1,-17,1,7,1,-13,1
347,7,1,-10,1,-17,1,1,1,12,1,-13,1,2,1,4,1,-19,1,-16,1,7,1,-12,1
348,7,1,-9,1,-16,1,1,1,11,1,-12,1,1,1,3,1,-20,1,-15,1,8,1,-12,1
349,5,1,-13,1,-18,1,4,1,11,1,-15,1,1,1,2,1,-20,1,-14,1,9,1,-12,1
350,5,1,-14,1,-19,1,4,1,12,1,-16,1,1,1,2,1,-19,1,-14,1,8,1,-11,1
351,3,1,-16,1,-19,1,6,1,11,1,-17,1,0,1,1,1,-18,1,-14,1,8,1,-11,1
352,2,1,-17,1,-19,1,7,1,10,1,-18,1,0,1,1,1,-17,1,-13,1,7,1,-10,1
353,2,1,-16,1,-18,1,7,1,10,1,-17,1,0,1,1,1,-15,1,-12,1,8,1,-10,1
354,4,1,-13,1,-17,1,4,1,10,1,-15,1,0,1,1,1,-14,1,-11,1,9,1,-9,1
355,4,1,-13,1,-17,1,4,1,10,1,-15,1,0,1,1,1,-14,1,-10,1,9,1,-8,1
356,3,1,-15,1,-18,1,6,1,10,1,-16,1,-1,1,1,1,-14,1,-10,1,10,1,-7,1
357,3,1,-16,1,-19,1,6,1,11,1,-17,1,-1,1,2,1,-14,1,-9,1,11,1,-7,1
358,4,1,-16,1,-20,1,6,1,12,1,-18,1,-1,1,2,1,-14,1,-9,1,12,1,-7,1
359,5,1,-14,1,-19,1,4,1,12,1,-16,1,-1,1,3,1,-14,1,-8,1,12,1,-7,1
360,7,1,-12,1,-19,1,2,1,13,1,-15,1,-2,1,3,1,-14,1,-8,1,12,1,-7,1
361,7,1,-12,1,-19,1,2,1,13,1,-15,1,-4,1,2,1,-15,1,-7,1,14,1,-7,1
362,8,1,-12,1,-20,1,2,1,14,1,-16,1,-4,1,3,1,-15,1,-6,1,14,1,-7,1
363,8,1,-13,1,-21,1,2,1,14,1,-17,1,-5,1,3,1,-15,1,-6,1,15,1,-7,1
364,8,1,-12,1,-20,1,2,1,14,1,-16,1,-6,1,3,1,-16,1,-5,1,16,1,-7,1
365,9,1,-10,1,-19,1,0,1,14,1,-14,1,-6,1,3,1,-15,1,-5,1,17,1,-7,1
366,9,1,-10,1,-19,1,0,1,14,1,-14,1,-6,1,3,1,-15,1,-5,1,17,1,-7,1
367,7,1,-12,1,-19,1,2,1,13,1,-15,1,-7,1,2,1,-15,1,-5,1,17,1,-7,1
368,7,1,-14,1,-21,1,3,1,14,1,-17,1,-8,1,2,1,-15,1,-5,1,16,1,-6,1
369,7,1,-15,1,-22,1,4,1,14,1,-18,1,-9,1,2,1,-16,1,-5,1,16,1,-6,1
370,8,1,-13,1,-21,1,2,1,14,1,-17,1,-9,1,3,1,-16,1,-3,1,18,1,-5,1
371,8,1,-12,1,-20,1,2,1,14,1,-16,1,-9,1,3,1,-16,1,-2,1,19,1,-5,1
372,8,1,-11,1,-19,1,1,1,13,1,-15,1,-10,1,3,1,-17,1,-1,1,19,1,-5,1
373,7,1,-12,1,-19,1,2,1,13,1,-15,1,-11,1,3,1,-18,1,-1,1,19,1,-5,1
374,7,1,-12,1,-19,1,2,1,13,1,-15,1,-12,1,3,1,-19,1,-2,1,18,1,-5,1
375,10,1,-9,1,-19,1,0,1,14,1,-14,1,-12,1,3,1,-20,1,-2,1,17,1,-5,1
376,11,1,-9,1,-20,1,-1,1,15,1,-14,1,-11,1,3,1,-20,1,-2,1,17,1,-6,1
377,10,1,-9,1,-19,1,0,1,14,1,-14,1,-12,1,3,1,-20,1,-2,1,16,1,-5,1
378,9,1,-12,1,-21,1,1,1,15,1,-16,1,-12,1,4,1,-20,1,-2,1,16,1,-5,1
379,8,1,-14,1,-22,1,3,1,15,1,-18,1,-12,1,4,1,-19,1,-2,1,18,1,-4,1
380,8,1,-15,1,-23,1,3,1,15,1,-19,1,-12,1,4,1,-18,1,-2,1,18,1,-4,1
381,8,1,-15,1,-23,1,3,1,15,1,-19,1,-13,1,4,1,-17,1,-2,1,19,1,-3,1
382,7,1,-15,1,-22,1,4,1,14,1,-18,1,-14,1,4,1,-16,1,-3,1,18,1,-4,1
383,6,1,-16,1,-22,1,5,1,14,1,-19,1,-16,1,4,1,-14,1,-1,1,20,1,-4,1
384,6,1,-15,1,-21,1,4,1,13,1,-18,1,-17,1,4,1,-11,1,0,1,21,1,-4,1
385,6,1,-16,1,-22,1,5,1,14,1,-19,1,-18,1,4,1,-9,1,0,1,21,1,-4,1
386,6,1,-16,1,-22,1,5,1,14,1,-19,1,-19,1,4,1,-8,1,-1,1,20,1,-4,1
387,6,1,-14,1,-20,1,4,1,13,1,-17,1,-19,1,4,1,-7,1,-2,1,20,1,-5,1
388,8,1,-13,1,-21,1,2,1,14,1,-17,1,-18,1,4,1,-6,1,-2,1,21,1,-4,1
389,8,1,-14,1,-22,1,3,1,15,1,-18,1,-18,1,4,1,-5,1,-2,1,21,1,-3,1
390,7,1,-15,1,-22,1,4,1,14,1,-18,1,-18,1,3,1,-5,1,-2,1,20,1,-4,1
391,8,1,-15,1,-23,1,3,1,15,1,-19,1,-18,1,3,1,-3,1,-3,1,19,1,-4,1
392,9,1,-15,1,-24,1,3,1,16,1,-19,1,-17,1,3,1,-2,1,-3,1,19,1,-4,1
393,10,1,-13,1,-23,1,1,1,16,1,-18,1,-17,1,4,1,0,1,-1,1,19,1,-3,1
394,11,1,-13,1,-24,1,1,1,17,1,-18,1,-17,1,4,1,1,1,-1,1,19,1,-4,1
395,10,1,-14,1,-24,1,2,1,17,1,-19,1,-17,1,3,1,0,1,-2,1,18,1,-5,1
396,10,1,-13,1,-23,1,1,1,16,1,-18,1,-14,1,3,1,0,1,-2,1,19,1,-4,1
397,9,1,-13,1,-22,1,2,1,15,1,-17,1,-11,1,3,1,0,1,-2,1,19,1,-4,1
398,7,1,-15,1,-22,1,4,1,14,1,-18,1,-9,1,2,1,0,1,-4,1,18,1,-5,1
399,7,1,-15,1,-22,1,4,1,14,1,-18,1,-6,1,1,1,-1,1,-3,1,18,1,-4,1
400,8,1,-14,1,-22,1,3,1,15,1,-18,1,-3,1,2,1,-1,1,-3,1,18,1,-4,1
401,9,1,-14,1,-23,1,2,1,16,1,-18,1,0,1,2,1,-1,1,-2,1,19,1,-3,1
402,9,1,-14,1,-23,1,2,1,16,1,-18,1,2,1,1,1,-2,1,-2,1,18,1,-4,1
403,8,1,-16,1,-24,1,4,1,16,1,-20,1,3,1,1,1,-2,1,-3,1,18,1,-5,1
404,9,1,-14,1,-23,1,2,1,16,1,-18,1,6,1,2,1,-1,1,-3,1,18,1,-5,1
405,11,1,-13,1,-24,1,1,1,17,1,-18,1,8,1,2,1,-1,1,-3,1,18,1,-5,1
406,9,1,-15,1,-24,1,3,1,16,1,-19,1,8,1,2,1,-2,1,-4,1,17,1,-6,1
407,8,1,-16,1,-24,1,4,1,16,1,-20,1,9,1,2,1,-3,1,-4,1,16,1,-7,1
408,7,1,-17,1,-24,1,5,1,15,1,-20,1,9,1,2,1,-4,1,-4,1,15,1,-7,1
409,6,1,-18,1,-24,1,6,1,15,1,-21,1,9,1,1,1,-5,1,-4,1,14,1,-7,1
410,6,1,-18,1,-24,1,6,1,15,1,-21,1,10,1,1,1,-5,1,-4,1,15,1,-7,1
411,5,1,-19,1,-24,1,7,1,14,1,-21,1,11,1,0,1,-6,1,-4,1,14,1,-6,1
412,4,1,-19,1,-23,1,7,1,13,1,-21,1,12,1,0,1,-8,1,-5,1,14,1,-6,1
413,6,1,-18,1,-24,1,6,1,15,1,-21,1,13,1,0,1,-9,1,-6,1,15,1,-5,1
414,8,1,-17,1,-25,1,4,1,16,1,-21,1,15,1,1,1,-8,1,-5,1,17,1,-5,1
415,7,1,-17,1,-24,1,5,1,15,1,-20,1,15,1,1,1,-8,1,-6,1,18,1,-5,1
416,8,1,-16,1,-24,1,4,1,16,1,-20,1,16,1,1,1,-6,1,-5,1,18,1,-5,1
417,8,1,-15,1,-23,1,3,1,15,1,-19,1,16,1,2,1,-5,1,-5,1,18,1,-5,1
418,10,1,-12,1,-22,1,1,1,16,1,-17,1,16,1,2,1,-3,1,-5,1,19,1,-5,1
419,9,1,-12,1,-21,1,1,1,15,1,-16,1,15,1,2,1,-1,1,-5,1,20,1,-5,1
420,8,1,-11,1,-19,1,1,1,13,1,-15,1,15,1,2,1,0,1,-5,1,21,1,-5,1
421,9,1,-9,1,-18,1,0,1,13,1,-13,1,15,1,1,1,1,1,-4,1,22,1,-5,1
422,11,1,-4,1,-15,1,-3,1,13,1,-9,1,15,1,2,1,3,1,-3,1,23,1,-4,1
423,9,1,-4,1,-13,1,-2,1,11,1,-8,1,15,1,0,1,3,1,-4,1,23,1,-4,1
424,9,1,-1,1,-10,1,-4,1,9,1,-5,1,15,1,0,1,3,1,-4,1,22,1,-5,1
425,6,1,-2,1,-8,1,-2,1,7,1,-5,1,15,1,0,1,4,1,-4,1,22,1,-5,1
426,4,1,-4,1,-8,1,0,1,6,1,-6,1,15,1,0,1,4,1,-3,1,22,1,-4,1
427,4,1,-4,1,-8,1,0,1,6,1,-6,1,16,1,0,1,5,1,-2,1,22,1,-3,1
428,5,1,-1,1,-6,1,-2,1,5,1,-3,1,15,1,0,1,5,1,-1,1,23,1,-3,1
429,7,1,1,1,-6,1,-4,1,7,1,-2,1,15,1,1,1,5,1,0,1,23,1,-2,1
430,8,1,1,1,-7,1,-4,1,8,1,-3,1,14,1,1,1,6,1,0,1,24,1,-1,1
431,8,1,2,1,-6,1,-5,1,7,1,-2,1,14,1,2,1,8,1,1,1,25,1,0,1
432,10,1,3,1,-7,1,-6,1,9,1,-2,1,13,1,2,1,9,1,2,1,27,1,2,1
433,11,1,3,1,-8,1,-7,1,10,1,-2,1,11,1,1,1,10,1,3,1,28,1,2,1
434,12,1,4,1,-8,1,-8,1,10,1,-2,1,11,1,0,1,9,1,2,1,28,1,3,1
435,14,1,3,1,-11,1,-8,1,13,1,-4,1,10,1,-1,1,8,1,1,1,27,1,2,1
436,14,1,2,1,-12,1,-8,1,13,1,-5,1,9,1,-1,1,8,1,1,1,27,1,2,1
437,14,1,0,1,-14,1,-7,1,14,1,-7,1,9,1,0,1,8,1,1,1,28,1,2,1
438,13,1,-2,1,-15,1,-5,1,14,1,-8,1,7,1,0,1,7,1,2,1,28,1,1,1
439,13,1,-3,1,-16,1,-5,1,14,1,-9,1,5,1,-2,1,4,1,1,1,27,1,0,1
440,13,1,-2,1,-15,1,-5,1,14,1,-8,1,5,1,-2,1,2,1,1,1,27,1,0,1
441,13,1,-1,1,-14,1,-6,1,13,1,-7,1,5,1,-3,1,0,1,0,1,27,1,0,1
442,13,1,-2,1,-15,1,-5,1,14,1,-8,1,5,1,-4,1,-2,1,0,1,26,1,0,1
443,13,1,-3,1,-16,1,-5,1,14,1,-9,1,6,1,-5,1,-4,1,-3,1,25,1,-1,1
444,14,1,-3,1,-17,1,-5,1,15,1,-10,1,5,1,-6,1,-5,1,-5,1,24,1,-2,1
445,17,1,0,1,-17,1,-8,1,17,1,-8,1,4,1,-5,1,-6,1,-5,1,25,1,-2,1
446,18,1,0,1,-18,1,-9,1,18,1,-9,1,3,1,-4,1,-6,1,-5,1,26,1,-2,1
447,17,1,-1,1,-18,1,-8,1,17,1,-9,1,3,1,-2,1,-8,1,-6,1,25,1,-3,1
448,19,1,-3,1,-22,1,-8,1,20,1,-12,1,3,1,-2,1,-9,1,-6,1,24,1,-3,1
449,18,1,-6,1,-24,1,-6,1,21,1,-15,1,2,1,-3,1,-10,1,-7,1,24,1,-4,1
450,18,1,-8,1,-26,1,-5,1,22,1,-17,1,1,1,-3,1,-11,1,-8,1,23,1,-4,1
451,17,1,-8,1,-25,1,-4,1,21,1,-16,1,1,1,-2,1,-10,1,-7,1,23,1,-4,1
452,17,1,-10,1,-27,1,-3,1,22,1,-18,1,1,1,-2,1,-10,1,-7,1,23,1,-4,1
453,17,1,-10,1,-27,1,-3,1,22,1,-18,1,2,1,-1,1,-9,1,-6,1,23,1,-4,1
454,16,1,-10,1,-26,1,-3,1,21,1,-18,1,2,1,0,1,-8,1,-6,1,24,1,-3,1
455,13,1,-10,1,-23,1,-1,1,18,1,-16,1,2,1,0,1,-6,1,-5,1,24,1,-3,1
456,11,1,-12,1,-23,1,0,1,17,1,-17,1,3,1,0,1,-4,1,-4,1,24,1,-4,1
457,11,1,-13,1,-24,1,1,1,17,1,-18,1,2,1,0,1,-2,1,-3,1,24,1,-4,1
458,13,1,-13,1,-26,1,0,1,19,1,-19,1,3,1,0,1,0,1,-4,1,26,1,-4,1
459,12,1,-14,1,-26,1,1,1,19,1,-20,1,2,1,0,1,1,1,-4,1,25,1,-4,1
460,12,1,-14,1,-26,1,1,1,19,1,-20,1,2,1,0,1,2,1,-4,1,25,1,-4,1
461,13,1,-14,1,-27,1,0,1,20,1,-20,1,2,1,0,1,3,1,-4,1,25,1,-4,1
462,11,1,-16,1,-27,1,2,1,19,1,-21,1,1,1,1,1,4,1,-4,1,25,1,-4,1
463,10,1,-18,1,-28,1,4,1,19,1,-23,1,0,1,1,1,5,1,-4,1,25,1,-5,1
464,10,1,-17,1,-27,1,3,1,18,1,-22,1,-2,1,1,1,5,1,-4,1,25,1,-5,1
465,10,1,-15,1,-25,1,2,1,17,1,-20,1,-2,1,1,1,6,1,-4,1,26,1,-5,1
466,9,1,-15,1,-24,1,3,1,16,1,-19,1,-4,1,1,1,6,1,-4,1,27,1,-4,1
467,9,1,-15,1,-24,1,3,1,16,1,-19,1,-4,1,2,1,6,1,-5,1,28,1,-4,1
468,11,1,-15,1,-26,1,2,1,18,1,-20,1,-5,1,3,1,7,1,-5,1,28,1,-5,1
469,11,1,-16,1,-27,1,2,1,19,1,-21,1,-6,1,4,1,7,1,-6,1,27,1,-5,1
470,11,1,-19,1,-30,1,4,1,20,1,-24,1,-6,1,3,1,6,1,-6,1,26,1,-6,1
471,11,1,-19,1,-30,1,4,1,20,1,-24,1,-7,1,3,1,4,1,-7,1,25,1,-8,1
472,9,1,-20,1,-29,1,5,1,19,1,-24,1,-7,1,1,1,2,1,-7,1,24,1,-9,1
473,8,1,-22,1,-30,1,7,1,19,1,-26,1,-8,1,2,1,1,1,-7,1,24,1,-9,1
474,8,1,-21,1,-29,1,6,1,18,1,-25,1,-9,1,1,1,0,1,-7,1,23,1,-10,1
475,8,1,-20,1,-28,1,6,1,18,1,-24,1,-8,1,2,1,0,1,-8,1,23,1,-11,1
476,8,1,-20,1,-28,1,6,1,18,1,-24,1,-8,1,1,1,-1,1,-8,1,22,1,-11,1
477,7,1,-21,1,-28,1,7,1,17,1,-24,1,-10,1,0,1,-3,1,-9,1,21,1,-12,1
478,7,1,-19,1,-26,1,6,1,16,1,-22,1,-10,1,-1,1,-3,1,-9,1,20,1,-12,1
479,8,1,-19,1,-27,1,5,1,17,1,-23,1,-10,1,0,1,-4,1,-8,1,20,1,-11,1
480,8,1,-21,1,-29,1,6,1,18,1,-25,1,-11,1,0,1,-4,1,-8,1,20,1,-11,1
481,8,1,-21,1,-29,1,6,1,18,1,-25,1,-12,1,0,1,-5,1,-8,1,20,1,-12,1
482,8,1,-22,1,-30,1,7,1,19,1,-26,1,-13,1,2,1,-5,1,-8,1,19,1,-12,1
483,8,1,-22,1,-30,1,7,1,19,1,-26,1,-14,1,2,1,-5,1,-8,1,19,1,-12,1
484,8,1,-22,1,-30,1,7,1,19,1,-26,1,-14,1,3,1,-5,1,-7,1,19,1,-11,1
485,6,1,-24,1,-30,1,9,1,18,1,-27,1,-14,1,3,1,-5,1,-6,1,20,1,-10,1
486,6,1,-24,1,-30,1,9,1,18,1,-27,1,-14,1,4,1,-3,1,-5,1,20,1,-9,1
487,5,1,-24,1,-29,1,9,1,17,1,-26,1,-13,1,4,1,-3,1,-5,1,20,1,-7,1
488,8,1,-20,1,-28,1,6,1,18,1,-24,1,-12,1,4,1,-1,1,-5,1,20,1,-7,1
489,9,1,-20,1,-29,1,5,1,19,1,-24,1,-12,1,4,1,-1,1,-5,1,20,1,-7,1
490,7,1,-22,1,-29,1,7,1,18,1,-25,1,-13,1,4,1,-1,1,-5,1,18,1,-8,1
491,4,1,-23,1,-27,1,9,1,15,1,-25,1,-14,1,4,1,0,1,-5,1,17,1,-7,1
492,4,1,-21,1,-25,1,8,1,14,1,-23,1,-15,1,6,1,1,1,-4,1,18,1,-6,1
493,5,1,-20,1,-25,1,7,1,15,1,-22,1,-15,1,7,1,4,1,-3,1,19,1,-6,1
494,4,1,-22,1,-26,1,9,1,15,1,-24,1,-17,1,5,1,6,1,-3,1,19,1,-7,1
495,4,1,-22,1,-26,1,9,1,15,1,-24,1,-18,1,5,1,7,1,-3,1,18,1,-9,1
496,5,1,-23,1,-28,1,9,1,16,1,-25,1,-19,1,5,1,8,1,-3,1,16,1,-10,1
497,4,1,-23,1,-27,1,9,1,15,1,-25,1,-19,1,5,1,8,1,-3,1,16,1,-11,1
498,4,1,-23,1,-27,1,9,1,15,1,-25,1,-20,1,5,1,8,1,-2,1,17,1,-12,1
499,3,1,-23,1,-26,1,10,1,14,1,-24,1,-20,1,6,1,8,1,-1,1,17,1,-11,1
500,3,1,-23,1,-26,1,10,1,14,1,-24,1,-19,1,7,1,9,1,-1,1,17,1,-11,1
501,3,1,-22,1,-25,1,9,1,14,1,-23,1,-19,1,8,1,9,1,0,1,17,1,-10,1
502,3,1,-21,1,-24,1,9,1,13,1,-22,1,-20,1,8,1,10,1,0,1,17,1,-11,1
503,2,1,-22,1,-24,1,10,1,13,1,-23,1,-21,1,7,1,11,1,0,1,15,1,-11,1
504,1,1,-21,1,-22,1,10,1,11,1,-21,1,-22,1,6,1,10,1,-1,1,14,1,-10,1
505,0,1,-15,1,-15,1,7,1,7,1,-15,1,-22,1,3,1,8,1,-3,1,12,1,-9,1
506,-1,1,-6,1,-5,1,3,1,2,1,-6,1,-23,1,-1,1,3,1,-6,1,12,1,-7,1
507,-6,1,2,1,8,1,2,1,-7,1,5,1,-24,1,-7,1,0,1,-7,1,11,1,-6,1
508,-10,1,12,1,22,1,-1,1,-16,1,17,1,-22,1,-7,1,2,1,-4,1,13,1,-3,1
509,-10,1,23,1,33,1,-6,1,-21,1,28,1,-20,1,-5,1,12,1,7,1,21,1,2,1
510,-11,1,34,1,45,1,-11,1,-28,1,39,1,-17,1,-2,1,31,1,29,1,36,1,11,1
511,-9,1,45,1,54,1,-18,1,-31,1,49,1,-15,1,2,1,61,1,61,1,58,1,22,1
512,-8,1,55,1,63,1,-23,1,-35,1,59,1,-12,1,9,1,101,1,102,1,83,1,36,1
513,-6,1,65,1,71,1,-29,1,-38,1,68,1,-11,1,19,1,153,1,159,1,118,1,53,1
514,-1,1,75,1,76,1,-37,1,-38,1,75,1,-8,1,33,1,217,1,227,1,157,1,72,1
515,3,1,82,1,79,1,-42,1,-38,1,81,1,-7,1,53,1,287,1,299,1,200,1,94,1
516,11,1,91,1,80,1,-51,1,-34,1,86,1,-3,1,77,1,364,1,374,1,247,1,119,1
517,19,1,94,1,75,1,-56,1,-28,1,85,1,4,1,108,1,441,1,442,1,292,1,144,1
518,28,1,89,1,61,1,-58,1,-16,1,75,1,13,1,142,1,508,1,489,1,325,1,164,1
519,38,1,70,1,32,1,-54,1,3,1,51,1,21,1,177,1,554,1,507,1,339,1,172,1
520,44,1,42,1,-2,1,-43,1,23,1,20,1,25,1,202,1,570,1,495,1,333,1,168,1
521,47,1,18,1,-29,1,-32,1,38,1,-5,1,22,1,203,1,540,1,453,1,310,1,159,1
522,46,1,-1,1,-47,1,-22,1,46,1,-24,1,13,1,179,1,456,1,372,1,267,1,144,1
523,42,1,-17,1,-59,1,-12,1,50,1,-38,1,-1,1,126,1,292,1,239,1,198,1,120,1
524,39,1,-27,1,-66,1,-6,1,52,1,-46,1,-26,1,54,1,97,1,92,1,122,1,93,1
525,36,1,-31,1,-67,1,-2,1,51,1,-49,1,-54,1,-14,1,-72,1,-36,1,52,1,68,1
526,31,1,-33,1,-64,1,1,1,47,1,-48,1,-78,1,-69,1,-197,1,-134,1,-8,1,44,1
527,24,1,-33,1,-57,1,4,1,40,1,-45,1,-96,1,-108,1,-276,1,-200,1,-56,1,21,1
528,17,1,-30,1,-47,1,6,1,32,1,-38,1,-108,1,-133,1,-319,1,-236,1,-86,1,3,1
529,12,1,-34,1,-46,1,11,1,29,1,-40,1,-114,1,-142,1,-335,1,-251,1,-105,1,-9,1
530,8,1,-43,1,-51,1,17,1,29,1,-47,1,-113,1,-138,1,-333,1,-252,1,-115,1,-19,1
531,6,1,-51,1,-57,1,22,1,31,1,-54,1,-107,1,-130,1,-322,1,-247,1,-120,1,-26,1
532,6,1,-61,1,-67,1,27,1,36,1,-64,1,-100,1,-118,1,-306,1,-241,1,-125,1,-35,1
533,8,1,-71,1,-79,1,31,1,43,1,-75,1,-95,1,-103,1,-288,1,-231,1,-127,1,-42,1
534,11,1,-81,1,-92,1,35,1,51,1,-86,1,-92,1,-90,1,-267,1,-220,1,-126,1,-48,1
535,14,1,-88,1,-102,1,37,1,58,1,-95,1,-87,1,-73,1,-241,1,-206,1,-123,1,-51,1
536,14,1,-95,1,-109,1,40,1,61,1,-102,1,-81,1,-56,1,-217,1,-190,1,-118,1,-53,1
537,16,1,-102,1,-118,1,43,1,67,1,-110,1,-74,1,-43,1,-194,1,-175,1,-112,1,-58,1
538,16,1,-104,1,-120,1,44,1,68,1,-112,1,-67,1,-34,1,-178,1,-163,1,-106,1,-61,1
539,17,1,-103,1,-120,1,43,1,68,1,-111,1,-59,1,-30,1,-164,1,-150,1,-99,1,-62,1
540,17,1,-98,1,-115,1,40,1,66,1,-106,1,-53,1,-29,1,-154,1,-138,1,-91,1,-60,1
541,18,1,-91,1,-109,1,36,1,63,1,-100,1,-48,1,-31,1,-146,1,-128,1,-85,1,-58,1
542,17,1,-85,1,-102,1,34,1,59,1,-93,1,-45,1,-33,1,-137,1,-120,1,-80,1,-57,1
543,16,1,-80,1,-96,1,32,1,56,1,-88,1,-40,1,-33,1,-127,1,-110,1,-75,1,-54,1
544,14,1,-74,1,-88,1,30,1,51,1,-81,1,-35,1,-30,1,-113,1,-100,1,-69,1,-49,1
545,15,1,-68,1,-83,1,26,1,49,1,-75,1,-29,1,-24,1,-99,1,-89,1,-62,1,-43,1
546,15,1,-63,1,-78,1,24,1,46,1,-70,1,-24,1,-19,1,-86,1,-80,1,-57,1,-39,1
547,11,1,-63,1,-74,1,26,1,42,1,-68,1,-21,1,-14,1,-78,1,-74,1,-54,1,-38,1
548,6,1,-63,1,-69,1,28,1,37,1,-66,1,-18,1,-11,1,-72,1,-68,1,-52,1,-39,1
549,4,1,-57,1,-61,1,26,1,32,1,-59,1,-15,1,-7,1,-67,1,-62,1,-49,1,-38,1
550,3,1,-49,1,-52,1,23,1,27,1,-50,1,-12,1,-3,1,-60,1,-56,1,-46,1,-37,1
551,0,1,-43,1,-43,1,21,1,21,1,-43,1,-9,1,0,1,-52,1,-49,1,-42,1,-35,1
552,-3,1,-39,1,-36,1,21,1,16,1,-38,1,-7,1,3,1,-45,1,-43,1,-38,1,-31,1
553,-5,1,-34,1,-29,1,19,1,12,1,-32,1,-5,1,5,1,-36,1,-37,1,-35,1,-28,1
554,-5,1,-30,1,-25,1,17,1,10,1,-28,1,-2,1,8,1,-26,1,-30,1,-31,1,-24,1
555,-5,1,-26,1,-21,1,15,1,8,1,-24,1,-2,1,11,1,-16,1,-23,1,-28,1,-21,1
556,-6,1,-24,1,-18,1,15,1,6,1,-21,1,-2,1,13,1,-7,1,-18,1,-24,1,-19,1
557,-6,1,-23,1,-17,1,14,1,5,1,-20,1,-1,1,15,1,-2,1,-15,1,-23,1,-16,1
558,-6,1,-22,1,-16,1,14,1,5,1,-19,1,-1,1,17,1,0,1,-12,1,-21,1,-14,1
559,-6,1,-21,1,-15,1,13,1,4,1,-18,1,0,1,17,1,2,1,-11,1,-20,1,-13,1
560,-6,1,-19,1,-13,1,12,1,3,1,-16,1,-1,1,16,1,1,1,-11,1,-20,1,-14,1
561,-4,1,-17,1,-13,1,10,1,4,1,-15,1,-2,1,15,1,0,1,-12,1,-20,1,-14,1
562,-3,1,-13,1,-10,1,8,1,3,1,-12,1,-2,1,13,1,0,1,-12,1,-21,1,-16,1
563,-3,1,-10,1,-7,1,6,1,2,1,-9,1,-3,1,12,1,1,1,-12,1,-22,1,-17,1
564,-2,1,-7,1,-5,1,4,1,1,1,-6,1,-3,1,12,1,2,1,-11,1,-23,1,-19,1
565,-2,1,-6,1,-4,1,4,1,1,1,-5,1,-3,1,14,1,3,1,-11,1,-24,1,-19,1
566,-4,1,-6,1,-2,1,5,1,-1,1,-4,1,-3,1,14,1,6,1,-10,1,-24,1,-18,1
567,-2,1,-6,1,-4,1,4,1,1,1,-5,1,-3,1,16,1,8,1,-8,1,-23,1,-17,1
568,-2,1,-7,1,-5,1,4,1,1,1,-6,1,-4,1,17,1,9,1,-8,1,-22,1,-16,1
569,-3,1,-8,1,-5,1,5,1,1,1,-7,1,-5,1,16,1,9,1,-8,1,-22,1,-16,1
570,-5,1,-9,1,-4,1,7,1,-1,1,-7,1,-6,1,15,1,8,1,-7,1,-20,1,-16,1
571,-5,1,-7,1,-2,1,6,1,-2,1,-5,1,-6,1,15,1,8,1,-6,1,-18,1,-16,1
572,-5,1,-7,1,-2,1,6,1,-2,1,-5,1,-7,1,15,1,7,1,-6,1,-18,1,-16,1
573,-5,1,-6,1,-1,1,5,1,-2,1,-4,1,-7,1,15,1,7,1,-5,1,-17,1,-15,1
574,-6,1,-7,1,-1,1,6,1,-3,1,-4,1,-5,1,16,1,8,1,-3,1,-16,1,-13,1
575,-6,1,-7,1,-1,1,6,1,-3,1,-4,1,-5,1,17,1,10,1,-3,1,-16,1,-12,1
576,-6,1,-6,1,0,1,6,1,-3,1,-3,1,-5,1,18,1,9,1,-3,1,-18,1,-12,1
577,-4,1,-5,1,-1,1,4,1,-2,1,-3,1,-5,1,18,1,8,1,-3,1,-21,1,-11,1
578,-2,1,-4,1,-2,1,3,1,0,1,-3,1,-6,1,19,1,8,1,-3,1,-23,1,-10,1
579,-1,1,-5,1,-4,1,3,1,1,1,-5,1,-6,1,19,1,6,1,-3,1,-25,1,-9,1
580,-2,1,-7,1,-5,1,4,1,1,1,-6,1,-6,1,19,1,4,1,-3,1,-27,1,-9,1
581,-3,1,-8,1,-5,1,5,1,1,1,-7,1,-5,1,19,1,3,1,-3,1,-29,1,-10,1
582,-3,1,-6,1,-3,1,4,1,0,1,-5,1,-6,1,19,1,3,1,-3,1,-30,1,-12,1
583,-3,1,-4,1,-1,1,3,1,-1,1,-3,1,-8,1,18,1,4,1,-4,1,-32,1,-12,1
584,-2,1,-2,1,0,1,2,1,-1,1,-1,1,-9,1,18,1,4,1,-4,1,-33,1,-13,1
585,-2,1,-1,1,1,1,1,1,-2,1,0,1,-10,1,18,1,4,1,-5,1,-35,1,-13,1
586,-3,1,-1,1,2,1,2,1,-3,1,0,1,-9,1,18,1,4,1,-5,1,-36,1,-14,1
587,-3,1,-1,1,2,1,2,1,-3,1,0,1,-10,1,18,1,5,1,-6,1,-38,1,-15,1
588,-3,1,-2,1,1,1,2,1,-2,1,-1,1,-8,1,19,1,6,1,-6,1,-40,1,-16,1
589,-5,1,-4,1,1,1,4,1,-3,1,-2,1,-8,1,19,1,8,1,-5,1,-41,1,-15,1
590,-6,1,-6,1,0,1,6,1,-3,1,-3,1,-9,1,19,1,9,1,-4,1,-41,1,-15,1
591,-5,1,-5,1,0,1,5,1,-3,1,-3,1,-8,1,20,1,10,1,-3,1,-40,1,-14,1
592,-4,1,-3,1,1,1,3,1,-3,1,-1,1,-7,1,20,1,12,1,-1,1,-39,1,-13,1
593,-4,1,-3,1,1,1,3,1,-3,1,-1,1,-7,1,21,1,12,1,0,1,-38,1,-12,1
594,-2,1,-3,1,-1,1,2,1,-1,1,-2,1,-7,1,22,1,14,1,1,1,-38,1,-11,1
595,-2,1,-3,1,-1,1,2,1,-1,1,-2,1,-6,1,22,1,14,1,2,1,-38,1,-10,1
596,-3,1,-4,1,-1,1,3,1,-1,1,-3,1,-7,1,22,1,14,1,1,1,-39,1,-11,1
597,-3,1,-2,1,1,1,2,1,-2,1,-1,1,-7,1,21,1,13,1,0,1,-39,1,-11,1
598,-2,1,0,1,2,1,1,1,-2,1,1,1,-7,1,21,1,14,1,0,1,-40,1,-12,1
599,-3,1,-1,1,2,1,2,1,-3,1,0,1,-8,1,20,1,13,1,0,1,-41,1,-13,1
600,-4,1,-2,1,2,1,3,1,-3,1,0,1,-9,1,20,1,13,1,-1,1,-41,1,-13,1
601,-5,1,-4,1,1,1,4,1,-3,1,-2,1,-10,1,21,1,13,1,-1,1,-42,1,-13,1
602,-7,1,-5,1,2,1,6,1,-5,1,-2,1,-10,1,21,1,14,1,0,1,-42,1,-14,1
603,-8,1,-7,1,1,1,7,1,-5,1,-3,1,-9,1,23,1,14,1,1,1,-41,1,-13,1
604,-10,1,-9,1,1,1,9,1,-6,1,-4,1,-9,1,24,1,14,1,1,1,-43,1,-14,1
605,-11,1,-9,1,2,1,10,1,-7,1,-4,1,-10,1,23,1,13,1,0,1,-44,1,-15,1
606,-11,1,-8,1,3,1,9,1,-7,1,-3,1,-9,1,23,1,13,1,0,1,-46,1,-13,1
607,-9,1,-5,1,4,1,7,1,-7,1,-1,1,-8,1,23,1,13,1,2,1,-46,1,-11,1
608,-6,1,-3,1,3,1,4,1,-5,1,0,1,-8,1,23,1,13,1,3,1,-46,1,-9,1
609,-4,1,-1,1,3,1,2,1,-4,1,1,1,-8,1,23,1,13,1,3,1,-46,1,-8,1
610,-2,1,0,1,2,1,1,1,-2,1,1,1,-6,1,25,1,14,1,4,1,-46,1,-7,1
611,-2,1,0,1,2,1,1,1,-2,1,1,1,-6,1,24,1,14,1,3,1,-47,1,-8,1
612,-4,1,0,1,4,1,2,1,-4,1,2,1,-7,1,23,1,13,1,3,1,-48,1,-9,1
613,-3,1,3,1,6,1,0,1,-4,1,4,1,-8,1,23,1,12,1,4,1,-47,1,-10,1
614,-3,1,6,1,9,1,-1,1,-6,1,7,1,-8,1,22,1,11,1,5,1,-46,1,-10,1
615,-4,1,6,1,10,1,-1,1,-7,1,8,1,-9,1,22,1,8,1,4,1,-47,1,-12,1
616,-3,1,8,1,11,1,-2,1,-7,1,9,1,-9,1,23,1,8,1,5,1,-48,1,-11,1
617,-5,1,6,1,11,1,0,1,-8,1,8,1,-8,1,24,1,9,1,6,1,-49,1,-10,1
618,-4,1,5,1,9,1,0,1,-6,1,7,1,-6,1,25,1,10,1,6,1,-50,1,-10,1
619,-5,1,4,1,9,1,0,1,-7,1,6,1,-5,1,26,1,12,1,6,1,-51,1,-12,1
620,-6,1,5,1,11,1,0,1,-8,1,8,1,-5,1,26,1,15,1,8,1,-49,1,-11,1
621,-5,1,7,1,12,1,-1,1,-8,1,9,1,-5,1,26,1,17,1,10,1,-47,1,-8,1
622,-4,1,10,1,14,1,-3,1,-9,1,12,1,-4,1,26,1,18,1,11,1,-47,1,-7,1
623,-4,1,11,1,15,1,-3,1,-9,1,13,1,-2,1,27,1,19,1,13,1,-46,1,-5,1
624,-5,1,12,1,17,1,-3,1,-11,1,14,1,2,1,26,1,20,1,15,1,-45,1,-5,1
625,-7,1,12,1,19,1,-2,1,-13,1,15,1,5,1,25,1,21,1,16,1,-45,1,-5,1
626,-8,1,14,1,22,1,-3,1,-15,1,18,1,8,1,23,1,22,1,15,1,-46,1,-6,1
627,-6,1,17,1,23,1,-5,1,-14,1,20,1,11,1,21,1,22,1,16,1,-44,1,-4,1
628,-5,1,19,1,24,1,-7,1,-14,1,21,1,15,1,22,1,23,1,16,1,-43,1,-3,1
629,-7,1,19,1,26,1,-6,1,-16,1,22,1,17,1,21,1,25,1,17,1,-42,1,-2,1
630,-11,1,17,1,28,1,-3,1,-19,1,22,1,19,1,20,1,25,1,18,1,-42,1,-2,1
631,-10,1,20,1,30,1,-5,1,-20,1,25,1,21,1,20,1,25,1,19,1,-40,1,-1,1
632,-10,1,22,1,32,1,-6,1,-21,1,27,1,23,1,19,1,26,1,21,1,-39,1,-1,1
633,-11,1,22,1,33,1,-5,1,-22,1,27,1,24,1,16,1,25,1,22,1,-38,1,0,1
634,-11,1,24,1,35,1,-6,1,-23,1,29,1,24,1,14,1,24,1,24,1,-36,1,2,1
635,-10,1,28,1,38,1,-9,1,-24,1,33,1,24,1,14,1,24,1,25,1,-34,1,4,1
636,-9,1,29,1,38,1,-10,1,-23,1,33,1,24,1,13,1,23,1,26,1,-34,1,6,1
637,-9,1,33,1,42,1,-12,1,-25,1,37,1,24,1,13,1,22,1,27,1,-32,1,7,1
638,-9,1,35,1,44,1,-13,1,-26,1,39,1,24,1,13,1,21,1,28,1,-32,1,9,1
639,-9,1,36,1,45,1,-13,1,-27,1,40,1,23,1,12,1,20,1,27,1,-33,1,10,1
640,-10,1,36,1,46,1,-13,1,-28,1,41,1,23,1,11,1,19,1,27,1,-34,1,11,1
641,-10,1,37,1,47,1,-13,1,-28,1,42,1,23,1,10,1,19,1,27,1,-33,1,12,1
642,-10,1,36,1,46,1,-13,1,-28,1,41,1,23,1,10,1,19,1,28,1,-32,1,13,1
643,-11,1,34,1,45,1,-11,1,-28,1,39,1,23,1,9,1,17,1,27,1,-33,1,14,1
644,-13,1,34,1,47,1,-10,1,-30,1,40,1,22,1,7,1,14,1,26,1,-34,1,15,1
645,-13,1,36,1,49,1,-11,1,-31,1,42,1,20,1,5,1,12,1,25,1,-36,1,14,1
646,-13,1,38,1,51,1,-12,1,-32,1,44,1,19,1,3,1,10,1,23,1,-38,1,13,1
647,-13,1,38,1,51,1,-12,1,-32,1,44,1,18,1,2,1,8,1,22,1,-39,1,12,1
648,-15,1,38,1,53,1,-11,1,-34,1,45,1,17,1,0,1,7,1,21,1,-40,1,11,1
649,-12,1,40,1,52,1,-14,1,-32,1,46,1,16,1,-2,1,6,1,22,1,-38,1,13,1
650,-10,1,41,1,51,1,-15,1,-30,1,46,1,14,1,-3,1,5,1,20,1,-38,1,14,1
651,-8,1,41,1,49,1,-16,1,-28,1,45,1,12,1,-5,1,4,1,19,1,-38,1,15,1
652,-7,1,42,1,49,1,-17,1,-28,1,45,1,12,1,-7,1,3,1,17,1,-38,1,14,1
653,-8,1,41,1,49,1,-16,1,-28,1,45,1,11,1,-8,1,3,1,17,1,-39,1,14,1
654,-8,1,41,1,49,1,-16,1,-28,1,45,1,10,1,-8,1,3,1,17,1,-39,1,14,1
655,-8,1,41,1,49,1,-16,1,-28,1,45,1,10,1,-9,1,3,1,17,1,-40,1,13,1
656,-7,1,40,1,47,1,-16,1,-27,1,43,1,10,1,-9,1,3,1,18,1,-37,1,14,1
657,-7,1,40,1,47,1,-16,1,-27,1,43,1,8,1,-9,1,5,1,20,1,-36,1,15,1
658,-7,1,39,1,46,1,-16,1,-26,1,42,1,6,1,-9,1,5,1,20,1,-37,1,15,1
659,-7,1,39,1,46,1,-16,1,-26,1,42,1,5,1,-10,1,6,1,20,1,-37,1,14,1
660,-6,1,41,1,47,1,-17,1,-26,1,44,1,2,1,-10,1,4,1,18,1,-39,1,13,1
661,-7,1,40,1,47,1,-16,1,-27,1,43,1,-1,1,-11,1,3,1,15,1,-41,1,10,1
662,-5,1,38,1,43,1,-16,1,-24,1,40,1,-2,1,-10,1,3,1,15,1,-43,1,9,1
663,-3,1,39,1,42,1,-18,1,-22,1,40,1,-1,1,-8,1,4,1,14,1,-42,1,10,1
664,-3,1,39,1,42,1,-18,1,-22,1,40,1,-2,1,-8,1,3,1,13,1,-43,1,10,1
665,-2,1,37,1,39,1,-17,1,-20,1,38,1,-3,1,-8,1,2,1,11,1,-45,1,9,1
666,0,1,34,1,34,1,-17,1,-17,1,34,1,-3,1,-7,1,1,1,11,1,-45,1,9,1
667,0,1,29,1,29,1,-14,1,-14,1,29,1,-4,1,-8,1,-1,1,10,1,-46,1,8,1
668,-2,1,23,1,25,1,-10,1,-13,1,24,1,-7,1,-10,1,-2,1,8,1,-47,1,6,1
669,-4,1,19,1,23,1,-7,1,-13,1,21,1,-8,1,-10,1,-4,1,6,1,-49,1,5,1
670,-6,1,14,1,20,1,-4,1,-13,1,17,1,-8,1,-10,1,-5,1,5,1,-50,1,4,1
671,-5,1,13,1,18,1,-4,1,-11,1,15,1,-9,1,-10,1,-6,1,4,1,-49,1,5,1
672,-3,1,13,1,16,1,-5,1,-9,1,14,1,-10,1,-10,1,-6,1,2,1,-50,1,3,1
673,-1,1,13,1,14,1,-6,1,-7,1,13,1,-12,1,-9,1,-7,1,1,1,-52,1,1,1
674,1,1,14,1,13,1,-7,1,-6,1,14,1,-14,1,-8,1,-8,1,0,1,-53,1,1,1
675,1,1,12,1,11,1,-6,1,-5,1,12,1,-15,1,-7,1,-10,1,0,1,-54,1,0,1
676,3,1,10,1,7,1,-6,1,-2,1,9,1,-15,1,-7,1,-12,1,-2,1,-55,1,0,1
677,3,1,7,1,4,1,-5,1,0,1,6,1,-14,1,-6,1,-12,1,-2,1,-56,1,-1,1
678,3,1,5,1,2,1,-4,1,1,1,4,1,-14,1,-6,1,-13,1,-3,1,-56,1,-1,1
679,4,1,4,1,0,1,-4,1,2,1,2,1,-15,1,-6,1,-14,1,-5,1,-58,1,-2,1
680,3,1,3,1,0,1,-3,1,2,1,2,1,-15,1,-6,1,-15,1,-6,1,-58,1,-3,1
681,4,1,2,1,-2,1,-3,1,3,1,0,1,-16,1,-6,1,-15,1,-7,1,-59,1,-4,1
682,3,1,0,1,-3,1,-1,1,3,1,-1,1,-18,1,-6,1,-15,1,-9,1,-62,1,-6,1
683,3,1,-1,1,-4,1,-1,1,3,1,-2,1,-20,1,-6,1,-17,1,-11,1,-66,1,-8,1
684,3,1,-1,1,-4,1,-1,1,3,1,-2,1,-22,1,-6,1,-18,1,-13,1,-69,1,-10,1
685,3,1,-2,1,-5,1,0,1,4,1,-3,1,-23,1,-5,1,-18,1,-14,1,-71,1,-12,1
686,4,1,-2,1,-6,1,-1,1,5,1,-4,1,-22,1,-5,1,-18,1,-14,1,-72,1,-12,1
687,6,1,-2,1,-8,1,-2,1,7,1,-5,1,-21,1,-5,1,-18,1,-16,1,-74,1,-16,1
688,6,1,-2,1,-8,1,-2,1,7,1,-5,1,-21,1,-6,1,-20,1,-18,1,-76,1,-20,1
689,5,1,-1,1,-6,1,-2,1,5,1,-3,1,-21,1,-8,1,-21,1,-21,1,-76,1,-22,1
690,5,1,0,1,-5,1,-2,1,5,1,-2,1,-22,1,-9,1,-22,1,-21,1,-75,1,-22,1
691,4,1,0,1,-4,1,-2,1,4,1,-2,1,-23,1,-10,1,-22,1,-22,1,-74,1,-20,1
692,3,1,-3,1,-6,1,0,1,4,1,-4,1,-25,1,-9,1,-23,1,-22,1,-74,1,-20,1
693,3,1,-6,1,-9,1,1,1,6,1,-7,1,-26,1,-9,1,-24,1,-22,1,-73,1,-18,1
694,2,1,-8,1,-10,1,3,1,6,1,-9,1,-27,1,-8,1,-24,1,-22,1,-72,1,-16,1
695,3,1,-9,1,-12,1,3,1,7,1,-10,1,-27,1,-8,1,-25,1,-23,1,-71,1,-15,1
696,2,1,-11,1,-13,1,4,1,7,1,-12,1,-28,1,-9,1,-26,1,-22,1,-70,1,-14,1
697,2,1,-13,1,-15,1,5,1,8,1,-14,1,-26,1,-9,1,-27,1,-22,1,-69,1,-14,1
698,1,1,-15,1,-16,1,7,1,8,1,-15,1,-25,1,-10,1,-28,1,-22,1,-69,1,-14,1
699,1,1,-16,1,-17,1,7,1,9,1,-16,1,-25,1,-10,1,-30,1,-24,1,-69,1,-14,1
700,1,1,-14,1,-15,1,6,1,8,1,-14,1,-24,1,-10,1,-31,1,-24,1,-69,1,-14,1
701,1,1,-14,1,-15,1,6,1,8,1,-14,1,-25,1,-10,1,-32,1,-24,1,-69,1,-15,1
702,3,1,-12,1,-15,1,4,1,9,1,-13,1,-25,1,-10,1,-34,1,-26,1,-70,1,-16,1
703,4,1,-12,1,-16,1,4,1,10,1,-14,1,-25,1,-9,1,-33,1,-26,1,-72,1,-17,1
704,3,1,-14,1,-17,1,5,1,10,1,-15,1,-25,1,-9,1,-31,1,-26,1,-73,1,-17,1
705,4,1,-14,1,-18,1,5,1,11,1,-16,1,-25,1,-8,1,-31,1,-26,1,-74,1,-19,1
706,4,1,-13,1,-17,1,4,1,10,1,-15,1,-26,1,-9,1,-30,1,-27,1,-75,1,-20,1
707,4,1,-13,1,-17,1,4,1,10,1,-15,1,-27,1,-9,1,-31,1,-28,1,-76,1,-21,1
708,3,1,-15,1,-18,1,6,1,10,1,-16,1,-28,1,-9,1,-30,1,-30,1,-77,1,-21,1
709,2,1,-16,1,-18,1,7,1,10,1,-17,1,-27,1,-9,1,-31,1,-31,1,-78,1,-22,1
710,2,1,-16,1,-18,1,7,1,10,1,-17,1,-28,1,-9,1,-30,1,-32,1,-78,1,-23,1
711,2,1,-18,1,-20,1,8,1,11,1,-19,1,-27,1,-8,1,-31,1,-32,1,-79,1,-25,1
712,4,1,-15,1,-19,1,5,1,11,1,-17,1,-27,1,-8,1,-30,1,-32,1,-79,1,-26,1
713,6,1,-14,1,-20,1,4,1,13,1,-17,1,-28,1,-8,1,-28,1,-32,1,-78,1,-26,1
714,6,1,-13,1,-19,1,3,1,12,1,-16,1,-28,1,-7,1,-28,1,-33,1,-79,1,-25,1
715,8,1,-10,1,-18,1,1,1,13,1,-14,1,-26,1,-6,1,-27,1,-33,1,-78,1,-24,1
716,9,1,-7,1,-16,1,-1,1,12,1,-11,1,-26,1,-7,1,-27,1,-33,1,-77,1,-23,1
717,8,1,-7,1,-15,1,0,1,11,1,-11,1,-26,1,-7,1,-27,1,-34,1,-77,1,-24,1
718,5,1,-9,1,-14,1,2,1,9,1,-11,1,-28,1,-7,1,-28,1,-35,1,-77,1,-26,1
719,5,1,-7,1,-12,1,1,1,8,1,-9,1,-29,1,-7,1,-29,1,-36,1,-76,1,-26,1
720,6,1,-7,1,-13,1,0,1,9,1,-10,1,-29,1,-8,1,-30,1,-36,1,-76,1,-27,1
721,6,1,-8,1,-14,1,1,1,10,1,-11,1,-28,1,-7,1,-31,1,-36,1,-74,1,-27,1
722,5,1,-10,1,-15,1,2,1,10,1,-12,1,-28,1,-7,1,-31,1,-36,1,-74,1,-26,1
723,4,1,-10,1,-14,1,3,1,9,1,-12,1,-27,1,-8,1,-32,1,-36,1,-74,1,-26,1
724,4,1,-11,1,-15,1,3,1,9,1,-13,1,-27,1,-8,1,-32,1,-37,1,-74,1,-24,1
725,4,1,-10,1,-14,1,3,1,9,1,-12,1,-26,1,-7,1,-34,1,-37,1,-76,1,-25,1
726,4,1,-10,1,-14,1,3,1,9,1,-12,1,-26,1,-8,1,-35,1,-39,1,-77,1,-24,1
727,5,1,-10,1,-15,1,2,1,10,1,-12,1,-25,1,-7,1,-35,1,-38,1,-77,1,-24,1
728,3,1,-11,1,-14,1,4,1,8,1,-12,1,-25,1,-7,1,-36,1,-37,1,-76,1,-25,1
729,4,1,-10,1,-14,1,3,1,9,1,-12,1,-24,1,-6,1,-35,1,-36,1,-75,1,-24,1
730,2,1,-12,1,-14,1,5,1,8,1,-13,1,-25,1,-6,1,-36,1,-37,1,-74,1,-27,1
731,2,1,-16,1,-18,1,7,1,10,1,-17,1,-24,1,-6,1,-37,1,-38,1,-75,1,-29,1
732,1,1,-18,1,-19,1,8,1,10,1,-18,1,-23,1,-6,1,-38,1,-39,1,-74,1,-30,1
733,2,1,-18,1,-20,1,8,1,11,1,-19,1,-22,1,-6,1,-39,1,-38,1,-74,1,-30,1
734,2,1,-16,1,-18,1,7,1,10,1,-17,1,-21,1,-6,1,-39,1,-37,1,-74,1,-30,1
735,1,1,-16,1,-17,1,7,1,9,1,-16,1,-22,1,-6,1,-39,1,-36,1,-74,1,-30,1
736,1,1,-15,1,-16,1,7,1,8,1,-15,1,-21,1,-6,1,-39,1,-36,1,-75,1,-29,1
737,3,1,-13,1,-16,1,5,1,9,1,-14,1,-22,1,-6,1,-38,1,-36,1,-75,1,-29,1
738,3,1,-13,1,-16,1,5,1,9,1,-14,1,-22,1,-6,1,-37,1,-35,1,-74,1,-31,1
739,3,1,-12,1,-15,1,4,1,9,1,-13,1,-22,1,-6,1,-36,1,-34,1,-72,1,-29,1
740,3,1,-11,1,-14,1,4,1,8,1,-12,1,-23,1,-6,1,-35,1,-33,1,-71,1,-28,1
741,3,1,-11,1,-14,1,4,1,8,1,-12,1,-23,1,-7,1,-33,1,-33,1,-69,1,-26,1
742,5,1,-11,1,-16,1,3,1,10,1,-13,1,-24,1,-8,1,-33,1,-33,1,-69,1,-25,1
743,6,1,-12,1,-18,1,3,1,12,1,-15,1,-23,1,-8,1,-32,1,-32,1,-67,1,-24,1
744,8,1,-12,1,-20,1,2,1,14,1,-16,1,-21,1,-8,1,-30,1,-31,1,-66,1,-22,1
745,5,1,-15,1,-20,1,5,1,12,1,-17,1,-20,1,-8,1,-30,1,-31,1,-66,1,-22,1
746,3,1,-17,1,-20,1,7,1,11,1,-18,1,-19,1,-9,1,-31,1,-31,1,-66,1,-23,1
747,4,1,-16,1,-20,1,6,1,12,1,-18,1,-18,1,-7,1,-30,1,-29,1,-65,1,-23,1
748,4,1,-15,1,-19,1,5,1,11,1,-17,1,-18,1,-7,1,-30,1,-29,1,-65,1,-24,1
749,3,1,-15,1,-18,1,6,1,10,1,-16,1,-19,1,-8,1,-32,1,-28,1,-67,1,-25,1
750,4,1,-14,1,-18,1,5,1,11,1,-16,1,-19,1,-9,1,-33,1,-27,1,-68,1,-24,1
751,6,1,-12,1,-18,1,3,1,12,1,-15,1,-19,1,-9,1,-33,1,-27,1,-71,1,-23,1
752,7,1,-12,1,-19,1,2,1,13,1,-15,1,-21,1,-9,1,-31,1,-27,1,-73,1,-23,1
753,8,1,-12,1,-20,1,2,1,14,1,-16,1,-20,1,-9,1,-31,1,-27,1,-74,1,-23,1
754,6,1,-13,1,-19,1,3,1,12,1,-16,1,-19,1,-9,1,-31,1,-27,1,-77,1,-23,1
755,5,1,-16,1,-21,1,5,1,13,1,-18,1,-18,1,-8,1,-31,1,-27,1,-79,1,-23,1
756,6,1,-15,1,-21,1,4,1,13,1,-18,1,-17,1,-9,1,-31,1,-26,1,-80,1,-22,1
757,7,1,-14,1,-21,1,3,1,14,1,-17,1,-17,1,-8,1,-31,1,-25,1,-81,1,-20,1
758,4,1,-15,1,-19,1,5,1,11,1,-17,1,-18,1,-9,1,-32,1,-25,1,-82,1,-21,1
759,2,1,-15,1,-17,1,6,1,9,1,-16,1,-18,1,-9,1,-31,1,-25,1,-84,1,-22,1
760,4,1,-14,1,-18,1,5,1,11,1,-16,1,-20,1,-9,1,-29,1,-24,1,-84,1,-23,1
761,5,1,-12,1,-17,1,3,1,11,1,-14,1,-20,1,-9,1,-28,1,-23,1,-84,1,-24,1
762,6,1,-11,1,-17,1,2,1,11,1,-14,1,-20,1,-10,1,-26,1,-21,1,-83,1,-23,1
763,7,1,-12,1,-19,1,2,1,13,1,-15,1,-21,1,-10,1,-25,1,-21,1,-81,1,-23,1
764,7,1,-14,1,-21,1,3,1,14,1,-17,1,-21,1,-10,1,-23,1,-20,1,-79,1,-23,1
765,8,1,-14,1,-22,1,3,1,15,1,-18,1,-20,1,-10,1,-21,1,-19,1,-78,1,-21,1
766,9,1,-13,1,-22,1,2,1,15,1,-17,1,-20,1,-11,1,-20,1,-19,1,-77,1,-20,1
767,9,1,-13,1,-22,1,2,1,15,1,-17,1,-21,1,-11,1,-18,1,-18,1,-77,1,-20,1
768,8,1,-13,1,-21,1,2,1,14,1,-17,1,-21,1,-11,1,-17,1,-17,1,-77,1,-20,1
769,4,1,-17,1,-21,1,6,1,12,1,-19,1,-22,1,-12,1,-17,1,-19,1,-79,1,-20,1
770,1,1,-19,1,-20,1,9,1,10,1,-19,1,-22,1,-11,1,-17,1,-19,1,-80,1,-22,1
771,2,1,-14,1,-16,1,6,1,9,1,-15,1,-22,1,-11,1,-17,1,-19,1,-81,1,-24,1
772,4,1,-10,1,-14,1,3,1,9,1,-12,1,-22,1,-12,1,-17,1,-19,1,-81,1,-24,1
773,6,1,-9,1,-15,1,1,1,10,1,-12,1,-22,1,-11,1,-16,1,-19,1,-82,1,-24,1
774,7,1,-10,1,-17,1,1,1,12,1,-13,1,-20,1,-10,1,-15,1,-19,1,-81,1,-22,1
775,7,1,-14,1,-21,1,3,1,14,1,-17,1,-19,1,-10,1,-15,1,-19,1,-81,1,-21,1
776,7,1,-17,1,-24,1,5,1,15,1,-20,1,-19,1,-9,1,-15,1,-20,1,-82,1,-21,1
777,8,1,-18,1,-26,1,5,1,17,1,-22,1,-18,1,-8,1,-14,1,-19,1,-81,1,-19,1
778,9,1,-18,1,-27,1,4,1,18,1,-22,1,-18,1,-9,1,-14,1,-18,1,-80,1,-19,1
779,8,1,-17,1,-25,1,4,1,16,1,-21,1,-18,1,-9,1,-13,1,-18,1,-79,1,-18,1
780,6,1,-18,1,-24,1,6,1,15,1,-21,1,-18,1,-10,1,-13,1,-18,1,-78,1,-18,1
781,4,1,-20,1,-24,1,8,1,14,1,-22,1,-18,1,-11,1,-14,1,-19,1,-77,1,-17,1
782,4,1,-20,1,-24,1,8,1,14,1,-22,1,-17,1,-11,1,-14,1,-20,1,-75,1,-17,1
783,5,1,-20,1,-25,1,7,1,15,1,-22,1,-18,1,-11,1,-15,1,-20,1,-74,1,-17,1
784,3,1,-21,1,-24,1,9,1,13,1,-22,1,-16,1,-12,1,-16,1,-20,1,-73,1,-18,1
785,2,1,-22,1,-24,1,10,1,13,1,-23,1,-14,1,-11,1,-17,1,-19,1,-72,1,-20,1
786,3,1,-20,1,-23,1,8,1,13,1,-21,1,-13,1,-11,1,-18,1,-18,1,-70,1,-21,1
787,6,1,-17,1,-23,1,5,1,14,1,-20,1,-16,1,-11,1,-19,1,-17,1,-70,1,-22,1
788,6,1,-17,1,-23,1,5,1,14,1,-20,1,-17,1,-12,1,-21,1,-18,1,-72,1,-24,1
789,5,1,-18,1,-23,1,6,1,14,1,-20,1,-20,1,-13,1,-23,1,-19,1,-73,1,-26,1
790,6,1,-19,1,-25,1,6,1,15,1,-22,1,-21,1,-13,1,-21,1,-19,1,-73,1,-25,1
791,6,1,-20,1,-26,1,7,1,16,1,-23,1,-18,1,-13,1,-21,1,-19,1,-72,1,-25,1
792,6,1,-19,1,-25,1,6,1,15,1,-22,1,-18,1,-12,1,-20,1,-19,1,-70,1,-23,1
793,7,1,-16,1,-23,1,4,1,15,1,-19,1,-18,1,-12,1,-20,1,-18,1,-67,1,-20,1
794,8,1,-15,1,-23,1,3,1,15,1,-19,1,-19,1,-13,1,-20,1,-16,1,-65,1,-19,1
795,7,1,-14,1,-21,1,3,1,14,1,-17,1,-19,1,-13,1,-19,1,-15,1,-62,1,-18,1
796,4,1,-16,1,-20,1,6,1,12,1,-18,1,-20,1,-15,1,-19,1,-16,1,-62,1,-19,1
797,3,1,-18,1,-21,1,7,1,12,1,-19,1,-22,1,-15,1,-18,1,-17,1,-62,1,-18,1
798,5,1,-16,1,-21,1,5,1,13,1,-18,1,-24,1,-15,1,-16,1,-18,1,-61,1,-16,1
799,8,1,-16,1,-24,1,4,1,16,1,-20,1,-24,1,-14,1,-14,1,-17,1,-60,1,-15,1
800,9,1,-18,1,-27,1,4,1,18,1,-22,1,-23,1,-12,1,-13,1,-17,1,-60,1,-15,1
801,10,1,-20,1,-30,1,5,1,20,1,-25,1,-22,1,-11,1,-12,1,-17,1,-60,1,-16,1
802,10,1,-21,1,-31,1,5,1,20,1,-26,1,-20,1,-11,1,-12,1,-17,1,-60,1,-16,1
803,10,1,-21,1,-31,1,5,1,20,1,-26,1,-20,1,-12,1,-13,1,-17,1,-59,1,-18,1
804,10,1,-18,1,-28,1,4,1,19,1,-23,1,-19,1,-12,1,-15,1,-17,1,-59,1,-20,1
805,7,1,-16,1,-23,1,4,1,15,1,-19,1,-19,1,-14,1,-17,1,-19,1,-60,1,-22,1
806,6,1,-16,1,-22,1,5,1,14,1,-19,1,-19,1,-15,1,-17,1,-20,1,-60,1,-23,1
807,6,1,-15,1,-21,1,4,1,13,1,-18,1,-20,1,-15,1,-17,1,-20,1,-59,1,-24,1
808,6,1,-15,1,-21,1,4,1,13,1,-18,1,-22,1,-15,1,-19,1,-21,1,-60,1,-24,1
809,5,1,-17,1,-22,1,6,1,13,1,-19,1,-23,1,-16,1,-20,1,-22,1,-60,1,-25,1
810,6,1,-17,1,-23,1,5,1,14,1,-20,1,-24,1,-16,1,-21,1,-20,1,-58,1,-25,1
811,7,1,-15,1,-22,1,4,1,14,1,-18,1,-23,1,-16,1,-21,1,-19,1,-57,1,-26,1
812,7,1,-14,1,-21,1,3,1,14,1,-17,1,-24,1,-16,1,-20,1,-19,1,-57,1,-25,1
813,7,1,-15,1,-22,1,4,1,14,1,-18,1,-24,1,-16,1,-20,1,-20,1,-57,1,-24,1
814,8,1,-14,1,-22,1,3,1,15,1,-18,1,-25,1,-17,1,-18,1,-20,1,-54,1,-22,1
815,8,1,-14,1,-22,1,3,1,15,1,-18,1,-24,1,-16,1,-16,1,-20,1,-50,1,-20,1
816,5,1,-18,1,-23,1,6,1,14,1,-20,1,-23,1,-16,1,-15,1,-20,1,-49,1,-19,1
817,4,1,-19,1,-23,1,7,1,13,1,-21,1,-22,1,-15,1,-14,1,-21,1,-48,1,-19,1
818,3,1,-20,1,-23,1,8,1,13,1,-21,1,-20,1,-16,1,-14,1,-22,1,-48,1,-19,1
819,4,1,-18,1,-22,1,7,1,13,1,-20,1,-17,1,-14,1,-11,1,-21,1,-47,1,-19,1
820,6,1,-14,1,-20,1,4,1,13,1,-17,1,-13,1,-14,1,-10,1,-19,1,-47,1,-20,1
821,6,1,-10,1,-16,1,2,1,11,1,-13,1,-9,1,-14,1,-9,1,-17,1,-47,1,-22,1
822,4,1,-10,1,-14,1,3,1,9,1,-12,1,-8,1,-16,1,-8,1,-17,1,-48,1,-24,1
823,4,1,-7,1,-11,1,1,1,7,1,-9,1,-5,1,-18,1,-7,1,-17,1,-47,1,-23,1
824,5,1,-3,1,-8,1,-1,1,6,1,-5,1,-2,1,-19,1,-7,1,-17,1,-44,1,-20,1
825,6,1,-1,1,-7,1,-2,1,6,1,-4,1,0,1,-19,1,-6,1,-17,1,-43,1,-19,1
826,7,1,-1,1,-8,1,-3,1,7,1,-4,1,2,1,-18,1,-6,1,-17,1,-41,1,-18,1
827,6,1,-4,1,-10,1,-1,1,8,1,-7,1,3,1,-17,1,-6,1,-17,1,-41,1,-17,1
828,6,1,-4,1,-10,1,-1,1,8,1,-7,1,3,1,-16,1,-5,1,-16,1,-40,1,-15,1
829,9,1,-4,1,-13,1,-2,1,11,1,-8,1,2,1,-15,1,-4,1,-14,1,-39,1,-13,1
830,8,1,-8,1,-16,1,0,1,12,1,-12,1,0,1,-16,1,-4,1,-14,1,-38,1,-13,1
831,8,1,-9,1,-17,1,0,1,12,1,-13,1,0,1,-16,1,-4,1,-14,1,-37,1,-12,1
832,8,1,-11,1,-19,1,1,1,13,1,-15,1,-1,1,-17,1,-5,1,-15,1,-37,1,-14,1
833,8,1,-10,1,-18,1,1,1,13,1,-14,1,-1,1,-17,1,-7,1,-15,1,-36,1,-15,1
834,6,1,-9,1,-15,1,1,1,10,1,-12,1,-1,1,-18,1,-9,1,-16,1,-36,1,-18,1
835,8,1,-6,1,-14,1,-1,1,11,1,-10,1,0,1,-19,1,-10,1,-15,1,-34,1,-19,1
836,10,1,-3,1,-13,1,-3,1,11,1,-8,1,0,1,-19,1,-10,1,-14,1,-32,1,-18,1
837,10,1,-4,1,-14,1,-3,1,12,1,-9,1,-1,1,-20,1,-10,1,-14,1,-32,1,-18,1
838,10,1,-4,1,-14,1,-3,1,12,1,-9,1,-1,1,-19,1,-11,1,-15,1,-34,1,-18,1
839,12,1,-6,1,-18,1,-3,1,15,1,-12,1,-1,1,-19,1,-11,1,-15,1,-34,1,-18,1
840,11,1,-9,1,-20,1,-1,1,15,1,-14,1,-2,1,-20,1,-14,1,-16,1,-34,1,-17,1
841,11,1,-12,1,-23,1,0,1,17,1,-17,1,-3,1,-21,1,-16,1,-17,1,-34,1,-17,1
842,11,1,-14,1,-25,1,1,1,18,1,-19,1,-3,1,-22,1,-18,1,-19,1,-34,1,-16,1
843,12,1,-14,1,-26,1,1,1,19,1,-20,1,-1,1,-20,1,-17,1,-19,1,-34,1,-17,1
844,13,1,-13,1,-26,1,0,1,19,1,-19,1,2,1,-18,1,-15,1,-19,1,-32,1,-16,1
845,15,1,-10,1,-25,1,-2,1,20,1,-17,1,3,1,-16,1,-13,1,-17,1,-29,1,-15,1
846,18,1,-9,1,-27,1,-4,1,22,1,-18,1,3,1,-15,1,-11,1,-16,1,-26,1,-13,1
847,20,1,-13,1,-33,1,-3,1,26,1,-23,1,3,1,-15,1,-11,1,-17,1,-26,1,-13,1
848,21,1,-14,1,-35,1,-3,1,28,1,-24,1,4,1,-17,1,-11,1,-19,1,-26,1,-14,1
849,20,1,-16,1,-36,1,-2,1,28,1,-26,1,4,1,-17,1,-11,1,-19,1,-26,1,-13,1
850,17,1,-20,1,-37,1,1,1,27,1,-28,1,3,1,-16,1,-9,1,-18,1,-25,1,-13,1
851,14,1,-21,1,-35,1,3,1,24,1,-28,1,3,1,-14,1,-7,1,-16,1,-24,1,-13,1
852,14,1,-22,1,-36,1,4,1,25,1,-29,1,2,1,-12,1,-4,1,-15,1,-23,1,-13,1
853,13,1,-23,1,-36,1,5,1,24,1,-29,1,3,1,-11,1,-1,1,-14,1,-22,1,-14,1
854,11,1,-22,1,-33,1,5,1,22,1,-27,1,3,1,-11,1,0,1,-13,1,-21,1,-15,1
855,9,1,-22,1,-31,1,6,1,20,1,-26,1,2,1,-11,1,-2,1,-14,1,-22,1,-16,1
856,9,1,-23,1,-32,1,7,1,20,1,-27,1,1,1,-13,1,-4,1,-15,1,-24,1,-18,1
857,8,1,-23,1,-31,1,7,1,19,1,-27,1,1,1,-14,1,-6,1,-16,1,-25,1,-17,1
858,8,1,-25,1,-33,1,8,1,20,1,-29,1,2,1,-13,1,-5,1,-15,1,-24,1,-15,1
859,8,1,-25,1,-33,1,8,1,20,1,-29,1,3,1,-12,1,-4,1,-14,1,-24,1,-14,1
860,6,1,-26,1,-32,1,10,1,19,1,-29,1,3,1,-12,1,-4,1,-15,1,-24,1,-17,1
861,6,1,-24,1,-30,1,9,1,18,1,-27,1,2,1,-13,1,-5,1,-15,1,-25,1,-20,1
862,9,1,-22,1,-31,1,6,1,20,1,-26,1,0,1,-12,1,-5,1,-16,1,-25,1,-23,1
863,11,1,-21,1,-32,1,5,1,21,1,-26,1,-1,1,-12,1,-5,1,-16,1,-23,1,-24,1
864,13,1,-20,1,-33,1,3,1,23,1,-26,1,-1,1,-10,1,-3,1,-16,1,-21,1,-21,1
865,11,1,-23,1,-34,1,6,1,22,1,-28,1,0,1,-10,1,-3,1,-16,1,-20,1,-19,1
866,8,1,-25,1,-33,1,8,1,20,1,-29,1,-1,1,-9,1,-4,1,-17,1,-21,1,-18,1
867,6,1,-26,1,-32,1,10,1,19,1,-29,1,-1,1,-9,1,-4,1,-17,1,-21,1,-18,1
868,6,1,-25,1,-31,1,9,1,18,1,-28,1,-2,1,-9,1,-4,1,-17,1,-20,1,-17,1
869,8,1,-23,1,-31,1,7,1,19,1,-27,1,-3,1,-9,1,-3,1,-16,1,-18,1,-17,1
870,8,1,-24,1,-32,1,8,1,20,1,-28,1,-4,1,-11,1,-3,1,-17,1,-17,1,-18,1
871,6,1,-25,1,-31,1,9,1,18,1,-28,1,-3,1,-13,1,-3,1,-19,1,-16,1,-18,1
872,6,1,-24,1,-30,1,9,1,18,1,-27,1,-2,1,-14,1,-3,1,-20,1,-15,1,-17,1
873,5,1,-24,1,-29,1,9,1,17,1,-26,1,-2,1,-15,1,-4,1,-20,1,-16,1,-17,1
874,3,1,-25,1,-28,1,11,1,15,1,-26,1,-4,1,-16,1,-5,1,-21,1,-18,1,-19,1
875,3,1,-25,1,-28,1,11,1,15,1,-26,1,-4,1,-16,1,-5,1,-21,1,-19,1,-22,1
876,2,1,-23,1,-25,1,10,1,13,1,-24,1,-3,1,-16,1,-6,1,-22,1,-20,1,-24,1
877,2,1,-21,1,-23,1,9,1,12,1,-22,1,-4,1,-17,1,-7,1,-22,1,-20,1,-25,1
878,3,1,-20,1,-23,1,8,1,13,1,-21,1,-5,1,-16,1,-5,1,-21,1,-20,1,-24,1
879,3,1,-20,1,-23,1,8,1,13,1,-21,1,-5,1,-15,1,-5,1,-21,1,-20,1,-22,1
880,3,1,-18,1,-21,1,7,1,12,1,-19,1,-6,1,-15,1,-4,1,-21,1,-19,1,-22,1
881,5,1,-18,1,-23,1,6,1,14,1,-20,1,-7,1,-15,1,-5,1,-21,1,-18,1,-23,1
882,6,1,-18,1,-24,1,6,1,15,1,-21,1,-7,1,-14,1,-5,1,-20,1,-16,1,-24,1
883,7,1,-19,1,-26,1,6,1,16,1,-22,1,-6,1,-13,1,-5,1,-20,1,-15,1,-23,1
884,7,1,-17,1,-24,1,5,1,15,1,-20,1,-6,1,-13,1,-6,1,-20,1,-14,1,-22,1
885,8,1,-14,1,-22,1,3,1,15,1,-18,1,-7,1,-12,1,-6,1,-20,1,-12,1,-20,1
886,8,1,-12,1,-20,1,2,1,14,1,-16,1,-7,1,-13,1,-7,1,-20,1,-13,1,-19,1
887,6,1,-13,1,-19,1,3,1,12,1,-16,1,-8,1,-13,1,-7,1,-20,1,-14,1,-20,1
888,6,1,-12,1,-18,1,3,1,12,1,-15,1,-8,1,-14,1,-8,1,-20,1,-16,1,-22,1
889,4,1,-12,1,-16,1,4,1,10,1,-14,1,-8,1,-15,1,-10,1,-21,1,-17,1,-24,1
890,2,1,-14,1,-16,1,6,1,9,1,-15,1,-8,1,-15,1,-11,1,-19,1,-15,1,-23,1
891,1,1,-16,1,-17,1,7,1,9,1,-16,1,-7,1,-15,1,-11,1,-19,1,-15,1,-23,1
892,0,1,-18,1,-18,1,9,1,9,1,-18,1,-7,1,-15,1,-11,1,-19,1,-13,1,-24,1
893,2,1,-16,1,-18,1,7,1,10,1,-17,1,-7,1,-15,1,-10,1,-17,1,-10,1,-23,1
894,3,1,-17,1,-20,1,7,1,11,1,-18,1,-6,1,-15,1,-8,1,-16,1,-9,1,-22,1
895,3,1,-15,1,-18,1,6,1,10,1,-16,1,-7,1,-16,1,-7,1,-17,1,-9,1,-22,1
896,4,1,-13,1,-17,1,4,1,10,1,-15,1,-7,1,-17,1,-6,1,-17,1,-9,1,-23,1
897,4,1,-12,1,-16,1,4,1,10,1,-14,1,-9,1,-17,1,-5,1,-17,1,-8,1,-23,1
898,5,1,-11,1,-16,1,3,1,10,1,-13,1,-8,1,-15,1,-4,1,-16,1,-7,1,-22,1
899,3,1,-14,1,-17,1,5,1,10,1,-15,1,-7,1,-15,1,-2,1,-15,1,-5,1,-22,1
900,3,1,-14,1,-17,1,5,1,10,1,-15,1,-8,1,-14,1,-2,1,-15,1,-5,1,-23,1
901,3,1,-12,1,-15,1,4,1,9,1,-13,1,-8,1,-15,1,-2,1,-15,1,-5,1,-25,1
902,0,1,-11,1,-11,1,5,1,5,1,-11,1,-9,1,-17,1,-3,1,-18,1,-7,1,-27,1
903,-3,1,-8,1,-5,1,5,1,1,1,-7,1,-10,1,-21,1,-7,1,-21,1,-10,1,-28,1
904,-5,1,0,1,5,1,2,1,-5,1,2,1,-11,1,-25,1,-10,1,-23,1,-11,1,-27,1
905,-7,1,9,1,16,1,-1,1,-11,1,12,1,-11,1,-28,1,-11,1,-23,1,-10,1,-25,1
906,-8,1,19,1,27,1,-5,1,-17,1,23,1,-12,1,-29,1,-5,1,-19,1,-7,1,-21,1
907,-9,1,30,1,39,1,-10,1,-24,1,34,1,-12,1,-27,1,9,1,-5,1,1,1,-15,1
908,-8,1,42,1,50,1,-17,1,-29,1,46,1,-14,1,-24,1,35,1,21,1,18,1,-6,1
909,-5,1,55,1,60,1,-25,1,-32,1,57,1,-16,1,-19,1,69,1,57,1,41,1,6,1
910,-2,1,66,1,68,1,-32,1,-35,1,67,1,-16,1,-12,1,112,1,105,1,71,1,21,1
911,2,1,78,1,76,1,-40,1,-37,1,77,1,-17,1,-2,1,165,1,165,1,108,1,40,1
912,7,1,86,1,79,1,-46,1,-36,1,83,1,-15,1,14,1,229,1,235,1,151,1,60,1
913,12,1,91,1,79,1,-51,1,-33,1,85,1,-13,1,36,1,303,1,310,1,197,1,84,1
914,16,1,93,1,77,1,-54,1,-30,1,85,1,-11,1,62,1,379,1,381,1,245,1,109,1
915,22,1,88,1,66,1,-55,1,-22,1,77,1,-6,1,92,1,451,1,438,1,283,1,129,1
916,30,1,77,1,47,1,-53,1,-8,1,62,1,3,1,127,1,512,1,472,1,309,1,144,1
917,36,1,53,1,17,1,-44,1,10,1,35,1,15,1,161,1,552,1,479,1,315,1,146,1
918,39,1,24,1,-15,1,-31,1,27,1,5,1,24,1,180,1,550,1,454,1,301,1,138,1
919,41,1,2,1,-39,1,-21,1,40,1,-18,1,24,1,174,1,489,1,388,1,267,1,123,1
920,41,1,-15,1,-56,1,-13,1,48,1,-35,1,17,1,138,1,348,1,263,1,204,1,99,1
921,38,1,-31,1,-69,1,-3,1,53,1,-50,1,2,1,81,1,158,1,114,1,131,1,71,1
922,34,1,-46,1,-80,1,6,1,57,1,-63,1,-18,1,22,1,-17,1,-19,1,61,1,47,1
923,31,1,-57,1,-88,1,13,1,59,1,-72,1,-37,1,-23,1,-145,1,-121,1,2,1,23,1
924,29,1,-63,1,-92,1,17,1,60,1,-77,1,-55,1,-56,1,-225,1,-189,1,-44,1,3,1
925,25,1,-65,1,-90,1,20,1,57,1,-77,1,-71,1,-80,1,-273,1,-232,1,-80,1,-15,1
926,18,1,-60,1,-78,1,21,1,48,1,-69,1,-84,1,-99,1,-303,1,-258,1,-105,1,-32,1
927,12,1,-53,1,-65,1,20,1,38,1,-59,1,-95,1,-113,1,-318,1,-272,1,-123,1,-46,1
928,7,1,-47,1,-54,1,20,1,30,1,-50,1,-101,1,-120,1,-319,1,-274,1,-131,1,-55,1
929,3,1,-49,1,-52,1,23,1,27,1,-50,1,-99,1,-118,1,-308,1,-267,1,-135,1,-62,1
930,3,1,-57,1,-60,1,27,1,31,1,-58,1,-92,1,-107,1,-288,1,-255,1,-137,1,-69,1
931,3,1,-67,1,-70,1,32,1,36,1,-68,1,-82,1,-90,1,-263,1,-242,1,-137,1,-76,1
932,3,1,-75,1,-78,1,36,1,40,1,-76,1,-73,1,-71,1,-236,1,-225,1,-134,1,-80,1
933,4,1,-82,1,-86,1,39,1,45,1,-84,1,-68,1,-52,1,-209,1,-209,1,-130,1,-84,1
934,7,1,-87,1,-94,1,40,1,50,1,-90,1,-64,1,-38,1,-187,1,-193,1,-124,1,-85,1
935,10,1,-90,1,-100,1,40,1,55,1,-95,1,-62,1,-31,1,-173,1,-181,1,-117,1,-86,1
936,11,1,-93,1,-104,1,41,1,57,1,-98,1,-61,1,-26,1,-164,1,-170,1,-110,1,-86,1
937,12,1,-93,1,-105,1,40,1,58,1,-99,1,-61,1,-26,1,-157,1,-162,1,-103,1,-85,1
938,11,1,-93,1,-104,1,41,1,57,1,-98,1,-60,1,-29,1,-153,1,-154,1,-96,1,-84,1
939,11,1,-88,1,-99,1,38,1,55,1,-93,1,-58,1,-32,1,-146,1,-145,1,-90,1,-82,1
940,11,1,-78,1,-89,1,33,1,50,1,-83,1,-54,1,-34,1,-135,1,-134,1,-83,1,-78,1
941,12,1,-68,1,-80,1,28,1,46,1,-74,1,-51,1,-36,1,-122,1,-120,1,-74,1,-72,1
942,12,1,-59,1,-71,1,23,1,41,1,-65,1,-47,1,-37,1,-110,1,-108,1,-66,1,-66,1
943,11,1,-55,1,-66,1,22,1,38,1,-60,1,-44,1,-39,1,-99,1,-96,1,-59,1,-62,1
944,11,1,-52,1,-63,1,20,1,37,1,-57,1,-40,1,-39,1,-91,1,-87,1,-52,1,-59,1
945,11,1,-50,1,-61,1,19,1,36,1,-55,1,-37,1,-38,1,-84,1,-81,1,-48,1,-56,1
946,10,1,-50,1,-60,1,20,1,35,1,-55,1,-34,1,-37,1,-80,1,-77,1,-44,1,-55,1
947,8,1,-50,1,-58,1,21,1,33,1,-54,1,-31,1,-35,1,-74,1,-74,1,-39,1,-54,1
948,7,1,-47,1,-54,1,20,1,30,1,-50,1,-29,1,-33,1,-67,1,-69,1,-35,1,-52,1
949,6,1,-42,1,-48,1,18,1,27,1,-45,1,-27,1,-28,1,-58,1,-63,1,-30,1,-50,1
950,4,1,-35,1,-39,1,15,1,21,1,-37,1,-25,1,-24,1,-47,1,-55,1,-25,1,-46,1
951,1,1,-28,1,-29,1,13,1,15,1,-28,1,-24,1,-21,1,-35,1,-47,1,-21,1,-43,1
952,0,1,-20,1,-20,1,10,1,10,1,-20,1,-22,1,-19,1,-24,1,-39,1,-17,1,-40,1
953,2,1,-11,1,-13,1,4,1,7,1,-12,1,-21,1,-17,1,-16,1,-32,1,-13,1,-37,1
954,3,1,-5,1,-8,1,1,1,5,1,-6,1,-19,1,-15,1,-11,1,-27,1,-9,1,-34,1
955,4,1,-1,1,-5,1,-1,1,4,1,-3,1,-19,1,-13,1,-6,1,-23,1,-6,1,-32,1
956,3,1,0,1,-3,1,-1,1,3,1,-1,1,-19,1,-10,1,-3,1,-20,1,-3,1,-30,1
957,3,1,2,1,-1,1,-2,1,2,1,1,1,-19,1,-9,1,-2,1,-20,1,-2,1,-30,1
958,3,1,4,1,1,1,-3,1,1,1,3,1,-20,1,-8,1,-2,1,-19,1,0,1,-29,1
959,1,1,3,1,2,1,-2,1,0,1,3,1,-20,1,-8,1,0,1,-19,1,0,1,-29,1
960,1,1,4,1,3,1,-2,1,-1,1,4,1,-21,1,-10,1,1,1,-17,1,2,1,-30,1
961,2,1,5,1,3,1,-3,1,0,1,4,1,-21,1,-11,1,3,1,-15,1,3,1,-29,1
962,1,1,6,1,5,1,-3,1,-2,1,6,1,-23,1,-12,1,4,1,-15,1,5,1,-29,1
963,1,1,5,1,4,1,-3,1,-1,1,5,1,-24,1,-13,1,4,1,-13,1,5,1,-30,1
964,1,1,7,1,6,1,-4,1,-2,1,7,1,-24,1,-13,1,5,1,-12,1,7,1,-29,1
965,1,1,8,1,7,1,-4,1,-3,1,8,1,-25,1,-13,1,5,1,-11,1,9,1,-28,1
966,-1,1,5,1,6,1,-2,1,-3,1,5,1,-25,1,-13,1,5,1,-10,1,11,1,-28,1
967,-2,1,5,1,7,1,-1,1,-4,1,6,1,-25,1,-12,1,6,1,-9,1,11,1,-28,1
968,-2,1,6,1,8,1,-2,1,-5,1,7,1,-25,1,-11,1,6,1,-8,1,12,1,-28,1
969,-1,1,7,1,8,1,-3,1,-4,1,7,1,-25,1,-10,1,6,1,-7,1,12,1,-27,1
970,0,1,8,1,8,1,-4,1,-4,1,8,1,-24,1,-10,1,7,1,-7,1,13,1,-27,1
971,1,1,10,1,9,1,-5,1,-4,1,10,1,-24,1,-10,1,6,1,-8,1,12,1,-28,1
972,2,1,12,1,10,1,-7,1,-4,1,11,1,-24,1,-10,1,6,1,-8,1,12,1,-28,1
973,1,1,12,1,11,1,-6,1,-5,1,12,1,-23,1,-10,1,5,1,-7,1,13,1,-27,1
974,0,1,11,1,11,1,-5,1,-5,1,11,1,-23,1,-11,1,4,1,-6,1,14,1,-27,1
975,0,1,11,1,11,1,-5,1,-5,1,11,1,-23,1,-11,1,2,1,-5,1,14,1,-27,1
976,0,1,12,1,12,1,-6,1,-6,1,12,1,-23,1,-11,1,1,1,-4,1,15,1,-26,1
977,0,1,14,1,14,1,-7,1,-7,1,14,1,-24,1,-11,1,1,1,-3,1,15,1,-26,1
978,0,1,15,1,15,1,-7,1,-7,1,15,1,-25,1,-10,1,0,1,-3,1,15,1,-26,1
979,0,1,16,1,16,1,-8,1,-8,1,16,1,-26,1,-10,1,2,1,-2,1,15,1,-26,1
980,1,1,17,1,16,1,-9,1,-7,1,17,1,-26,1,-9,1,2,1,-2,1,16,1,-26,1
981,0,1,16,1,16,1,-8,1,-8,1,16,1,-26,1,-9,1,3,1,-3,1,16,1,-26,1
982,1,1,16,1,15,1,-8,1,-7,1,16,1,-25,1,-9,1,3,1,-3,1,17,1,-26,1
983,2,1,18,1,16,1,-10,1,-7,1,17,1,-25,1,-9,1,4,1,-3,1,17,1,-25,1
984,2,1,17,1,15,1,-9,1,-6,1,16,1,-25,1,-8,1,5,1,-3,1,17,1,-24,1
985,0,1,16,1,16,1,-8,1,-8,1,16,1,-25,1,-8,1,7,1,-3,1,17,1,-23,1
986,0,1,14,1,14,1,-7,1,-7,1,14,1,-26,1,-8,1,7,1,-3,1,17,1,-24,1
987,-1,1,14,1,15,1,-6,1,-8,1,14,1,-26,1,-7,1,8,1,-4,1,17,1,-23,1
988,-2,1,13,1,15,1,-5,1,-8,1,14,1,-27,1,-8,1,9,1,-4,1,16,1,-23,1
989,-1,1,13,1,14,1,-6,1,-7,1,13,1,-28,1,-7,1,9,1,-3,1,17,1,-23,1
990,0,1,14,1,14,1,-7,1,-7,1,14,1,-27,1,-7,1,10,1,-3,1,18,1,-23,1
991,0,1,14,1,14,1,-7,1,-7,1,14,1,-28,1,-8,1,10,1,-3,1,18,1,-23,1
992,2,1,16,1,14,1,-9,1,-6,1,15,1,-27,1,-7,1,10,1,-2,1,18,1,-23,1
993,4,1,20,1,16,1,-12,1,-6,1,18,1,-26,1,-5,1,10,1,-1,1,20,1,-22,1
994,4,1,22,1,18,1,-13,1,-7,1,20,1,-26,1,-6,1,9,1,0,1,20,1,-22,1
995,4,1,24,1,20,1,-14,1,-8,1,22,1,-26,1,-6,1,8,1,0,1,21,1,-21,1
996,4,1,23,1,19,1,-13,1,-7,1,21,1,-26,1,-6,1,8,1,0,1,20,1,-21,1
997,3,1,23,1,20,1,-13,1,-8,1,22,1,-26,1,-6,1,7,1,1,1,20,1,-21,1
998,5,1,24,1,19,1,-14,1,-7,1,22,1,-27,1,-5,1,6,1,2,1,19,1,-20,1
999,6,1,24,1,18,1,-15,1,-6,1,21,1,-27,1,-4,1,6,1,2,1,20,1,-20,1
1000,6,1,25,1,19,1,-15,1,-6,1,22,1,-27,1,-3,1,6,1,2,1,20,1,-19,1
1001,5,1,24,1,19,1,-14,1,-7,1,22,1,-27,1,-3,1,7,1,2,1,21,1,-19,1
1002,4,1,24,1,20,1,-14,1,-8,1,22,1,-27,1,-3,1,8,1,1,1,21,1,-19,1
1003,1,1,22,1,21,1,-11,1,-10,1,22,1,-27,1,-4,1,9,1,1,1,21,1,-20,1
1004,1,1,23,1,22,1,-12,1,-10,1,23,1,-27,1,-4,1,10,1,1,1,21,1,-19,1
1005,1,1,24,1,23,1,-12,1,-11,1,24,1,-26,1,-4,1,11,1,2,1,21,1,-19,1
1006,0,1,23,1,23,1,-11,1,-11,1,23,1,-26,1,-4,1,12,1,3,1,21,1,-19,1
1007,0,1,22,1,22,1,-11,1,-11,1,22,1,-26,1,-4,1,13,1,3,1,21,1,-19,1
1008,1,1,23,1,22,1,-12,1,-10,1,23,1,-25,1,-2,1,15,1,4,1,20,1,-17,1
1009,2,1,24,1,22,1,-13,1,-10,1,23,1,-23,1,-2,1,17,1,5,1,20,1,-16,1
1010,4,1,25,1,21,1,-14,1,-8,1,23,1,-21,1,-2,1,18,1,6,1,20,1,-16,1
1011,4,1,26,1,22,1,-15,1,-9,1,24,1,-18,1,-3,1,19,1,6,1,21,1,-15,1
1012,3,1,26,1,23,1,-14,1,-10,1,25,1,-14,1,-3,1,19,1,6,1,21,1,-15,1
1013,2,1,27,1,25,1,-14,1,-11,1,26,1,-11,1,-3,1,20,1,7,1,22,1,-14,1
1014,4,1,30,1,26,1,-17,1,-11,1,28,1,-8,1,-2,1,23,1,9,1,24,1,-13,1
1015,5,1,31,1,26,1,-18,1,-10,1,29,1,-5,1,-1,1,23,1,10,1,25,1,-13,1
1016,3,1,31,1,28,1,-17,1,-12,1,30,1,-2,1,-1,1,24,1,11,1,25,1,-13,1
1017,1,1,29,1,28,1,-15,1,-13,1,29,1,0,1,-1,1,24,1,12,1,25,1,-13,1
1018,0,1,28,1,28,1,-14,1,-14,1,28,1,2,1,-1,1,24,1,13,1,25,1,-13,1
1019,-2,1,28,1,30,1,-13,1,-16,1,29,1,4,1,-1,1,24,1,13,1,26,1,-12,1
1020,-1,1,28,1,29,1,-13,1,-15,1,28,1,6,1,-1,1,25,1,14,1,27,1,-12,1
1021,0,1,29,1,29,1,-14,1,-14,1,29,1,7,1,0,1,26,1,15,1,29,1,-10,1
1022,0,1,30,1,30,1,-15,1,-15,1,30,1,8,1,0,1,27,1,16,1,30,1,-9,1
1023,1,1,34,1,33,1,-17,1,-16,1,34,1,9,1,0,1,27,1,17,1,32,1,-8,1
1024,4,1,37,1,33,1,-20,1,-14,1,35,1,10,1,2,1,27,1,19,1,33,1,-6,1
1025,5,1,40,1,35,1,-22,1,-15,1,38,1,10,1,2,1,27,1,20,1,34,1,-6,1
1026,4,1,41,1,37,1,-22,1,-16,1,39,1,10,1,3,1,27,1,21,1,34,1,-4,1
1027,2,1,40,1,38,1,-21,1,-18,1,39,1,11,1,3,1,26,1,21,1,35,1,-4,1
1028,2,1,41,1,39,1,-21,1,-18,1,40,1,11,1,3,1,26,1,22,1,36,1,-3,1
1029,0,1,41,1,41,1,-20,1,-20,1,41,1,11,1,3,1,24,1,22,1,36,1,-2,1
1030,-1,1,41,1,42,1,-20,1,-21,1,41,1,11,1,1,1,24,1,23,1,36,1,-2,1
1031,-3,1,41,1,44,1,-19,1,-23,1,42,1,11,1,1,1,23,1,23,1,37,1,-2,1
1032,-2,1,41,1,43,1,-19,1,-22,1,42,1,11,1,0,1,23,1,24,1,38,1,-1,1
1033,-2,1,43,1,45,1,-20,1,-23,1,44,1,11,1,0,1,23,1,25,1,39,1,0,1
1034,-2,1,44,1,46,1,-21,1,-24,1,45,1,11,1,0,1,23,1,26,1,39,1,0,1
1035,-2,1,45,1,47,1,-21,1,-24,1,46,1,10,1,1,1,24,1,26,1,39,1,1,1
1036,-3,1,46,1,49,1,-21,1,-26,1,47,1,10,1,1,1,23,1,26,1,39,1,1,1
1037,-3,1,47,1,50,1,-22,1,-26,1,48,1,10,1,1,1,23,1,27,1,39,1,2,1
1038,-2,1,49,1,51,1,-23,1,-26,1,50,1,9,1,2,1,25,1,28,1,40,1,3,1
1039,-2,1,50,1,52,1,-24,1,-27,1,51,1,9,1,1,1,24,1,27,1,39,1,3,1
1040,-3,1,52,1,55,1,-24,1,-29,1,53,1,9,1,2,1,24,1,26,1,39,1,3,1
1041,-2,1,53,1,55,1,-25,1,-28,1,54,1,9,1,2,1,24,1,25,1,38,1,4,1
1042,-2,1,54,1,56,1,-26,1,-29,1,55,1,8,1,1,1,24,1,25,1,38,1,4,1
1043,-3,1,53,1,56,1,-25,1,-29,1,54,1,9,1,1,1,24,1,24,1,38,1,5,1
1044,-3,1,53,1,56,1,-25,1,-29,1,54,1,8,1,0,1,23,1,23,1,37,1,6,1
1045,-2,1,53,1,55,1,-25,1,-28,1,54,1,8,1,0,1,23,1,23,1,37,1,7,1
1046,-2,1,54,1,56,1,-26,1,-29,1,55,1,7,1,-1,1,22,1,22,1,37,1,7,1
1047,-1,1,55,1,56,1,-27,1,-28,1,55,1,7,1,-1,1,21,1,21,1,36,1,8,1
1048,0,1,56,1,56,1,-28,1,-28,1,56,1,6,1,-2,1,20,1,20,1,37,1,9,1
1049,0,1,55,1,55,1,-27,1,-27,1,55,1,6,1,-3,1,19,1,19,1,35,1,9,1
1050,0,1,57,1,57,1,-28,1,-28,1,57,1,4,1,-3,1,17,1,18,1,35,1,10,1
1051,0,1,57,1,57,1,-28,1,-28,1,57,1,3,1,-3,1,14,1,17,1,35,1,9,1
1052,-1,1,55,1,56,1,-27,1,-28,1,55,1,3,1,-4,1,12,1,16,1,35,1,9,1
1053,-2,1,54,1,56,1,-26,1,-29,1,55,1,2,1,-4,1,11,1,16,1,35,1,9,1
1054,-2,1,54,1,56,1,-26,1,-29,1,55,1,2,1,-4,1,9,1,16,1,35,1,9,1
1055,-1,1,54,1,55,1,-26,1,-28,1,54,1,1,1,-5,1,8,1,16,1,35,1,9,1
1056,-1,1,52,1,53,1,-25,1,-27,1,52,1,0,1,-4,1,6,1,15,1,35,1,8,1
1057,-1,1,48,1,49,1,-23,1,-25,1,48,1,0,1,-6,1,4,1,14,1,34,1,7,1
1058,-1,1,46,1,47,1,-22,1,-24,1,46,1,-1,1,-7,1,4,1,14,1,34,1,7,1
1059,-1,1,45,1,46,1,-22,1,-23,1,45,1,-1,1,-8,1,3,1,13,1,33,1,6,1
1060,0,1,45,1,45,1,-22,1,-22,1,45,1,-1,1,-8,1,2,1,13,1,32,1,5,1
1061,1,1,45,1,44,1,-23,1,-21,1,45,1,-2,1,-8,1,3,1,12,1,31,1,4,1
1062,3,1,44,1,41,1,-23,1,-19,1,43,1,-3,1,-8,1,3,1,11,1,31,1,3,1
1063,2,1,43,1,41,1,-22,1,-19,1,42,1,-5,1,-9,1,2,1,9,1,30,1,2,1
1064,2,1,41,1,39,1,-21,1,-18,1,40,1,-7,1,-8,1,2,1,8,1,29,1,2,1
1065,1,1,38,1,37,1,-19,1,-18,1,38,1,-7,1,-7,1,1,1,7,1,29,1,2,1
1066,1,1,36,1,35,1,-18,1,-17,1,36,1,-8,1,-6,1,1,1,6,1,29,1,2,1
1067,2,1,34,1,32,1,-18,1,-15,1,33,1,-8,1,-6,1,1,1,6,1,28,1,2,1
1068,3,1,31,1,28,1,-17,1,-12,1,30,1,-9,1,-5,1,1,1,5,1,27,1,1,1
1069,4,1,30,1,26,1,-17,1,-11,1,28,1,-9,1,-6,1,1,1,5,1,26,1,0,1
1070,5,1,29,1,24,1,-17,1,-9,1,27,1,-9,1,-6,1,0,1,4,1,26,1,0,1
1071,6,1,29,1,23,1,-17,1,-8,1,26,1,-9,1,-6,1,1,1,3,1,25,1,0,1
1072,4,1,26,1,22,1,-15,1,-9,1,24,1,-10,1,-6,1,0,1,1,1,22,1,-1,1
1073,4,1,24,1,20,1,-14,1,-8,1,22,1,-11,1,-7,1,-2,1,0,1,22,1,-2,1
1074,4,1,21,1,17,1,-12,1,-6,1,19,1,-11,1,-7,1,-2,1,-1,1,22,1,-2,1
1075,4,1,18,1,14,1,-11,1,-5,1,16,1,-11,1,-7,1,-3,1,-1,1,22,1,-3,1
1076,4,1,16,1,12,1,-10,1,-4,1,14,1,-11,1,-7,1,-4,1,-3,1,21,1,-4,1
1077,5,1,16,1,11,1,-10,1,-3,1,14,1,-12,1,-8,1,-5,1,-5,1,20,1,-5,1
1078,6,1,15,1,9,1,-10,1,-1,1,12,1,-12,1,-7,1,-7,1,-7,1,19,1,-6,1
1079,7,1,13,1,6,1,-10,1,1,1,10,1,-13,1,-6,1,-8,1,-7,1,19,1,-7,1
1080,7,1,12,1,5,1,-9,1,1,1,9,1,-13,1,-6,1,-10,1,-8,1,18,1,-7,1
1081,6,1,11,1,5,1,-8,1,1,1,8,1,-14,1,-6,1,-12,1,-9,1,17,1,-9,1
1082,6,1,11,1,5,1,-8,1,1,1,8,1,-13,1,-6,1,-13,1,-10,1,16,1,-9,1
1083,6,1,10,1,4,1,-8,1,1,1,7,1,-14,1,-6,1,-16,1,-12,1,15,1,-10,1
1084,6,1,8,1,2,1,-7,1,2,1,5,1,-14,1,-6,1,-18,1,-13,1,13,1,-10,1
1085,6,1,6,1,0,1,-6,1,3,1,3,1,-14,1,-5,1,-19,1,-14,1,13,1,-9,1
1086,6,1,5,1,-1,1,-5,1,4,1,2,1,-14,1,-5,1,-21,1,-15,1,12,1,-9,1
1087,6,1,4,1,-2,1,-5,1,4,1,1,1,-15,1,-6,1,-24,1,-17,1,11,1,-11,1
1088,6,1,3,1,-3,1,-4,1,5,1,0,1,-16,1,-7,1,-27,1,-19,1,11,1,-12,1
1089,6,1,3,1,-3,1,-4,1,5,1,0,1,-17,1,-7,1,-29,1,-20,1,11,1,-14,1
1090,7,1,4,1,-3,1,-5,1,5,1,1,1,-16,1,-8,1,-31,1,-21,1,11,1,-14,1
1091,7,1,3,1,-4,1,-5,1,6,1,0,1,-16,1,-8,1,-33,1,-22,1,10,1,-14,1
1092,7,1,4,1,-3,1,-5,1,5,1,1,1,-15,1,-8,1,-34,1,-24,1,9,1,-15,1
1093,9,1,5,1,-4,1,-7,1,7,1,1,1,-14,1,-7,1,-35,1,-25,1,8,1,-14,1
1094,8,1,2,1,-6,1,-5,1,7,1,-2,1,-14,1,-6,1,-36,1,-26,1,6,1,-14,1
1095,5,1,0,1,-5,1,-2,1,5,1,-2,1,-14,1,-6,1,-36,1,-27,1,5,1,-14,1
1096,4,1,-2,1,-6,1,-1,1,5,1,-4,1,-14,1,-6,1,-37,1,-28,1,3,1,-15,1
1097,4,1,-2,1,-6,1,-1,1,5,1,-4,1,-14,1,-6,1,-37,1,-29,1,2,1,-17,1
1098,4,1,-2,1,-6,1,-1,1,5,1,-4,1,-15,1,-6,1,-38,1,-30,1,1,1,-18,1
1099,5,1,-1,1,-6,1,-2,1,5,1,-3,1,-16,1,-7,1,-39,1,-31,1,1,1,-18,1
1100,6,1,-1,1,-7,1,-2,1,6,1,-4,1,-16,1,-7,1,-39,1,-31,1,1,1,-18,1
1101,6,1,-1,1,-7,1,-2,1,6,1,-4,1,-15,1,-6,1,-39,1,-32,1,1,1,-18,1
1102,6,1,-1,1,-7,1,-2,1,6,1,-4,1,-15,1,-6,1,-37,1,-32,1,0,1,-18,1
1103,6,1,0,1,-6,1,-3,1,6,1,-3,1,-14,1,-6,1,-37,1,-32,1,0,1,-18,1
1104,8,1,2,1,-6,1,-5,1,7,1,-2,1,-14,1,-6,1,-37,1,-32,1,0,1,-17,1
1105,8,1,3,1,-5,1,-5,1,7,1,-1,1,-15,1,-7,1,-38,1,-33,1,-1,1,-18,1
1106,7,1,3,1,-4,1,-5,1,6,1,0,1,-15,1,-8,1,-40,1,-34,1,-2,1,-18,1
1107,8,1,4,1,-4,1,-6,1,6,1,0,1,-16,1,-7,1,-40,1,-35,1,-2,1,-18,1
1108,10,1,3,1,-7,1,-6,1,9,1,-2,1,-15,1,-7,1,-41,1,-34,1,-1,1,-18,1
1109,11,1,3,1,-8,1,-7,1,10,1,-2,1,-14,1,-6,1,-41,1,-34,1,-1,1,-18,1
1110,11,1,3,1,-8,1,-7,1,10,1,-2,1,-14,1,-6,1,-41,1,-33,1,-1,1,-18,1
1111,10,1,2,1,-8,1,-6,1,9,1,-3,1,-14,1,-6,1,-42,1,-33,1,-1,1,-18,1
1112,8,1,0,1,-8,1,-4,1,8,1,-4,1,-15,1,-6,1,-42,1,-34,1,-1,1,-18,1
1113,2,1,-4,1,-6,1,1,1,4,1,-5,1,-16,1,-8,1,-44,1,-36,1,-3,1,-19,1
1114,0,1,-4,1,-4,1,2,1,2,1,-4,1,-17,1,-8,1,-44,1,-36,1,-2,1,-20,1
1115,0,1,-4,1,-4,1,2,1,2,1,-4,1,-17,1,-8,1,-44,1,-36,1,-1,1,-20,1
1116,-1,1,-3,1,-2,1,2,1,0,1,-3,1,-17,1,-8,1,-45,1,-36,1,-1,1,-19,1
1117,0,1,-2,1,-2,1,1,1,1,1,-2,1,-17,1,-8,1,-46,1,-35,1,0,1,-20,1
1118,3,1,-2,1,-5,1,0,1,4,1,-3,1,-17,1,-8,1,-46,1,-35,1,0,1,-19,1
1119,5,1,-3,1,-8,1,-1,1,6,1,-5,1,-18,1,-9,1,-46,1,-34,1,0,1,-19,1
1120,5,1,-4,1,-9,1,0,1,7,1,-6,1,-18,1,-9,1,-44,1,-33,1,0,1,-19,1
1121,6,1,-4,1,-10,1,-1,1,8,1,-7,1,-18,1,-8,1,-42,1,-32,1,1,1,-19,1
1122,6,1,-3,1,-9,1,-1,1,7,1,-6,1,-18,1,-7,1,-40,1,-31,1,0,1,-19,1
1123,6,1,-2,1,-8,1,-2,1,7,1,-5,1,-18,1,-7,1,-38,1,-30,1,0,1,-18,1
1124,5,1,-2,1,-7,1,-1,1,6,1,-4,1,-18,1,-6,1,-36,1,-29,1,0,1,-17,1
1125,2,1,-2,1,-4,1,0,1,3,1,-3,1,-20,1,-6,1,-34,1,-29,1,0,1,-17,1
1126,0,1,-4,1,-4,1,2,1,2,1,-4,1,-21,1,-5,1,-33,1,-28,1,0,1,-17,1
1127,0,1,-3,1,-3,1,1,1,1,1,-3,1,-20,1,-5,1,-31,1,-27,1,1,1,-16,1
1128,2,1,-2,1,-4,1,0,1,3,1,-3,1,-18,1,-5,1,-29,1,-25,1,3,1,-15,1
1129,4,1,-2,1,-6,1,-1,1,5,1,-4,1,-17,1,-5,1,-28,1,-24,1,4,1,-14,1
1130,4,1,-3,1,-7,1,0,1,5,1,-5,1,-17,1,-6,1,-27,1,-24,1,4,1,-14,1
1131,3,1,-4,1,-7,1,0,1,5,1,-5,1,-17,1,-7,1,-25,1,-23,1,4,1,-14,1
1132,3,1,-4,1,-7,1,0,1,5,1,-5,1,-17,1,-6,1,-23,1,-21,1,4,1,-13,1
1133,4,1,-2,1,-6,1,-1,1,5,1,-4,1,-16,1,-5,1,-21,1,-19,1,6,1,-12,1
1134,5,1,-1,1,-6,1,-2,1,5,1,-3,1,-16,1,-5,1,-19,1,-17,1,7,1,-12,1
1135,3,1,-1,1,-4,1,-1,1,3,1,-2,1,-16,1,-5,1,-19,1,-17,1,8,1,-12,1
1136,3,1,0,1,-3,1,-1,1,3,1,-1,1,-17,1,-5,1,-18,1,-16,1,8,1,-12,1
1137,4,1,0,1,-4,1,-2,1,4,1,-2,1,-17,1,-5,1,-17,1,-15,1,8,1,-11,1
1138,5,1,1,1,-4,1,-3,1,5,1,-1,1,-16,1,-4,1,-16,1,-14,1,8,1,-10,1
1139,5,1,0,1,-5,1,-2,1,5,1,-2,1,-16,1,-4,1,-15,1,-14,1,9,1,-9,1
1140,5,1,0,1,-5,1,-2,1,5,1,-2,1,-16,1,-4,1,-15,1,-13,1,9,1,-10,1
1141,6,1,1,1,-5,1,-3,1,6,1,-2,1,-17,1,-4,1,-15,1,-12,1,9,1,-10,1
1142,8,1,3,1,-5,1,-5,1,7,1,-1,1,-17,1,-3,1,-15,1,-11,1,10,1,-9,1
1143,8,1,4,1,-4,1,-6,1,6,1,0,1,-17,1,-3,1,-15,1,-9,1,12,1,-9,1
1144,5,1,1,1,-4,1,-3,1,5,1,-1,1,-18,1,-3,1,-15,1,-9,1,12,1,-9,1
1145,3,1,0,1,-3,1,-1,1,3,1,-1,1,-18,1,-3,1,-16,1,-8,1,12,1,-8,1
1146,4,1,1,1,-3,1,-2,1,4,1,-1,1,-18,1,-2,1,-15,1,-7,1,14,1,-7,1
1147,4,1,0,1,-4,1,-2,1,4,1,-2,1,-17,1,-1,1,-14,1,-6,1,15,1,-7,1
1148,5,1,0,1,-5,1,-2,1,5,1,-2,1,-17,1,-1,1,-14,1,-5,1,15,1,-7,1
1149,6,1,0,1,-6,1,-3,1,6,1,-3,1,-17,1,-1,1,-15,1,-4,1,15,1,-8,1
1150,8,1,1,1,-7,1,-4,1,8,1,-3,1,-16,1,-1,1,-13,1,-3,1,16,1,-7,1
1151,8,1,1,1,-7,1,-4,1,8,1,-3,1,-16,1,-1,1,-14,1,-3,1,16,1,-8,1
1152,6,1,0,1,-6,1,-3,1,6,1,-3,1,-16,1,0,1,-14,1,-3,1,16,1,-7,1
1153,5,1,-2,1,-7,1,-1,1,6,1,-4,1,-15,1,1,1,-14,1,-3,1,16,1,-6,1
1154,6,1,-1,1,-7,1,-2,1,6,1,-4,1,-15,1,2,1,-14,1,-3,1,17,1,-6,1
1155,4,1,-1,1,-5,1,-1,1,4,1,-3,1,-15,1,1,1,-16,1,-4,1,17,1,-5,1
1156,4,1,-2,1,-6,1,-1,1,5,1,-4,1,-15,1,1,1,-17,1,-4,1,16,1,-5,1
1157,4,1,-2,1,-6,1,-1,1,5,1,-4,1,-15,1,2,1,-18,1,-3,1,16,1,-4,1
1158,5,1,-1,1,-6,1,-2,1,5,1,-3,1,-15,1,1,1,-18,1,-2,1,16,1,-4,1
1159,6,1,0,1,-6,1,-3,1,6,1,-3,1,-15,1,0,1,-17,1,-2,1,15,1,-4,1
1160,7,1,0,1,-7,1,-3,1,7,1,-3,1,-15,1,0,1,-17,1,-1,1,15,1,-5,1
1161,8,1,0,1,-8,1,-4,1,8,1,-4,1,-14,1,0,1,-16,1,0,1,15,1,-5,1
1162,10,1,2,1,-8,1,-6,1,9,1,-3,1,-14,1,0,1,-15,1,0,1,15,1,-5,1
1163,12,1,3,1,-9,1,-7,1,11,1,-3,1,-13,1,0,1,-13,1,0,1,16,1,-5,1
1164,9,1,1,1,-8,1,-5,1,9,1,-3,1,-13,1,-1,1,-12,1,-1,1,15,1,-6,1
1165,5,1,0,1,-5,1,-2,1,5,1,-2,1,-13,1,-1,1,-11,1,-2,1,16,1,-5,1
1166,3,1,-1,1,-4,1,-1,1,3,1,-2,1,-13,1,-1,1,-11,1,-4,1,16,1,-5,1
1167,1,1,-2,1,-3,1,0,1,2,1,-2,1,-13,1,-2,1,-11,1,-4,1,15,1,-5,1
1168,3,1,-1,1,-4,1,-1,1,3,1,-2,1,-12,1,-1,1,-12,1,-3,1,15,1,-4,1
1169,6,1,1,1,-5,1,-3,1,6,1,-2,1,-12,1,-1,1,-12,1,-3,1,15,1,-4,1
1170,6,1,1,1,-5,1,-3,1,6,1,-2,1,-12,1,-2,1,-14,1,-4,1,14,1,-6,1
1171,5,1,-3,1,-8,1,-1,1,6,1,-5,1,-12,1,-3,1,-14,1,-5,1,12,1,-8,1
1172,4,1,-5,1,-9,1,0,1,6,1,-7,1,-13,1,-4,1,-15,1,-6,1,12,1,-9,1
1173,3,1,-5,1,-8,1,1,1,5,1,-6,1,-14,1,-3,1,-14,1,-6,1,13,1,-9,1
1174,3,1,-5,1,-8,1,1,1,5,1,-6,1,-14,1,-3,1,-14,1,-6,1,14,1,-9,1
1175,3,1,-3,1,-6,1,0,1,4,1,-4,1,-14,1,-2,1,-13,1,-6,1,14,1,-9,1
1176,5,1,0,1,-5,1,-2,1,5,1,-2,1,-13,1,-2,1,-12,1,-6,1,14,1,-8,1
1177,5,1,0,1,-5,1,-2,1,5,1,-2,1,-13,1,-2,1,-11,1,-6,1,15,1,-8,1
1178,5,1,0,1,-5,1,-2,1,5,1,-2,1,-12,1,-3,1,-9,1,-5,1,15,1,-8,1
1179,7,1,2,1,-5,1,-4,1,6,1,-1,1,-11,1,-2,1,-8,1,-4,1,16,1,-7,1
1180,7,1,1,1,-6,1,-4,1,7,1,-2,1,-11,1,-2,1,-7,1,-4,1,16,1,-7,1
1181,6,1,0,1,-6,1,-3,1,6,1,-3,1,-11,1,-3,1,-7,1,-4,1,14,1,-7,1
1182,5,1,-2,1,-7,1,-1,1,6,1,-4,1,-12,1,-4,1,-8,1,-5,1,13,1,-9,1
1183,6,1,-1,1,-7,1,-2,1,6,1,-4,1,-12,1,-5,1,-8,1,-5,1,13,1,-9,1
1184,8,1,-1,1,-9,1,-3,1,8,1,-5,1,-12,1,-4,1,-8,1,-5,1,14,1,-9,1
1185,7,1,-2,1,-9,1,-2,1,8,1,-5,1,-12,1,-4,1,-9,1,-6,1,14,1,-9,1
1186,7,1,-3,1,-10,1,-2,1,8,1,-6,1,-13,1,-4,1,-10,1,-6,1,14,1,-10,1
1187,6,1,-3,1,-9,1,-1,1,7,1,-6,1,-14,1,-4,1,-12,1,-7,1,13,1,-10,1
1188,5,1,-3,1,-8,1,-1,1,6,1,-5,1,-15,1,-5,1,-14,1,-9,1,13,1,-10,1
1189,5,1,-2,1,-7,1,-1,1,6,1,-4,1,-15,1,-5,1,-15,1,-9,1,12,1,-10,1
1190,5,1,-2,1,-7,1,-1,1,6,1,-4,1,-14,1,-6,1,-17,1,-10,1,11,1,-9,1
1191,5,1,0,1,-5,1,-2,1,5,1,-2,1,-13,1,-6,1,-17,1,-10,1,10,1,-9,1
1192,5,1,-1,1,-6,1,-2,1,5,1,-3,1,-13,1,-7,1,-18,1,-11,1,9,1,-9,1
1193,5,1,-3,1,-8,1,-1,1,6,1,-5,1,-14,1,-7,1,-19,1,-11,1,8,1,-9,1
1194,5,1,-3,1,-8,1,-1,1,6,1,-5,1,-15,1,-8,1,-19,1,-11,1,8,1,-10,1
1195,6,1,-1,1,-7,1,-2,1,6,1,-4,1,-14,1,-8,1,-18,1,-10,1,9,1,-10,1
1196,6,1,0,1,-6,1,-3,1,6,1,-3,1,-14,1,-9,1,-18,1,-10,1,9,1,-10,1
1197,5,1,-1,1,-6,1,-2,1,5,1,-3,1,-15,1,-9,1,-18,1,-10,1,9,1,-11,1
1198,5,1,0,1,-5,1,-2,1,5,1,-2,1,-14,1,-9,1,-17,1,-10,1,9,1,-11,1
1199,4,1,0,1,-4,1,-2,1,4,1,-2,1,-14,1,-9,1,-16,1,-10,1,10,1,-12,1
1200,3,1,0,1,-3,1,-1,1,3,1,-1,1,-13,1,-9,1,-15,1,-9,1,11,1,-12,1
1201,4,1,0,1,-4,1,-2,1,4,1,-2,1,-12,1,-8,1,-13,1,-9,1,11,1,-11,1
1202,4,1,-2,1,-6,1,-1,1,5,1,-4,1,-12,1,-9,1,-13,1,-11,1,10,1,-12,1
1203,4,1,-3,1,-7,1,0,1,5,1,-5,1,-12,1,-9,1,-13,1,-11,1,10,1,-12,1
1204,5,1,-3,1,-8,1,-1,1,6,1,-5,1,-12,1,-9,1,-12,1,-12,1,10,1,-12,1
1205,6,1,-2,1,-8,1,-2,1,7,1,-5,1,-11,1,-7,1,-11,1,-12,1,10,1,-11,1
1206,6,1,-2,1,-8,1,-2,1,7,1,-5,1,-10,1,-7,1,-12,1,-12,1,10,1,-11,1
1207,6,1,-3,1,-9,1,-1,1,7,1,-6,1,-9,1,-7,1,-12,1,-12,1,9,1,-11,1
1208,6,1,-2,1,-8,1,-2,1,7,1,-5,1,-9,1,-7,1,-13,1,-11,1,9,1,-10,1
1209,5,1,-2,1,-7,1,-1,1,6,1,-4,1,-9,1,-7,1,-13,1,-11,1,8,1,-10,1
1210,3,1,-2,1,-5,1,0,1,4,1,-3,1,-10,1,-8,1,-14,1,-12,1,7,1,-11,1
1211,2,1,-1,1,-3,1,0,1,2,1,-2,1,-9,1,-8,1,-13,1,-11,1,7,1,-11,1
1212,3,1,-1,1,-4,1,-1,1,3,1,-2,1,-9,1,-8,1,-13,1,-11,1,8,1,-11,1
1213,4,1,-1,1,-5,1,-1,1,4,1,-3,1,-10,1,-8,1,-13,1,-11,1,7,1,-12,1
1214,3,1,-3,1,-6,1,0,1,4,1,-4,1,-11,1,-7,1,-14,1,-12,1,7,1,-14,1
1215,4,1,-3,1,-7,1,0,1,5,1,-5,1,-10,1,-6,1,-14,1,-12,1,7,1,-14,1
1216,4,1,-3,1,-7,1,0,1,5,1,-5,1,-10,1,-6,1,-15,1,-13,1,6,1,-14,1
1217,4,1,-1,1,-5,1,-1,1,4,1,-3,1,-9,1,-5,1,-16,1,-14,1,6,1,-14,1
1218,6,1,1,1,-5,1,-3,1,6,1,-2,1,-9,1,-5,1,-17,1,-14,1,6,1,-14,1
1219,6,1,2,1,-4,1,-4,1,5,1,-1,1,-9,1,-5,1,-17,1,-13,1,6,1,-14,1
1220,5,1,1,1,-4,1,-3,1,5,1,-1,1,-10,1,-5,1,-18,1,-13,1,5,1,-14,1
1221,5,1,0,1,-5,1,-2,1,5,1,-2,1,-11,1,-6,1,-17,1,-13,1,5,1,-13,1
1222,4,1,0,1,-4,1,-2,1,4,1,-2,1,-11,1,-5,1,-16,1,-12,1,5,1,-13,1
1223,6,1,1,1,-5,1,-3,1,6,1,-2,1,-10,1,-5,1,-15,1,-11,1,6,1,-12,1
1224,7,1,1,1,-6,1,-4,1,7,1,-2,1,-10,1,-5,1,-15,1,-11,1,6,1,-12,1
1225,7,1,2,1,-5,1,-4,1,6,1,-1,1,-11,1,-6,1,-15,1,-11,1,6,1,-13,1
1226,6,1,3,1,-3,1,-4,1,5,1,0,1,-12,1,-7,1,-15,1,-11,1,6,1,-13,1
1227,4,1,3,1,-1,1,-3,1,3,1,1,1,-13,1,-8,1,-14,1,-11,1,6,1,-13,1
1228,3,1,3,1,0,1,-3,1,2,1,2,1,-12,1,-8,1,-13,1,-10,1,6,1,-12,1
1229,2,1,6,1,4,1,-4,1,-1,1,5,1,-12,1,-8,1,-12,1,-9,1,7,1,-10,1
1230,3,1,9,1,6,1,-6,1,-1,1,8,1,-12,1,-8,1,-12,1,-9,1,7,1,-10,1
1231,2,1,9,1,7,1,-5,1,-2,1,8,1,-11,1,-8,1,-11,1,-10,1,7,1,-10,1
1232,2,1,9,1,7,1,-5,1,-2,1,8,1,-8,1,-7,1,-10,1,-9,1,8,1,-9,1
1233,3,1,10,1,7,1,-6,1,-2,1,9,1,-5,1,-7,1,-8,1,-8,1,9,1,-8,1
1234,4,1,11,1,7,1,-7,1,-1,1,9,1,-2,1,-7,1,-7,1,-7,1,9,1,-8,1
1235,5,1,14,1,9,1,-9,1,-2,1,12,1,0,1,-7,1,-5,1,-5,1,11,1,-7,1
1236,6,1,18,1,12,1,-12,1,-3,1,15,1,1,1,-8,1,-3,1,-4,1,12,1,-6,1
1237,7,1,19,1,12,1,-13,1,-2,1,16,1,2,1,-8,1,-3,1,-4,1,13,1,-6,1
1238,6,1,19,1,13,1,-12,1,-3,1,16,1,3,1,-9,1,-4,1,-5,1,13,1,-6,1
1239,7,1,19,1,12,1,-13,1,-2,1,16,1,2,1,-9,1,-6,1,-6,1,13,1,-6,1
1240,9,1,18,1,9,1,-13,1,0,1,14,1,2,1,-9,1,-7,1,-6,1,13,1,-6,1
1241,11,1,20,1,9,1,-15,1,1,1,15,1,3,1,-8,1,-7,1,-5,1,13,1,-5,1
1242,9,1,18,1,9,1,-13,1,0,1,14,1,1,1,-9,1,-8,1,-5,1,13,1,-5,1
1243,8,1,15,1,7,1,-11,1,1,1,11,1,0,1,-10,1,-9,1,-5,1,12,1,-6,1
1244,8,1,15,1,7,1,-11,1,1,1,11,1,0,1,-11,1,-10,1,-6,1,12,1,-6,1
1245,6,1,13,1,7,1,-9,1,0,1,10,1,-2,1,-12,1,-12,1,-7,1,10,1,-7,1
1246,6,1,11,1,5,1,-8,1,1,1,8,1,-2,1,-13,1,-14,1,-8,1,10,1,-8,1
1247,5,1,11,1,6,1,-8,1,0,1,9,1,-2,1,-14,1,-16,1,-9,1,9,1,-8,1
1248,6,1,12,1,6,1,-9,1,0,1,9,1,-1,1,-14,1,-18,1,-11,1,8,1,-9,1
1249,8,1,10,1,2,1,-9,1,3,1,6,1,-1,1,-14,1,-19,1,-13,1,8,1,-10,1
1250,8,1,8,1,0,1,-8,1,4,1,4,1,0,1,-13,1,-18,1,-11,1,9,1,-9,1
1251,8,1,7,1,-1,1,-7,1,5,1,3,1,0,1,-13,1,-18,1,-11,1,9,1,-8,1
1252,9,1,5,1,-4,1,-7,1,7,1,1,1,-1,1,-13,1,-19,1,-11,1,8,1,-8,1
1253,9,1,5,1,-4,1,-7,1,7,1,1,1,-1,1,-12,1,-20,1,-10,1,8,1,-8,1
1254,8,1,4,1,-4,1,-6,1,6,1,0,1,0,1,-11,1,-19,1,-9,1,8,1,-7,1
1255,7,1,3,1,-4,1,-5,1,6,1,0,1,0,1,-10,1,-18,1,-9,1,9,1,-7,1
1256,7,1,3,1,-4,1,-5,1,6,1,0,1,0,1,-10,1,-18,1,-8,1,9,1,-7,1
1257,8,1,5,1,-3,1,-6,1,6,1,1,1,1,1,-9,1,-17,1,-8,1,9,1,-6,1
1258,8,1,4,1,-4,1,-6,1,6,1,0,1,2,1,-10,1,-18,1,-10,1,8,1,-7,1
1259,11,1,5,1,-6,1,-8,1,9,1,0,1,3,1,-10,1,-16,1,-11,1,9,1,-8,1
1260,11,1,5,1,-6,1,-8,1,9,1,0,1,4,1,-10,1,-15,1,-11,1,10,1,-8,1
1261,8,1,1,1,-7,1,-4,1,8,1,-3,1,2,1,-11,1,-15,1,-12,1,9,1,-9,1
1262,5,1,0,1,-5,1,-2,1,5,1,-2,1,2,1,-11,1,-15,1,-11,1,9,1,-11,1
1263,6,1,-1,1,-7,1,-2,1,6,1,-4,1,2,1,-10,1,-14,1,-10,1,9,1,-11,1
1264,5,1,-2,1,-7,1,-1,1,6,1,-4,1,2,1,-8,1,-14,1,-10,1,8,1,-10,1
1265,4,1,-4,1,-8,1,0,1,6,1,-6,1,2,1,-7,1,-13,1,-9,1,8,1,-9,1
1266,4,1,-6,1,-10,1,1,1,7,1,-8,1,1,1,-7,1,-13,1,-9,1,7,1,-9,1
1267,4,1,-7,1,-11,1,1,1,7,1,-9,1,1,1,-6,1,-13,1,-10,1,7,1,-9,1
1268,3,1,-7,1,-10,1,2,1,6,1,-8,1,2,1,-5,1,-13,1,-10,1,7,1,-9,1
1269,4,1,-8,1,-12,1,2,1,8,1,-10,1,2,1,-4,1,-12,1,-9,1,8,1,-8,1
1270,5,1,-8,1,-13,1,1,1,9,1,-10,1,2,1,-3,1,-12,1,-9,1,9,1,-9,1
1271,5,1,-8,1,-13,1,1,1,9,1,-10,1,2,1,-3,1,-13,1,-10,1,9,1,-10,1
1272,7,1,-9,1,-16,1,1,1,11,1,-12,1,1,1,-4,1,-15,1,-11,1,8,1,-11,1
1273,5,1,-10,1,-15,1,2,1,10,1,-12,1,1,1,-6,1,-18,1,-13,1,5,1,-13,1
1274,4,1,-10,1,-14,1,3,1,9,1,-12,1,1,1,-8,1,-21,1,-15,1,3,1,-15,1
1275,3,1,-10,1,-13,1,3,1,8,1,-11,1,0,1,-9,1,-21,1,-15,1,2,1,-15,1
1276,3,1,-10,1,-13,1,3,1,8,1,-11,1,1,1,-9,1,-22,1,-15,1,1,1,-16,1
1277,4,1,-11,1,-15,1,3,1,9,1,-13,1,1,1,-9,1,-23,1,-14,1,2,1,-16,1
1278,3,1,-11,1,-14,1,4,1,8,1,-12,1,1,1,-9,1,-23,1,-14,1,1,1,-16,1
1279,1,1,-13,1,-14,1,6,1,7,1,-13,1,0,1,-11,1,-23,1,-15,1,0,1,-16,1
1280,0,1,-13,1,-13,1,6,1,6,1,-13,1,0,1,-10,1,-23,1,-16,1,0,1,-16,1
1281,0,1,-13,1,-13,1,6,1,6,1,-13,1,0,1,-10,1,-21,1,-16,1,0,1,-16,1
1282,0,1,-11,1,-11,1,5,1,5,1,-11,1,1,1,-10,1,-20,1,-15,1,0,1,-15,1
1283,1,1,-11,1,-12,1,5,1,6,1,-11,1,1,1,-10,1,-17,1,-14,1,1,1,-14,1
1284,2,1,-11,1,-13,1,4,1,7,1,-12,1,2,1,-9,1,-16,1,-14,1,1,1,-14,1
1285,2,1,-14,1,-16,1,6,1,9,1,-15,1,2,1,-9,1,-15,1,-13,1,2,1,-14,1
1286,1,1,-15,1,-16,1,7,1,8,1,-15,1,2,1,-9,1,-14,1,-13,1,2,1,-14,1
1287,0,1,-16,1,-16,1,8,1,8,1,-16,1,1,1,-8,1,-13,1,-14,1,1,1,-15,1
1288,-1,1,-18,1,-17,1,9,1,8,1,-18,1,1,1,-8,1,-12,1,-14,1,1,1,-15,1
1289,0,1,-17,1,-17,1,8,1,8,1,-17,1,1,1,-8,1,-10,1,-13,1,1,1,-15,1
1290,2,1,-15,1,-17,1,6,1,9,1,-16,1,2,1,-6,1,-8,1,-12,1,2,1,-14,1
1291,3,1,-13,1,-16,1,5,1,9,1,-14,1,3,1,-5,1,-7,1,-11,1,3,1,-12,1
1292,6,1,-11,1,-17,1,2,1,11,1,-14,1,3,1,-4,1,-6,1,-11,1,4,1,-12,1
1293,7,1,-11,1,-18,1,2,1,12,1,-14,1,3,1,-4,1,-6,1,-11,1,4,1,-11,1
1294,6,1,-12,1,-18,1,3,1,12,1,-15,1,2,1,-4,1,-6,1,-11,1,4,1,-12,1
1295,3,1,-14,1,-17,1,5,1,10,1,-15,1,2,1,-5,1,-7,1,-11,1,3,1,-13,1
1296,3,1,-15,1,-18,1,6,1,10,1,-16,1,2,1,-6,1,-7,1,-11,1,3,1,-13,1
1297,1,1,-14,1,-15,1,6,1,8,1,-14,1,2,1,-5,1,-7,1,-9,1,4,1,-12,1
1298,0,1,-14,1,-14,1,7,1,7,1,-14,1,2,1,-6,1,-7,1,-9,1,4,1,-12,1
1299,-1,1,-14,1,-13,1,7,1,6,1,-14,1,2,1,-6,1,-8,1,-9,1,4,1,-12,1
1300,-1,1,-13,1,-12,1,7,1,5,1,-13,1,1,1,-6,1,-9,1,-10,1,3,1,-13,1
1301,-1,1,-13,1,-12,1,7,1,5,1,-13,1,0,1,-7,1,-9,1,-10,1,2,1,-12,1
1302,-2,1,-15,1,-13,1,8,1,5,1,-14,1,0,1,-6,1,-9,1,-10,1,1,1,-13,1
1303,0,1,-15,1,-15,1,7,1,7,1,-15,1,0,1,-6,1,-9,1,-9,1,2,1,-11,1
1304,1,1,-14,1,-15,1,6,1,8,1,-14,1,1,1,-6,1,-9,1,-9,1,2,1,-11,1
1305,2,1,-14,1,-16,1,6,1,9,1,-15,1,1,1,-6,1,-10,1,-9,1,2,1,-11,1
1306,2,1,-14,1,-16,1,6,1,9,1,-15,1,0,1,-6,1,-12,1,-9,1,1,1,-12,1
1307,0,1,-14,1,-14,1,7,1,7,1,-14,1,0,1,-7,1,-13,1,-9,1,1,1,-13,1
1308,-1,1,-13,1,-12,1,7,1,5,1,-13,1,0,1,-7,1,-13,1,-9,1,0,1,-13,1
1309,-3,1,-10,1,-7,1,6,1,2,1,-9,1,0,1,-10,1,-16,1,-12,1,-2,1,-14,1
1310,-5,1,-3,1,2,1,4,1,-4,1,-1,1,-1,1,-15,1,-21,1,-16,1,-5,1,-15,1
1311,-9,1,5,1,14,1,2,1,-11,1,9,1,-2,1,-18,1,-23,1,-18,1,-7,1,-15,1
1312,-13,1,14,1,27,1,0,1,-20,1,20,1,-1,1,-20,1,-21,1,-16,1,-7,1,-13,1
1313,-13,1,27,1,40,1,-7,1,-26,1,33,1,0,1,-20,1,-10,1,-7,1,-2,1,-8,1
1314,-12,1,40,1,52,1,-14,1,-32,1,46,1,2,1,-18,1,11,1,13,1,11,1,0,1
1315,-12,1,52,1,64,1,-20,1,-38,1,58,1,1,1,-16,1,40,1,43,1,31,1,11,1
1316,-11,1,63,1,74,1,-26,1,-42,1,68,1,1,1,-11,1,78,1,84,1,58,1,24,1
1317,-8,1,75,1,83,1,-33,1,-45,1,79,1,1,1,-4,1,124,1,137,1,93,1,42,1
1318,-5,1,86,1,91,1,-40,1,-48,1,88,1,0,1,5,1,176,1,200,1,134,1,62,1
1319,0,1,94,1,94,1,-47,1,-47,1,94,1,0,1,20,1,234,1,268,1,178,1,84,1
1320,6,1,102,1,96,1,-54,1,-45,1,99,1,0,1,40,1,300,1,341,1,226,1,111,1
1321,14,1,110,1,96,1,-62,1,-41,1,103,1,1,1,63,1,367,1,410,1,273,1,138,1
1322,21,1,106,1,85,1,-63,1,-32,1,96,1,2,1,88,1,427,1,462,1,310,1,159,1
1323,29,1,92,1,63,1,-60,1,-17,1,78,1,0,1,113,1,473,1,488,1,331,1,171,1
1324,36,1,67,1,31,1,-51,1,3,1,49,1,-1,1,135,1,499,1,489,1,332,1,174,1
1325,40,1,42,1,2,1,-41,1,19,1,22,1,-4,1,140,1,486,1,460,1,315,1,167,1
1326,40,1,22,1,-18,1,-31,1,29,1,2,1,-10,1,125,1,428,1,393,1,277,1,154,1
1327,38,1,6,1,-32,1,-22,1,35,1,-13,1,-20,1,89,1,302,1,269,1,211,1,129,1
1328,36,1,-3,1,-39,1,-16,1,37,1,-21,1,-37,1,31,1,121,1,117,1,133,1,102,1
1329,32,1,-10,1,-42,1,-11,1,37,1,-26,1,-60,1,-30,1,-55,1,-24,1,58,1,76,1
1330,27,1,-16,1,-43,1,-5,1,35,1,-29,1,-81,1,-81,1,-191,1,-135,1,-8,1,49,1
1331,20,1,-18,1,-38,1,-1,1,29,1,-28,1,-98,1,-120,1,-284,1,-211,1,-60,1,25,1
1332,12,1,-20,1,-32,1,4,1,22,1,-26,1,-111,1,-147,1,-338,1,-256,1,-97,1,6,1
1333,8,1,-22,1,-30,1,7,1,19,1,-26,1,-118,1,-160,1,-363,1,-278,1,-120,1,-9,1
1334,6,1,-29,1,-35,1,11,1,20,1,-32,1,-118,1,-160,1,-367,1,-285,1,-135,1,-20,1
1335,3,1,-37,1,-40,1,17,1,21,1,-38,1,-113,1,-154,1,-359,1,-284,1,-144,1,-30,1
1336,2,1,-48,1,-50,1,23,1,26,1,-49,1,-107,1,-142,1,-343,1,-279,1,-150,1,-40,1
1337,2,1,-60,1,-62,1,29,1,32,1,-61,1,-103,1,-128,1,-322,1,-269,1,-152,1,-49,1
1338,4,1,-70,1,-74,1,33,1,39,1,-72,1,-99,1,-114,1,-298,1,-255,1,-149,1,-55,1
1339,7,1,-78,1,-85,1,35,1,46,1,-81,1,-94,1,-96,1,-272,1,-237,1,-143,1,-59,1
1340,9,1,-85,1,-94,1,38,1,51,1,-89,1,-89,1,-79,1,-245,1,-218,1,-136,1,-63,1
1341,11,1,-93,1,-104,1,41,1,57,1,-98,1,-82,1,-64,1,-223,1,-200,1,-129,1,-65,1
1342,12,1,-99,1,-111,1,43,1,61,1,-105,1,-76,1,-54,1,-205,1,-186,1,-122,1,-68,1
1343,13,1,-100,1,-113,1,43,1,63,1,-106,1,-69,1,-47,1,-192,1,-174,1,-116,1,-68,1
1344,15,1,-94,1,-109,1,39,1,62,1,-101,1,-62,1,-43,1,-179,1,-162,1,-107,1,-66,1
1345,16,1,-86,1,-102,1,35,1,59,1,-94,1,-55,1,-43,1,-167,1,-150,1,-99,1,-63,1
1346,17,1,-77,1,-94,1,30,1,55,1,-85,1,-47,1,-41,1,-153,1,-138,1,-90,1,-60,1
1347,16,1,-72,1,-88,1,28,1,52,1,-80,1,-40,1,-38,1,-139,1,-126,1,-82,1,-56,1
1348,15,1,-67,1,-82,1,26,1,48,1,-74,1,-35,1,-34,1,-124,1,-113,1,-74,1,-54,1
1349,16,1,-62,1,-78,1,23,1,47,1,-70,1,-29,1,-27,1,-107,1,-99,1,-66,1,-50,1
1350,17,1,-60,1,-77,1,21,1,47,1,-68,1,-24,1,-21,1,-92,1,-87,1,-60,1,-47,1
1351,15,1,-59,1,-74,1,22,1,44,1,-66,1,-19,1,-15,1,-81,1,-78,1,-55,1,-46,1
1352,11,1,-57,1,-68,1,23,1,39,1,-62,1,-17,1,-12,1,-73,1,-71,1,-52,1,-44,1
1353,8,1,-53,1,-61,1,22,1,34,1,-57,1,-13,1,-9,1,-66,1,-65,1,-46,1,-41,1
1354,5,1,-47,1,-52,1,21,1,28,1,-49,1,-10,1,-5,1,-58,1,-57,1,-40,1,-37,1
1355,2,1,-41,1,-43,1,19,1,22,1,-42,1,-8,1,-1,1,-50,1,-51,1,-35,1,-33,1
1356,1,1,-32,1,-33,1,15,1,17,1,-32,1,-4,1,0,1,-43,1,-45,1,-30,1,-30,1
1357,0,1,-26,1,-26,1,13,1,13,1,-26,1,-1,1,1,1,-35,1,-38,1,-26,1,-27,1
1358,-1,1,-22,1,-21,1,11,1,10,1,-22,1,-1,1,2,1,-28,1,-32,1,-22,1,-26,1
1359,-2,1,-19,1,-17,1,10,1,7,1,-18,1,-1,1,4,1,-22,1,-26,1,-19,1,-25,1
1360,-3,1,-16,1,-13,1,9,1,5,1,-15,1,-2,1,4,1,-16,1,-22,1,-16,1,-24,1
1361,-3,1,-16,1,-13,1,9,1,5,1,-15,1,-1,1,5,1,-12,1,-17,1,-13,1,-21,1
1362,-5,1,-16,1,-11,1,10,1,3,1,-14,1,-1,1,4,1,-9,1,-16,1,-12,1,-21,1
1363,-5,1,-14,1,-9,1,9,1,2,1,-12,1,-2,1,4,1,-8,1,-15,1,-11,1,-20,1
1364,-5,1,-13,1,-8,1,9,1,1,1,-11,1,-2,1,2,1,-8,1,-15,1,-10,1,-20,1
1365,-6,1,-12,1,-6,1,9,1,0,1,-9,1,-4,1,0,1,-8,1,-15,1,-11,1,-20,1
1366,-7,1,-12,1,-5,1,9,1,-1,1,-9,1,-3,1,-1,1,-6,1,-13,1,-10,1,-19,1
1367,-7,1,-12,1,-5,1,9,1,-1,1,-9,1,-3,1,-1,1,-4,1,-11,1,-9,1,-18,1
1368,-5,1,-10,1,-5,1,7,1,0,1,-8,1,-2,1,0,1,-1,1,-9,1,-8,1,-18,1
1369,-6,1,-11,1,-5,1,8,1,-1,1,-8,1,-2,1,0,1,1,1,-8,1,-8,1,-18,1
1370,-6,1,-11,1,-5,1,8,1,-1,1,-8,1,-3,1,0,1,2,1,-7,1,-8,1,-18,1
1371,-4,1,-9,1,-5,1,6,1,0,1,-7,1,-1,1,0,1,4,1,-5,1,-6,1,-17,1
1372,-3,1,-7,1,-4,1,5,1,0,1,-6,1,-1,1,1,1,5,1,-5,1,-6,1,-17,1
1373,-2,1,-6,1,-4,1,4,1,1,1,-5,1,0,1,0,1,4,1,-6,1,-4,1,-17,1
1374,-2,1,-6,1,-4,1,4,1,1,1,-5,1,1,1,0,1,3,1,-5,1,-4,1,-17,1
1375,-2,1,-6,1,-4,1,4,1,1,1,-5,1,0,1,-1,1,2,1,-5,1,-5,1,-16,1
1376,-3,1,-5,1,-2,1,4,1,-1,1,-4,1,0,1,-1,1,1,1,-5,1,-6,1,-17,1
1377,-3,1,-4,1,-1,1,3,1,-1,1,-3,1,0,1,-1,1,1,1,-4,1,-6,1,-17,1
1378,-4,1,-4,1,0,1,4,1,-2,1,-2,1,0,1,-1,1,1,1,-4,1,-6,1,-17,1
1379,-5,1,-4,1,1,1,4,1,-3,1,-2,1,-1,1,-2,1,1,1,-4,1,-6,1,-17,1
1380,-4,1,-5,1,-1,1,4,1,-2,1,-3,1,0,1,-1,1,1,1,-3,1,-5,1,-17,1
1381,-4,1,-5,1,-1,1,4,1,-2,1,-3,1,1,1,-1,1,2,1,-3,1,-5,1,-16,1
1382,-3,1,-4,1,-1,1,3,1,-1,1,-3,1,1,1,0,1,1,1,-2,1,-5,1,-16,1
1383,-2,1,-4,1,-2,1,3,1,0,1,-3,1,2,1,0,1,0,1,-2,1,-5,1,-16,1
1384,-2,1,-4,1,-2,1,3,1,0,1,-3,1,1,1,0,1,0,1,-3,1,-6,1,-17,1
1385,-4,1,-5,1,-1,1,4,1,-2,1,-3,1,0,1,0,1,-1,1,-3,1,-7,1,-17,1
1386,-5,1,-6,1,-1,1,5,1,-2,1,-4,1,0,1,0,1,0,1,-2,1,-7,1,-16,1
1387,-5,1,-5,1,0,1,5,1,-3,1,-3,1,0,1,1,1,2,1,-2,1,-7,1,-16,1
1388,-5,1,-4,1,1,1,4,1,-3,1,-2,1,0,1,2,1,4,1,-1,1,-7,1,-16,1
1389,-6,1,-3,1,3,1,4,1,-5,1,0,1,0,1,2,1,5,1,-1,1,-7,1,-17,1
1390,-5,1,-2,1,3,1,3,1,-4,1,0,1,0,1,1,1,6,1,-1,1,-7,1,-18,1
1391,-4,1,-1,1,3,1,2,1,-4,1,1,1,-1,1,1,1,7,1,-1,1,-7,1,-18,1
1392,-1,1,0,1,1,1,0,1,-1,1,0,1,0,1,1,1,8,1,-1,1,-7,1,-17,1
1393,-1,1,0,1,1,1,0,1,-1,1,0,1,0,1,0,1,8,1,-1,1,-8,1,-17,1
1394,0,1,1,1,1,1,0,1,0,1,1,1,1,1,1,1,9,1,-1,1,-9,1,-16,1
1395,0,1,2,1,2,1,-1,1,-1,1,2,1,1,1,2,1,10,1,-1,1,-9,1,-16,1
1396,-3,1,0,1,3,1,1,1,-3,1,1,1,0,1,1,1,10,1,-1,1,-11,1,-17,1
1397,-5,1,-1,1,4,1,3,1,-5,1,1,1,-1,1,1,1,10,1,-2,1,-12,1,-17,1
1398,-7,1,-3,1,4,1,5,1,-6,1,0,1,-1,1,0,1,11,1,-3,1,-12,1,-17,1
1399,-9,1,-4,1,5,1,6,1,-7,1,0,1,-2,1,0,1,11,1,-3,1,-12,1,-17,1
1400,-8,1,-4,1,4,1,6,1,-6,1,0,1,-1,1,1,1,12,1,-2,1,-11,1,-17,1
1401,-8,1,-4,1,4,1,6,1,-6,1,0,1,-1,1,2,1,12,1,-1,1,-11,1,-17,1
1402,-7,1,-4,1,3,1,5,1,-5,1,-1,1,0,1,2,1,11,1,-1,1,-11,1,-17,1
1403,-7,1,-4,1,3,1,5,1,-5,1,-1,1,0,1,2,1,10,1,-1,1,-10,1,-17,1
1404,-5,1,-3,1,2,1,4,1,-4,1,-1,1,0,1,2,1,10,1,-1,1,-9,1,-17,1
1405,-2,1,0,1,2,1,1,1,-2,1,1,1,1,1,2,1,11,1,-1,1,-9,1,-17,1
1406,-2,1,1,1,3,1,0,1,-2,1,2,1,1,1,2,1,11,1,-1,1,-9,1,-16,1
1407,-3,1,0,1,3,1,1,1,-3,1,1,1,1,1,2,1,11,1,0,1,-10,1,-16,1
1408,-4,1,-1,1,3,1,2,1,-4,1,1,1,2,1,2,1,10,1,0,1,-10,1,-15,1
1409,-5,1,-2,1,3,1,3,1,-4,1,0,1,3,1,4,1,10,1,1,1,-9,1,-14,1
1410,-5,1,-2,1,3,1,3,1,-4,1,0,1,2,1,4,1,9,1,2,1,-9,1,-14,1
1411,-5,1,-1,1,4,1,3,1,-5,1,1,1,1,1,4,1,9,1,2,1,-10,1,-15,1
1412,-4,1,0,1,4,1,2,1,-4,1,2,1,2,1,4,1,10,1,2,1,-10,1,-15,1
1413,-3,1,2,1,5,1,0,1,-4,1,3,1,2,1,5,1,12,1,3,1,-10,1,-16,1
1414,-3,1,2,1,5,1,0,1,-4,1,3,1,3,1,5,1,13,1,3,1,-9,1,-16,1
1415,-4,1,0,1,4,1,2,1,-4,1,2,1,4,1,4,1,14,1,4,1,-9,1,-15,1
1416,-5,1,0,1,5,1,2,1,-5,1,2,1,4,1,3,1,14,1,3,1,-8,1,-14,1
1417,-5,1,1,1,6,1,2,1,-5,1,3,1,4,1,3,1,14,1,3,1,-8,1,-14,1
1418,-5,1,2,1,7,1,1,1,-6,1,4,1,5,1,4,1,15,1,4,1,-6,1,-13,1
1419,-4,1,5,1,9,1,0,1,-6,1,7,1,5,1,5,1,17,1,5,1,-6,1,-12,1
1420,-4,1,7,1,11,1,-1,1,-7,1,9,1,4,1,5,1,17,1,6,1,-6,1,-13,1
1421,-4,1,9,1,13,1,-2,1,-8,1,11,1,4,1,5,1,18,1,7,1,-6,1,-14,1
1422,-4,1,9,1,13,1,-2,1,-8,1,11,1,5,1,5,1,19,1,8,1,-5,1,-13,1
1423,-4,1,9,1,13,1,-2,1,-8,1,11,1,6,1,6,1,20,1,9,1,-5,1,-13,1
1424,-3,1,11,1,14,1,-4,1,-8,1,12,1,7,1,7,1,20,1,10,1,-2,1,-10,1
1425,-4,1,10,1,14,1,-3,1,-9,1,12,1,9,1,8,1,20,1,10,1,-1,1,-10,1
1426,-5,1,10,1,15,1,-2,1,-10,1,12,1,10,1,8,1,20,1,10,1,0,1,-10,1
1427,-5,1,12,1,17,1,-3,1,-11,1,14,1,10,1,8,1,21,1,11,1,0,1,-8,1
1428,-7,1,12,1,19,1,-2,1,-13,1,15,1,10,1,6,1,21,1,12,1,0,1,-8,1
1429,-8,1,12,1,20,1,-2,1,-14,1,16,1,10,1,6,1,21,1,12,1,0,1,-8,1
1430,-8,1,14,1,22,1,-3,1,-15,1,18,1,10,1,7,1,22,1,13,1,0,1,-7,1
1431,-7,1,15,1,22,1,-4,1,-14,1,18,1,11,1,8,1,22,1,15,1,0,1,-6,1
1432,-6,1,18,1,24,1,-6,1,-15,1,21,1,11,1,9,1,23,1,16,1,1,1,-5,1
1433,-6,1,20,1,26,1,-7,1,-16,1,23,1,11,1,9,1,25,1,18,1,2,1,-5,1
1434,-7,1,21,1,28,1,-7,1,-17,1,24,1,11,1,9,1,25,1,19,1,3,1,-5,1
1435,-9,1,20,1,29,1,-5,1,-19,1,24,1,12,1,8,1,25,1,19,1,3,1,-5,1
1436,-9,1,21,1,30,1,-6,1,-19,1,25,1,12,1,9,1,25,1,20,1,3,1,-4,1
1437,-9,1,23,1,32,1,-7,1,-20,1,27,1,12,1,9,1,25,1,22,1,5,1,-3,1
1438,-9,1,25,1,34,1,-8,1,-21,1,29,1,13,1,9,1,24,1,22,1,6,1,-2,1
1439,-9,1,26,1,35,1,-8,1,-22,1,30,1,12,1,8,1,24,1,22,1,7,1,-1,1
1440,-10,1,27,1,37,1,-8,1,-23,1,32,1,10,1,7,1,23,1,22,1,6,1,-1,1
1441,-11,1,27,1,38,1,-8,1,-24,1,32,1,9,1,6,1,23,1,22,1,6,1,-1,1
1442,-12,1,28,1,40,1,-8,1,-26,1,34,1,9,1,7,1,23,1,22,1,7,1,0,1
1443,-13,1,29,1,42,1,-8,1,-27,1,35,1,10,1,7,1,23,1,21,1,7,1,1,1
1444,-15,1,30,1,45,1,-7,1,-30,1,37,1,10,1,7,1,23,1,21,1,8,1,2,1
1445,-15,1,31,1,46,1,-8,1,-30,1,38,1,10,1,7,1,24,1,21,1,8,1,2,1
1446,-15,1,33,1,48,1,-9,1,-31,1,40,1,11,1,6,1,25,1,22,1,8,1,4,1
1447,-13,1,34,1,47,1,-10,1,-30,1,40,1,10,1,6,1,25,1,22,1,9,1,5,1
1448,-11,1,37,1,48,1,-13,1,-29,1,42,1,9,1,5,1,25,1,23,1,10,1,6,1
1449,-11,1,39,1,50,1,-14,1,-30,1,44,1,7,1,3,1,25,1,23,1,10,1,7,1
1450,-11,1,40,1,51,1,-14,1,-31,1,45,1,6,1,2,1,24,1,23,1,10,1,7,1
1451,-9,1,41,1,50,1,-16,1,-29,1,45,1,4,1,1,1,24,1,23,1,10,1,7,1
1452,-9,1,43,1,52,1,-17,1,-30,1,47,1,4,1,0,1,23,1,22,1,10,1,8,1
1453,-12,1,41,1,53,1,-14,1,-32,1,47,1,3,1,-1,1,21,1,21,1,9,1,7,1
1454,-14,1,41,1,55,1,-13,1,-34,1,48,1,3,1,-2,1,19,1,20,1,9,1,8,1
1455,-15,1,41,1,56,1,-13,1,-35,1,48,1,1,1,-3,1,17,1,19,1,7,1,8,1
1456,-17,1,41,1,58,1,-12,1,-37,1,49,1,0,1,-5,1,14,1,18,1,7,1,8,1
1457,-16,1,43,1,59,1,-13,1,-37,1,51,1,-2,1,-6,1,12,1,16,1,5,1,8,1
1458,-15,1,43,1,58,1,-14,1,-36,1,50,1,-4,1,-8,1,11,1,15,1,6,1,9,1
1459,-13,1,44,1,57,1,-15,1,-35,1,50,1,-6,1,-9,1,11,1,15,1,7,1,10,1
1460,-12,1,43,1,55,1,-15,1,-33,1,49,1,-7,1,-9,1,11,1,15,1,8,1,10,1
1461,-10,1,43,1,53,1,-16,1,-31,1,48,1,-8,1,-10,1,11,1,15,1,8,1,10,1
1462,-9,1,41,1,50,1,-16,1,-29,1,45,1,-10,1,-11,1,10,1,15,1,7,1,9,1
1463,-11,1,40,1,51,1,-14,1,-31,1,45,1,-12,1,-11,1,10,1,15,1,7,1,9,1
1464,-11,1,38,1,49,1,-13,1,-30,1,43,1,-13,1,-11,1,11,1,14,1,7,1,9,1
1465,-12,1,37,1,49,1,-12,1,-30,1,43,1,-13,1,-12,1,11,1,14,1,7,1,9,1
1466,-11,1,37,1,48,1,-13,1,-29,1,42,1,-13,1,-12,1,12,1,14,1,7,1,10,1
1467,-10,1,36,1,46,1,-13,1,-28,1,41,1,-13,1,-12,1,13,1,13,1,7,1,10,1
1468,-10,1,35,1,45,1,-12,1,-27,1,40,1,-13,1,-12,1,13,1,12,1,6,1,9,1
1469,-9,1,34,1,43,1,-12,1,-26,1,38,1,-14,1,-13,1,13,1,11,1,5,1,8,1
1470,-7,1,34,1,41,1,-13,1,-24,1,37,1,-14,1,-13,1,14,1,11,1,5,1,6,1
1471,-5,1,33,1,38,1,-14,1,-21,1,35,1,-16,1,-12,1,14,1,10,1,4,1,5,1
1472,-5,1,29,1,34,1,-12,1,-19,1,31,1,-17,1,-13,1,13,1,10,1,3,1,4,1
1473,-4,1,27,1,31,1,-11,1,-17,1,29,1,-18,1,-12,1,13,1,9,1,3,1,2,1
1474,-5,1,24,1,29,1,-9,1,-17,1,26,1,-18,1,-13,1,12,1,7,1,1,1,1,1
1475,-6,1,22,1,28,1,-8,1,-17,1,25,1,-19,1,-13,1,11,1,6,1,1,1,1,1
1476,-6,1,20,1,26,1,-7,1,-16,1,23,1,-19,1,-12,1,10,1,6,1,2,1,0,1
1477,-4,1,20,1,24,1,-8,1,-14,1,22,1,-19,1,-12,1,9,1,5,1,2,1,0,1
1478,-2,1,20,1,22,1,-9,1,-12,1,21,1,-19,1,-12,1,8,1,3,1,1,1,-2,1
1479,-1,1,20,1,21,1,-9,1,-11,1,20,1,-19,1,-12,1,7,1,3,1,1,1,-3,1
1480,0,1,19,1,19,1,-9,1,-9,1,19,1,-18,1,-11,1,7,1,3,1,0,1,-3,1
1481,1,1,15,1,14,1,-8,1,-6,1,15,1,-17,1,-10,1,6,1,3,1,0,1,-3,1
1482,-1,1,9,1,10,1,-4,1,-5,1,9,1,-18,1,-11,1,5,1,1,1,-1,1,-4,1
1483,0,1,7,1,7,1,-3,1,-3,1,7,1,-17,1,-11,1,4,1,1,1,-3,1,-5,1
1484,0,1,6,1,6,1,-3,1,-3,1,6,1,-17,1,-11,1,2,1,0,1,-3,1,-5,1
1485,1,1,7,1,6,1,-4,1,-2,1,7,1,-16,1,-11,1,1,1,-1,1,-4,1,-6,1
1486,2,1,7,1,5,1,-4,1,-1,1,6,1,-17,1,-11,1,0,1,-2,1,-5,1,-7,1
1487,1,1,7,1,6,1,-4,1,-2,1,7,1,-16,1,-11,1,-1,1,-3,1,-5,1,-7,1
1488,3,1,8,1,5,1,-5,1,-1,1,7,1,-16,1,-11,1,-2,1,-4,1,-5,1,-8,1
1489,5,1,8,1,3,1,-6,1,1,1,6,1,-15,1,-11,1,-3,1,-5,1,-7,1,-8,1
1490,6,1,7,1,1,1,-6,1,3,1,4,1,-15,1,-11,1,-3,1,-5,1,-8,1,-8,1
1491,4,1,4,1,0,1,-4,1,2,1,2,1,-15,1,-12,1,-4,1,-6,1,-9,1,-8,1
1492,3,1,0,1,-3,1,-1,1,3,1,-1,1,-15,1,-13,1,-6,1,-7,1,-10,1,-9,1
1493,2,1,-1,1,-3,1,0,1,2,1,-2,1,-15,1,-13,1,-5,1,-9,1,-10,1,-10,1
1494,2,1,-3,1,-5,1,0,1,3,1,-4,1,-15,1,-14,1,-5,1,-10,1,-10,1,-11,1
1495,1,1,-4,1,-5,1,1,1,3,1,-4,1,-15,1,-14,1,-5,1,-11,1,-10,1,-13,1
1496,1,1,-3,1,-4,1,1,1,2,1,-3,1,-15,1,-14,1,-6,1,-12,1,-11,1,-13,1
1497,2,1,-3,1,-5,1,0,1,3,1,-4,1,-16,1,-15,1,-7,1,-13,1,-11,1,-14,1
1498,1,1,-4,1,-5,1,1,1,3,1,-4,1,-16,1,-15,1,-8,1,-14,1,-12,1,-15,1
1499,1,1,-6,1,-7,1,2,1,4,1,-6,1,-15,1,-15,1,-8,1,-15,1,-13,1,-15,1
1500,0,1,-5,1,-5,1,2,1,2,1,-5,1,-15,1,-15,1,-9,1,-15,1,-13,1,-15,1
1501,-1,1,-8,1,-7,1,4,1,3,1,-8,1,-15,1,-16,1,-10,1,-16,1,-14,1,-15,1
1502,-2,1,-9,1,-7,1,5,1,2,1,-8,1,-15,1,-16,1,-12,1,-17,1,-15,1,-15,1
1503,-1,1,-8,1,-7,1,4,1,3,1,-8,1,-14,1,-15,1,-12,1,-17,1,-14,1,-15,1
1504,1,1,-7,1,-8,1,3,1,4,1,-7,1,-14,1,-15,1,-12,1,-17,1,-14,1,-16,1
1505,2,1,-7,1,-9,1,2,1,5,1,-8,1,-15,1,-15,1,-12,1,-18,1,-13,1,-16,1
1506,2,1,-8,1,-10,1,3,1,6,1,-9,1,-16,1,-15,1,-13,1,-18,1,-14,1,-16,1
1507,2,1,-7,1,-9,1,2,1,5,1,-8,1,-16,1,-15,1,-14,1,-19,1,-14,1,-16,1
1508,4,1,-5,1,-9,1,0,1,6,1,-7,1,-15,1,-14,1,-14,1,-18,1,-14,1,-16,1
1509,6,1,-4,1,-10,1,-1,1,8,1,-7,1,-14,1,-13,1,-14,1,-17,1,-13,1,-16,1
1510,6,1,-4,1,-10,1,-1,1,8,1,-7,1,-13,1,-13,1,-15,1,-17,1,-13,1,-16,1
1511,4,1,-7,1,-11,1,1,1,7,1,-9,1,-13,1,-12,1,-17,1,-17,1,-13,1,-16,1
1512,2,1,-10,1,-12,1,4,1,7,1,-11,1,-12,1,-11,1,-18,1,-18,1,-14,1,-17,1
1513,1,1,-10,1,-11,1,4,1,6,1,-10,1,-12,1,-11,1,-19,1,-20,1,-14,1,-17,1
1514,1,1,-11,1,-12,1,5,1,6,1,-11,1,-11,1,-11,1,-20,1,-21,1,-14,1,-18,1
1515,0,1,-11,1,-11,1,5,1,5,1,-11,1,-10,1,-12,1,-20,1,-22,1,-13,1,-18,1
1516,0,1,-10,1,-10,1,5,1,5,1,-10,1,-11,1,-12,1,-20,1,-22,1,-12,1,-18,1
1517,0,1,-10,1,-10,1,5,1,5,1,-10,1,-11,1,-12,1,-21,1,-22,1,-13,1,-18,1
1518,0,1,-10,1,-10,1,5,1,5,1,-10,1,-10,1,-13,1,-21,1,-23,1,-13,1,-18,1
1519,0,1,-11,1,-11,1,5,1,5,1,-11,1,-10,1,-13,1,-22,1,-22,1,-13,1,-18,1
1520,-2,1,-12,1,-10,1,7,1,4,1,-11,1,-9,1,-13,1,-22,1,-23,1,-14,1,-18,1
1521,-2,1,-11,1,-9,1,6,1,3,1,-10,1,-8,1,-12,1,-21,1,-22,1,-14,1,-17,1
1522,-1,1,-10,1,-9,1,5,1,4,1,-10,1,-8,1,-10,1,-20,1,-22,1,-14,1,-17,1
1523,-2,1,-10,1,-8,1,6,1,3,1,-9,1,-8,1,-9,1,-20,1,-23,1,-15,1,-17,1
1524,-1,1,-10,1,-9,1,5,1,4,1,-10,1,-8,1,-8,1,-19,1,-23,1,-16,1,-18,1
1525,0,1,-10,1,-10,1,5,1,5,1,-10,1,-7,1,-7,1,-18,1,-23,1,-16,1,-18,1
1526,1,1,-10,1,-11,1,4,1,6,1,-10,1,-7,1,-7,1,-17,1,-24,1,-17,1,-18,1
1527,0,1,-9,1,-9,1,4,1,4,1,-9,1,-6,1,-7,1,-16,1,-24,1,-16,1,-18,1
1528,1,1,-8,1,-9,1,3,1,5,1,-8,1,-6,1,-7,1,-15,1,-24,1,-17,1,-19,1
1529,3,1,-7,1,-10,1,2,1,6,1,-8,1,-7,1,-8,1,-16,1,-25,1,-18,1,-20,1
1530,2,1,-7,1,-9,1,2,1,5,1,-8,1,-7,1,-8,1,-16,1,-25,1,-18,1,-19,1
1531,1,1,-9,1,-10,1,4,1,5,1,-9,1,-7,1,-8,1,-16,1,-24,1,-18,1,-19,1
1532,-1,1,-11,1,-10,1,6,1,4,1,-11,1,-7,1,-8,1,-17,1,-24,1,-19,1,-20,1
1533,-1,1,-11,1,-10,1,6,1,4,1,-11,1,-8,1,-8,1,-18,1,-25,1,-20,1,-21,1
1534,-1,1,-10,1,-9,1,5,1,4,1,-10,1,-7,1,-7,1,-19,1,-24,1,-20,1,-21,1
1535,-1,1,-10,1,-9,1,5,1,4,1,-10,1,-8,1,-6,1,-20,1,-24,1,-20,1,-21,1
1536,-3,1,-13,1,-10,1,8,1,3,1,-12,1,-7,1,-6,1,-21,1,-24,1,-21,1,-21,1
1537,-4,1,-14,1,-10,1,9,1,3,1,-12,1,-7,1,-6,1,-21,1,-23,1,-21,1,-21,1
1538,-4,1,-15,1,-11,1,9,1,3,1,-13,1,-7,1,-6,1,-22,1,-23,1,-20,1,-21,1
1539,-3,1,-14,1,-11,1,8,1,4,1,-13,1,-8,1,-7,1,-22,1,-23,1,-21,1,-21,1
1540,-3,1,-12,1,-9,1,7,1,3,1,-11,1,-8,1,-7,1,-22,1,-23,1,-22,1,-22,1
1541,-2,1,-11,1,-9,1,6,1,3,1,-10,1,-8,1,-7,1,-22,1,-24,1,-22,1,-22,1
1542,-1,1,-11,1,-10,1,6,1,4,1,-11,1,-8,1,-7,1,-21,1,-24,1,-22,1,-22,1
1543,-1,1,-11,1,-10,1,6,1,4,1,-11,1,-9,1,-7,1,-20,1,-25,1,-22,1,-22,1
1544,0,1,-9,1,-9,1,4,1,4,1,-9,1,-9,1,-6,1,-18,1,-24,1,-20,1,-22,1
1545,0,1,-7,1,-7,1,3,1,3,1,-7,1,-9,1,-5,1,-17,1,-24,1,-20,1,-22,1
1546,0,1,-7,1,-7,1,3,1,3,1,-7,1,-10,1,-5,1,-16,1,-23,1,-19,1,-22,1
1547,0,1,-6,1,-6,1,3,1,3,1,-6,1,-9,1,-4,1,-14,1,-22,1,-18,1,-21,1
1548,3,1,-5,1,-8,1,1,1,5,1,-6,1,-9,1,-3,1,-13,1,-21,1,-17,1,-20,1
1549,4,1,-6,1,-10,1,1,1,7,1,-8,1,-10,1,-3,1,-12,1,-21,1,-17,1,-20,1
1550,3,1,-8,1,-11,1,2,1,7,1,-9,1,-11,1,-4,1,-12,1,-21,1,-18,1,-20,1
1551,3,1,-9,1,-12,1,3,1,7,1,-10,1,-12,1,-4,1,-11,1,-20,1,-18,1,-19,1
1552,3,1,-8,1,-11,1,2,1,7,1,-9,1,-12,1,-4,1,-10,1,-19,1,-17,1,-19,1
1553,3,1,-7,1,-10,1,2,1,6,1,-8,1,-12,1,-3,1,-9,1,-18,1,-17,1,-19,1
1554,3,1,-8,1,-11,1,2,1,7,1,-9,1,-13,1,-3,1,-8,1,-18,1,-16,1,-18,1
1555,2,1,-9,1,-11,1,3,1,6,1,-10,1,-13,1,-2,1,-8,1,-18,1,-17,1,-18,1
1556,1,1,-8,1,-9,1,3,1,5,1,-8,1,-13,1,-2,1,-8,1,-18,1,-17,1,-18,1
1557,0,1,-10,1,-10,1,5,1,5,1,-10,1,-13,1,-2,1,-9,1,-18,1,-17,1,-19,1
1558,-1,1,-11,1,-10,1,6,1,4,1,-11,1,-14,1,-3,1,-10,1,-18,1,-18,1,-19,1
1559,0,1,-11,1,-11,1,5,1,5,1,-11,1,-14,1,-3,1,-10,1,-17,1,-16,1,-19,1
1560,1,1,-11,1,-12,1,5,1,6,1,-11,1,-15,1,-3,1,-9,1,-16,1,-15,1,-18,1
1561,1,1,-10,1,-11,1,4,1,6,1,-10,1,-15,1,-2,1,-9,1,-15,1,-14,1,-18,1
1562,1,1,-9,1,-10,1,4,1,5,1,-9,1,-16,1,-2,1,-9,1,-16,1,-14,1,-17,1
1563,2,1,-8,1,-10,1,3,1,6,1,-9,1,-16,1,-1,1,-9,1,-15,1,-13,1,-16,1
1564,3,1,-5,1,-8,1,1,1,5,1,-6,1,-16,1,-1,1,-8,1,-14,1,-12,1,-15,1
1565,3,1,-4,1,-7,1,0,1,5,1,-5,1,-16,1,-1,1,-8,1,-14,1,-12,1,-15,1
1566,3,1,-4,1,-7,1,0,1,5,1,-5,1,-16,1,-1,1,-8,1,-14,1,-13,1,-16,1
1567,4,1,-4,1,-8,1,0,1,6,1,-6,1,-17,1,-1,1,-9,1,-14,1,-14,1,-16,1
1568,3,1,-5,1,-8,1,1,1,5,1,-6,1,-17,1,-2,1,-11,1,-14,1,-14,1,-16,1
1569,3,1,-6,1,-9,1,1,1,6,1,-7,1,-15,1,-2,1,-11,1,-13,1,-12,1,-15,1
1570,2,1,-6,1,-8,1,2,1,5,1,-7,1,-13,1,-1,1,-10,1,-12,1,-9,1,-14,1
1571,2,1,-7,1,-9,1,2,1,5,1,-8,1,-12,1,-1,1,-10,1,-11,1,-7,1,-14,1
1572,3,1,-7,1,-10,1,2,1,6,1,-8,1,-11,1,-1,1,-10,1,-10,1,-6,1,-14,1
1573,3,1,-7,1,-10,1,2,1,6,1,-8,1,-11,1,-1,1,-10,1,-11,1,-7,1,-15,1
1574,2,1,-8,1,-10,1,3,1,6,1,-9,1,-12,1,-2,1,-10,1,-11,1,-7,1,-15,1
1575,2,1,-7,1,-9,1,2,1,5,1,-8,1,-11,1,-3,1,-10,1,-11,1,-7,1,-15,1
1576,2,1,-7,1,-9,1,2,1,5,1,-8,1,-9,1,-3,1,-10,1,-10,1,-6,1,-15,1
1577,3,1,-6,1,-9,1,1,1,6,1,-7,1,-8,1,-3,1,-9,1,-10,1,-6,1,-14,1
1578,4,1,-6,1,-10,1,1,1,7,1,-8,1,-7,1,-2,1,-7,1,-9,1,-5,1,-13,1
1579,5,1,-7,1,-12,1,1,1,8,1,-9,1,-7,1,-2,1,-6,1,-8,1,-3,1,-13,1
1580,6,1,-5,1,-11,1,0,1,8,1,-8,1,-6,1,-2,1,-6,1,-8,1,-3,1,-13,1
1581,8,1,-2,1,-10,1,-3,1,9,1,-6,1,-4,1,-1,1,-5,1,-8,1,-3,1,-13,1
1582,6,1,-4,1,-10,1,-1,1,8,1,-7,1,-4,1,-1,1,-4,1,-8,1,-3,1,-13,1
1583,5,1,-6,1,-11,1,0,1,8,1,-8,1,-3,1,-1,1,-4,1,-9,1,-3,1,-12,1
1584,5,1,-6,1,-11,1,0,1,8,1,-8,1,-2,1,-1,1,-4,1,-9,1,-3,1,-12,1
1585,3,1,-8,1,-11,1,2,1,7,1,-9,1,-2,1,-2,1,-6,1,-9,1,-4,1,-12,1
1586,0,1,-11,1,-11,1,5,1,5,1,-11,1,-2,1,-2,1,-7,1,-10,1,-5,1,-14,1
1587,0,1,-11,1,-11,1,5,1,5,1,-11,1,-2,1,-2,1,-9,1,-9,1,-5,1,-14,1
1588,1,1,-7,1,-8,1,3,1,4,1,-7,1,-2,1,-2,1,-9,1,-9,1,-5,1,-14,1
1589,2,1,-5,1,-7,1,1,1,4,1,-6,1,-2,1,-2,1,-10,1,-9,1,-5,1,-15,1
1590,2,1,-5,1,-7,1,1,1,4,1,-6,1,-3,1,-3,1,-8,1,-9,1,-5,1,-15,1
1591,2,1,-5,1,-7,1,1,1,4,1,-6,1,-3,1,-4,1,-8,1,-9,1,-5,1,-15,1
1592,1,1,-7,1,-8,1,3,1,4,1,-7,1,-3,1,-5,1,-9,1,-10,1,-6,1,-16,1
1593,2,1,-7,1,-9,1,2,1,5,1,-8,1,-4,1,-5,1,-8,1,-10,1,-7,1,-16,1
1594,3,1,-5,1,-8,1,1,1,5,1,-6,1,-2,1,-5,1,-6,1,-10,1,-6,1,-15,1
1595,4,1,-5,1,-9,1,0,1,6,1,-7,1,-2,1,-4,1,-6,1,-10,1,-7,1,-15,1
1596,4,1,-5,1,-9,1,0,1,6,1,-7,1,-1,1,-5,1,-6,1,-11,1,-8,1,-15,1
1597,4,1,-3,1,-7,1,0,1,5,1,-5,1,-1,1,-5,1,-5,1,-12,1,-7,1,-15,1
1598,6,1,-3,1,-9,1,-1,1,7,1,-6,1,-2,1,-5,1,-4,1,-12,1,-7,1,-15,1
1599,5,1,-4,1,-9,1,0,1,7,1,-6,1,-2,1,-5,1,-4,1,-12,1,-5,1,-16,1
1600,5,1,-4,1,-9,1,0,1,7,1,-6,1,-3,1,-5,1,-4,1,-12,1,-4,1,-15,1
1601,6,1,-2,1,-8,1,-2,1,7,1,-5,1,-1,1,-4,1,-3,1,-11,1,-4,1,-15,1
1602,7,1,-2,1,-9,1,-2,1,8,1,-5,1,-1,1,-5,1,-3,1,-11,1,-4,1,-15,1
1603,6,1,-1,1,-7,1,-2,1,6,1,-4,1,-1,1,-5,1,-4,1,-12,1,-6,1,-16,1
1604,5,1,-2,1,-7,1,-1,1,6,1,-4,1,0,1,-6,1,-5,1,-12,1,-6,1,-15,1
1605,5,1,-3,1,-8,1,-1,1,6,1,-5,1,0,1,-5,1,-7,1,-11,1,-7,1,-16,1
1606,6,1,-2,1,-8,1,-2,1,7,1,-5,1,1,1,-5,1,-8,1,-11,1,-7,1,-16,1
1607,5,1,-3,1,-8,1,-1,1,6,1,-5,1,0,1,-6,1,-10,1,-12,1,-7,1,-17,1
1608,5,1,-2,1,-7,1,-1,1,6,1,-4,1,0,1,-5,1,-11,1,-13,1,-6,1,-18,1
1609,5,1,-1,1,-6,1,-2,1,5,1,-3,1,0,1,-5,1,-12,1,-13,1,-6,1,-18,1
1610,5,1,-1,1,-6,1,-2,1,5,1,-3,1,0,1,-5,1,-12,1,-12,1,-6,1,-18,1
1611,4,1,-2,1,-6,1,-1,1,5,1,-4,1,0,1,-6,1,-13,1,-12,1,-5,1,-18,1
1612,5,1,-2,1,-7,1,-1,1,6,1,-4,1,0,1,-6,1,-13,1,-11,1,-5,1,-18,1
1613,5,1,-3,1,-8,1,-1,1,6,1,-5,1,0,1,-6,1,-13,1,-12,1,-5,1,-18,1
1614,5,1,-3,1,-8,1,-1,1,6,1,-5,1,0,1,-7,1,-12,1,-13,1,-6,1,-18,1
1615,6,1,-3,1,-9,1,-1,1,7,1,-6,1,0,1,-7,1,-11,1,-13,1,-7,1,-18,1
1616,5,1,-3,1,-8,1,-1,1,6,1,-5,1,-1,1,-7,1,-11,1,-14,1,-8,1,-18,1
1617,6,1,-2,1,-8,1,-2,1,7,1,-5,1,-1,1,-7,1,-10,1,-14,1,-8,1,-19,1
1618,7,1,-1,1,-8,1,-3,1,7,1,-4,1,-1,1,-8,1,-9,1,-13,1,-9,1,-19,1
1619,6,1,-2,1,-8,1,-2,1,7,1,-5,1,0,1,-8,1,-9,1,-13,1,-10,1,-19,1
1620,6,1,-2,1,-8,1,-2,1,7,1,-5,1,0,1,-8,1,-8,1,-13,1,-9,1,-19,1
1621,5,1,-2,1,-7,1,-1,1,6,1,-4,1,0,1,-8,1,-8,1,-13,1,-10,1,-19,1
1622,4,1,-3,1,-7,1,0,1,5,1,-5,1,-1,1,-7,1,-7,1,-13,1,-9,1,-20,1
1623,4,1,-3,1,-7,1,0,1,5,1,-5,1,-1,1,-8,1,-7,1,-13,1,-9,1,-20,1
1624,4,1,-1,1,-5,1,-1,1,4,1,-3,1,-1,1,-8,1,-7,1,-13,1,-9,1,-20,1
1625,4,1,-1,1,-5,1,-1,1,4,1,-3,1,-1,1,-8,1,-7,1,-14,1,-10,1,-21,1
1626,4,1,0,1,-4,1,-2,1,4,1,-2,1,-1,1,-9,1,-8,1,-15,1,-10,1,-21,1
1627,5,1,2,1,-3,1,-3,1,4,1,0,1,0,1,-8,1,-7,1,-15,1,-10,1,-21,1
1628,6,1,2,1,-4,1,-4,1,5,1,-1,1,1,1,-7,1,-6,1,-15,1,-9,1,-19,1
1629,7,1,2,1,-5,1,-4,1,6,1,-1,1,2,1,-7,1,-6,1,-15,1,-7,1,-17,1
1630,9,1,3,1,-6,1,-6,1,8,1,-1,1,2,1,-7,1,-5,1,-14,1,-7,1,-17,1
1631,8,1,2,1,-6,1,-5,1,7,1,-2,1,1,1,-7,1,-5,1,-14,1,-6,1,-17,1
1632,6,1,0,1,-6,1,-3,1,6,1,-3,1,0,1,-8,1,-6,1,-14,1,-6,1,-17,1
1633,4,1,-2,1,-6,1,-1,1,5,1,-4,1,0,1,-6,1,-6,1,-14,1,-6,1,-17,1
1634,4,1,-1,1,-5,1,-1,1,4,1,-3,1,0,1,-6,1,-6,1,-12,1,-5,1,-17,1
1635,5,1,1,1,-4,1,-3,1,5,1,-1,1,0,1,-6,1,-6,1,-12,1,-4,1,-17,1
1636,6,1,3,1,-3,1,-4,1,5,1,0,1,0,1,-6,1,-7,1,-12,1,-4,1,-17,1
1637,6,1,8,1,2,1,-7,1,2,1,5,1,1,1,-6,1,-8,1,-12,1,-5,1,-17,1
1638,7,1,11,1,4,1,-9,1,2,1,8,1,1,1,-7,1,-8,1,-11,1,-4,1,-17,1
1639,6,1,12,1,6,1,-9,1,0,1,9,1,2,1,-8,1,-8,1,-11,1,-4,1,-17,1
1640,5,1,12,1,7,1,-8,1,-1,1,10,1,1,1,-9,1,-9,1,-11,1,-4,1,-16,1
1641,5,1,13,1,8,1,-9,1,-1,1,11,1,1,1,-8,1,-9,1,-11,1,-4,1,-14,1
1642,6,1,12,1,6,1,-9,1,0,1,9,1,1,1,-8,1,-9,1,-10,1,-4,1,-14,1
1643,5,1,11,1,6,1,-8,1,0,1,9,1,0,1,-8,1,-9,1,-8,1,-3,1,-14,1
1644,5,1,11,1,6,1,-8,1,0,1,9,1,0,1,-8,1,-8,1,-7,1,-1,1,-14,1
1645,5,1,11,1,6,1,-8,1,0,1,9,1,-1,1,-7,1,-8,1,-6,1,-1,1,-14,1
1646,6,1,11,1,5,1,-8,1,1,1,8,1,-2,1,-7,1,-8,1,-6,1,-1,1,-15,1
1647,6,1,11,1,5,1,-8,1,1,1,8,1,-5,1,-8,1,-8,1,-7,1,-1,1,-15,1
1648,7,1,11,1,4,1,-9,1,2,1,8,1,-6,1,-8,1,-8,1,-8,1,-1,1,-14,1
1649,8,1,13,1,5,1,-10,1,2,1,9,1,-8,1,-9,1,-8,1,-9,1,-2,1,-14,1
1650,9,1,13,1,4,1,-11,1,3,1,9,1,-8,1,-9,1,-6,1,-9,1,-1,1,-13,1
1651,11,1,14,1,3,1,-12,1,4,1,9,1,-8,1,-9,1,-5,1,-8,1,-1,1,-12,1
1652,11,1,13,1,2,1,-12,1,5,1,8,1,-8,1,-10,1,-5,1,-8,1,0,1,-12,1
1653,11,1,12,1,1,1,-11,1,5,1,7,1,-8,1,-11,1,-5,1,-8,1,0,1,-12,1
1654,10,1,10,1,0,1,-10,1,5,1,5,1,-8,1,-11,1,-6,1,-8,1,0,1,-12,1
1655,8,1,7,1,-1,1,-7,1,5,1,3,1,-8,1,-11,1,-8,1,-9,1,-1,1,-13,1
1656,8,1,8,1,0,1,-8,1,4,1,4,1,-9,1,-11,1,-10,1,-10,1,-1,1,-13,1
1657,9,1,8,1,-1,1,-8,1,5,1,4,1,-9,1,-12,1,-11,1,-11,1,-1,1,-14,1
1658,10,1,8,1,-2,1,-9,1,6,1,3,1,-8,1,-12,1,-12,1,-11,1,-1,1,-15,1
1659,10,1,7,1,-3,1,-8,1,7,1,2,1,-8,1,-12,1,-13,1,-12,1,-1,1,-15,1
1660,9,1,5,1,-4,1,-7,1,7,1,1,1,-9,1,-12,1,-14,1,-13,1,-1,1,-15,1
1661,8,1,3,1,-5,1,-5,1,7,1,-1,1,-9,1,-13,1,-15,1,-14,1,-2,1,-15,1
1662,10,1,3,1,-7,1,-6,1,9,1,-2,1,-9,1,-12,1,-14,1,-13,1,-1,1,-13,1
1663,12,1,5,1,-7,1,-8,1,10,1,-1,1,-8,1,-10,1,-14,1,-13,1,-1,1,-12,1
1664,13,1,4,1,-9,1,-8,1,11,1,-2,1,-8,1,-10,1,-14,1,-13,1,-2,1,-12,1
1665,13,1,4,1,-9,1,-8,1,11,1,-2,1,-7,1,-11,1,-14,1,-13,1,-2,1,-13,1
1666,14,1,5,1,-9,1,-9,1,12,1,-2,1,-6,1,-11,1,-14,1,-13,1,-1,1,-14,1
1667,15,1,6,1,-9,1,-10,1,12,1,-1,1,-5,1,-10,1,-12,1,-11,1,0,1,-14,1
1668,13,1,6,1,-7,1,-9,1,10,1,0,1,-5,1,-10,1,-11,1,-11,1,0,1,-14,1
1669,10,1,4,1,-6,1,-7,1,8,1,-1,1,-4,1,-10,1,-10,1,-10,1,0,1,-15,1
1670,9,1,3,1,-6,1,-6,1,8,1,-1,1,-4,1,-10,1,-9,1,-10,1,0,1,-14,1
1671,9,1,3,1,-6,1,-6,1,8,1,-1,1,-4,1,-9,1,-8,1,-10,1,-1,1,-14,1
1672,9,1,2,1,-7,1,-5,1,8,1,-2,1,-4,1,-9,1,-6,1,-10,1,-2,1,-14,1
1673,8,1,1,1,-7,1,-4,1,8,1,-3,1,-4,1,-8,1,-6,1,-11,1,-1,1,-14,1
1674,9,1,0,1,-9,1,-4,1,9,1,-4,1,-2,1,-6,1,-5,1,-11,1,0,1,-14,1
1675,11,1,1,1,-10,1,-6,1,11,1,-4,1,-1,1,-4,1,-3,1,-10,1,0,1,-14,1
1676,13,1,3,1,-10,1,-8,1,12,1,-3,1,-1,1,-3,1,-3,1,-10,1,1,1,-14,1
1677,12,1,2,1,-10,1,-7,1,11,1,-4,1,-2,1,-3,1,-3,1,-10,1,1,1,-14,1
1678,8,1,-2,1,-10,1,-3,1,9,1,-6,1,-3,1,-4,1,-4,1,-12,1,0,1,-16,1
1679,6,1,-6,1,-12,1,0,1,9,1,-9,1,-3,1,-4,1,-4,1,-12,1,-1,1,-18,1
1680,7,1,-6,1,-13,1,0,1,10,1,-9,1,-2,1,-3,1,-3,1,-11,1,0,1,-16,1
1681,8,1,-5,1,-13,1,-1,1,10,1,-9,1,-1,1,-2,1,-4,1,-11,1,0,1,-16,1
1682,8,1,-5,1,-13,1,-1,1,10,1,-9,1,-1,1,-3,1,-4,1,-12,1,-1,1,-16,1
1683,7,1,-5,1,-12,1,-1,1,9,1,-8,1,-1,1,-6,1,-6,1,-14,1,-4,1,-18,1
1684,7,1,-4,1,-11,1,-1,1,9,1,-7,1,-1,1,-7,1,-9,1,-16,1,-4,1,-20,1
1685,5,1,-7,1,-12,1,1,1,8,1,-9,1,-1,1,-8,1,-10,1,-16,1,-5,1,-20,1
1686,3,1,-9,1,-12,1,3,1,7,1,-10,1,-1,1,-8,1,-12,1,-17,1,-5,1,-22,1
1687,1,1,-11,1,-12,1,5,1,6,1,-11,1,-1,1,-8,1,-13,1,-18,1,-4,1,-22,1
1688,1,1,-9,1,-10,1,4,1,5,1,-9,1,-1,1,-7,1,-13,1,-18,1,-4,1,-22,1
1689,2,1,-7,1,-9,1,2,1,5,1,-8,1,0,1,-7,1,-13,1,-17,1,-4,1,-21,1
1690,3,1,-7,1,-10,1,2,1,6,1,-8,1,-1,1,-7,1,-13,1,-15,1,-3,1,-21,1
1691,3,1,-7,1,-10,1,2,1,6,1,-8,1,-1,1,-8,1,-13,1,-14,1,-1,1,-20,1
1692,4,1,-7,1,-11,1,1,1,7,1,-9,1,0,1,-8,1,-13,1,-14,1,-1,1,-20,1
1693,3,1,-6,1,-9,1,1,1,6,1,-7,1,0,1,-8,1,-14,1,-14,1,-1,1,-20,1
1694,2,1,-7,1,-9,1,2,1,5,1,-8,1,0,1,-8,1,-14,1,-15,1,-2,1,-21,1
1695,3,1,-6,1,-9,1,1,1,6,1,-7,1,0,1,-7,1,-14,1,-16,1,-3,1,-22,1
1696,4,1,-7,1,-11,1,1,1,7,1,-9,1,0,1,-5,1,-13,1,-16,1,-3,1,-21,1
1697,3,1,-8,1,-11,1,2,1,7,1,-9,1,0,1,-4,1,-12,1,-16,1,-4,1,-21,1
1698,3,1,-8,1,-11,1,2,1,7,1,-9,1,0,1,-4,1,-12,1,-16,1,-3,1,-21,1
1699,3,1,-9,1,-12,1,3,1,7,1,-10,1,0,1,-4,1,-11,1,-15,1,-3,1,-21,1
1700,4,1,-7,1,-11,1,1,1,7,1,-9,1,0,1,-4,1,-11,1,-15,1,-2,1,-21,1
1701,6,1,-4,1,-10,1,-1,1,8,1,-7,1,-1,1,-5,1,-10,1,-15,1,-2,1,-22,1
1702,6,1,-3,1,-9,1,-1,1,7,1,-6,1,-2,1,-6,1,-9,1,-15,1,-2,1,-22,1
1703,7,1,-2,1,-9,1,-2,1,8,1,-5,1,-1,1,-6,1,-8,1,-14,1,-1,1,-21,1
1704,6,1,-3,1,-9,1,-1,1,7,1,-6,1,-1,1,-6,1,-8,1,-14,1,-1,1,-21,1
1705,3,1,-5,1,-8,1,1,1,5,1,-6,1,-1,1,-6,1,-8,1,-14,1,-2,1,-21,1
1706,2,1,-5,1,-7,1,1,1,4,1,-6,1,0,1,-6,1,-8,1,-14,1,-2,1,-21,1
1707,1,1,-7,1,-8,1,3,1,4,1,-7,1,0,1,-6,1,-9,1,-14,1,-2,1,-22,1
1708,1,1,-8,1,-9,1,3,1,5,1,-8,1,0,1,-6,1,-9,1,-14,1,-2,1,-22,1
1709,1,1,-9,1,-10,1,4,1,5,1,-9,1,1,1,-6,1,-10,1,-14,1,-2,1,-22,1
1710,0,1,-8,1,-8,1,4,1,4,1,-8,1,1,1,-5,1,-10,1,-14,1,-2,1,-21,1
1711,2,1,-6,1,-8,1,2,1,5,1,-7,1,1,1,-4,1,-10,1,-14,1,0,1,-20,1
1712,2,1,-5,1,-7,1,1,1,4,1,-6,1,1,1,-4,1,-9,1,-13,1,0,1,-19,1
1713,2,1,-4,1,-6,1,1,1,4,1,-5,1,1,1,-4,1,-10,1,-13,1,1,1,-19,1
1714,4,1,-4,1,-8,1,0,1,6,1,-6,1,1,1,-4,1,-10,1,-13,1,0,1,-19,1
1715,5,1,-4,1,-9,1,0,1,7,1,-6,1,1,1,-4,1,-10,1,-12,1,0,1,-19,1
1716,5,1,-5,1,-10,1,0,1,7,1,-7,1,1,1,-4,1,-10,1,-12,1,-1,1,-20,1
1717,3,1,-3,1,-6,1,0,1,4,1,-4,1,1,1,-6,1,-11,1,-13,1,-2,1,-21,1
1718,1,1,0,1,-1,1,0,1,1,1,0,1,1,1,-9,1,-15,1,-17,1,-5,1,-22,1
1719,-2,1,6,1,8,1,-2,1,-5,1,7,1,1,1,-14,1,-18,1,-20,1,-7,1,-24,1
1720,-4,1,17,1,21,1,-6,1,-12,1,19,1,1,1,-18,1,-18,1,-21,1,-6,1,-22,1
1721,-7,1,30,1,37,1,-11,1,-22,1,33,1,2,1,-19,1,-15,1,-18,1,-4,1,-20,1
1722,-10,1,41,1,51,1,-15,1,-30,1,46,1,2,1,-19,1,-5,1,-10,1,1,1,-17,1
1723,-11,1,53,1,64,1,-21,1,-37,1,58,1,1,1,-16,1,14,1,9,1,13,1,-9,1
1724,-10,1,65,1,75,1,-27,1,-42,1,70,1,1,1,-12,1,43,1,40,1,32,1,3,1
1725,-8,1,77,1,85,1,-34,1,-46,1,81,1,0,1,-6,1,81,1,81,1,58,1,18,1
1726,-5,1,89,1,94,1,-42,1,-49,1,91,1,0,1,1,1,128,1,135,1,93,1,36,1
1727,0,1,99,1,99,1,-49,1,-49,1,99,1,0,1,11,1,184,1,200,1,135,1,56,1
1728,4,1,106,1,102,1,-55,1,-49,1,104,1,1,1,27,1,248,1,272,1,183,1,78,1
1729,12,1,115,1,103,1,-63,1,-45,1,109,1,3,1,48,1,319,1,345,1,233,1,106,1
1730,20,1,120,1,100,1,-70,1,-40,1,110,1,6,1,74,1,392,1,414,1,282,1,132,1
1731,28,1,115,1,87,1,-71,1,-29,1,101,1,9,1,103,1,457,1,465,1,319,1,153,1
1732,36,1,98,1,62,1,-67,1,-13,1,80,1,10,1,133,1,506,1,491,1,338,1,165,1
1733,43,1,71,1,28,1,-57,1,8,1,50,1,8,1,156,1,528,1,487,1,335,1,166,1
1734,48,1,47,1,-1,1,-47,1,25,1,23,1,2,1,159,1,510,1,453,1,314,1,158,1
1735,50,1,29,1,-21,1,-39,1,36,1,4,1,-6,1,141,1,444,1,383,1,273,1,144,1
1736,49,1,14,1,-35,1,-31,1,42,1,-10,1,-16,1,100,1,306,1,256,1,205,1,120,1
1737,44,1,2,1,-42,1,-23,1,43,1,-20,1,-34,1,36,1,116,1,104,1,128,1,93,1
1738,39,1,-7,1,-46,1,-16,1,42,1,-26,1,-59,1,-29,1,-64,1,-34,1,55,1,67,1
1739,32,1,-14,1,-46,1,-9,1,39,1,-30,1,-82,1,-83,1,-202,1,-142,1,-7,1,42,1
1740,23,1,-16,1,-39,1,-3,1,31,1,-27,1,-100,1,-125,1,-292,1,-215,1,-58,1,17,1
1741,15,1,-14,1,-29,1,0,1,22,1,-21,1,-114,1,-154,1,-345,1,-259,1,-94,1,-2,1
1742,11,1,-15,1,-26,1,2,1,18,1,-20,1,-121,1,-166,1,-367,1,-281,1,-118,1,-18,1
1743,11,1,-19,1,-30,1,4,1,20,1,-24,1,-121,1,-164,1,-368,1,-286,1,-131,1,-29,1
1744,10,1,-26,1,-36,1,8,1,23,1,-31,1,-116,1,-156,1,-360,1,-284,1,-141,1,-39,1
1745,8,1,-38,1,-46,1,15,1,27,1,-42,1,-110,1,-143,1,-345,1,-280,1,-147,1,-50,1
1746,7,1,-53,1,-60,1,23,1,33,1,-56,1,-106,1,-129,1,-327,1,-271,1,-149,1,-58,1
1747,7,1,-63,1,-70,1,28,1,38,1,-66,1,-101,1,-115,1,-303,1,-256,1,-146,1,-64,1
1748,9,1,-72,1,-81,1,31,1,45,1,-76,1,-96,1,-97,1,-275,1,-237,1,-138,1,-66,1
1749,11,1,-79,1,-90,1,34,1,50,1,-84,1,-90,1,-80,1,-248,1,-217,1,-129,1,-68,1
1750,13,1,-87,1,-100,1,37,1,56,1,-93,1,-82,1,-66,1,-224,1,-199,1,-121,1,-70,1
1751,13,1,-92,1,-105,1,39,1,59,1,-98,1,-74,1,-55,1,-205,1,-184,1,-114,1,-72,1
1752,15,1,-91,1,-106,1,38,1,60,1,-98,1,-66,1,-47,1,-188,1,-170,1,-105,1,-71,1
1753,17,1,-86,1,-103,1,34,1,60,1,-94,1,-58,1,-44,1,-174,1,-157,1,-97,1,-68,1
1754,17,1,-80,1,-97,1,31,1,57,1,-88,1,-51,1,-43,1,-163,1,-148,1,-91,1,-66,1
1755,18,1,-73,1,-91,1,27,1,54,1,-82,1,-44,1,-41,1,-151,1,-138,1,-85,1,-63,1
1756,18,1,-67,1,-85,1,24,1,51,1,-76,1,-38,1,-39,1,-139,1,-127,1,-77,1,-61,1
1757,17,1,-62,1,-79,1,22,1,48,1,-70,1,-31,1,-35,1,-125,1,-114,1,-68,1,-58,1
1758,16,1,-58,1,-74,1,21,1,45,1,-66,1,-25,1,-29,1,-108,1,-101,1,-59,1,-54,1
1759,17,1,-53,1,-70,1,18,1,43,1,-61,1,-20,1,-23,1,-93,1,-89,1,-50,1,-50,1
1760,18,1,-49,1,-67,1,15,1,42,1,-58,1,-15,1,-16,1,-79,1,-77,1,-44,1,-47,1
1761,16,1,-45,1,-61,1,14,1,38,1,-53,1,-10,1,-11,1,-69,1,-69,1,-40,1,-44,1
1762,11,1,-43,1,-54,1,16,1,32,1,-48,1,-6,1,-8,1,-61,1,-64,1,-36,1,-42,1
1763,7,1,-37,1,-44,1,15,1,25,1,-40,1,-2,1,-3,1,-53,1,-57,1,-31,1,-40,1
1764,5,1,-32,1,-37,1,13,1,21,1,-34,1,2,1,0,1,-45,1,-51,1,-26,1,-37,1
1765,4,1,-28,1,-32,1,12,1,18,1,-30,1,4,1,2,1,-39,1,-45,1,-21,1,-35,1
1766,4,1,-22,1,-26,1,9,1,15,1,-24,1,5,1,3,1,-34,1,-39,1,-17,1,-33,1
1767,5,1,-15,1,-20,1,5,1,12,1,-17,1,6,1,4,1,-28,1,-33,1,-13,1,-31,1
1768,3,1,-12,1,-15,1,4,1,9,1,-13,1,6,1,4,1,-22,1,-27,1,-10,1,-29,1
1769,0,1,-11,1,-11,1,5,1,5,1,-11,1,6,1,5,1,-17,1,-21,1,-7,1,-25,1
1770,-2,1,-11,1,-9,1,6,1,3,1,-10,1,7,1,6,1,-12,1,-17,1,-5,1,-23,1
1771,-2,1,-11,1,-9,1,6,1,3,1,-10,1,8,1,7,1,-9,1,-13,1,-3,1,-21,1
1772,-1,1,-11,1,-10,1,6,1,4,1,-11,1,8,1,9,1,-8,1,-12,1,-2,1,-21,1
1773,-1,1,-10,1,-9,1,5,1,4,1,-10,1,8,1,9,1,-7,1,-12,1,-2,1,-20,1
1774,0,1,-8,1,-8,1,4,1,4,1,-8,1,9,1,8,1,-6,1,-11,1,-2,1,-21,1
1775,2,1,-7,1,-9,1,2,1,5,1,-8,1,9,1,7,1,-6,1,-11,1,-1,1,-20,1
1776,2,1,-6,1,-8,1,2,1,5,1,-7,1,9,1,6,1,-4,1,-10,1,0,1,-19,1
1777,2,1,-6,1,-8,1,2,1,5,1,-7,1,10,1,6,1,-2,1,-8,1,1,1,-18,1
1778,2,1,-6,1,-8,1,2,1,5,1,-7,1,11,1,6,1,0,1,-7,1,3,1,-17,1
1779,2,1,-6,1,-8,1,2,1,5,1,-7,1,10,1,5,1,2,1,-5,1,4,1,-17,1
1780,1,1,-6,1,-7,1,2,1,4,1,-6,1,9,1,5,1,3,1,-5,1,4,1,-17,1
1781,2,1,-3,1,-5,1,0,1,3,1,-4,1,10,1,6,1,4,1,-3,1,5,1,-15,1
1782,2,1,-2,1,-4,1,0,1,3,1,-3,1,11,1,7,1,5,1,-3,1,6,1,-15,1
1783,0,1,-4,1,-4,1,2,1,2,1,-4,1,10,1,6,1,4,1,-3,1,6,1,-16,1
1784,-1,1,-5,1,-4,1,3,1,1,1,-5,1,9,1,6,1,3,1,-4,1,7,1,-16,1
1785,0,1,-5,1,-5,1,2,1,2,1,-5,1,10,1,7,1,3,1,-3,1,8,1,-16,1
1786,2,1,-4,1,-6,1,1,1,4,1,-5,1,11,1,7,1,3,1,-3,1,8,1,-16,1
1787,3,1,-2,1,-5,1,0,1,4,1,-3,1,11,1,6,1,3,1,-3,1,8,1,-16,1
1788,4,1,-2,1,-6,1,-1,1,5,1,-4,1,11,1,6,1,3,1,-2,1,8,1,-15,1
1789,2,1,-2,1,-4,1,0,1,3,1,-3,1,9,1,6,1,2,1,-2,1,9,1,-16,1
1790,0,1,-4,1,-4,1,2,1,2,1,-4,1,8,1,6,1,1,1,-2,1,8,1,-17,1
1791,0,1,-4,1,-4,1,2,1,2,1,-4,1,8,1,6,1,1,1,-2,1,9,1,-17,1
1792,1,1,-3,1,-4,1,1,1,2,1,-3,1,9,1,6,1,0,1,-1,1,9,1,-17,1
1793,2,1,-1,1,-3,1,0,1,2,1,-2,1,9,1,7,1,0,1,0,1,9,1,-16,1
1794,2,1,-1,1,-3,1,0,1,2,1,-2,1,9,1,7,1,0,1,0,1,9,1,-16,1
1795,0,1,-3,1,-3,1,1,1,1,1,-3,1,9,1,6,1,-1,1,0,1,8,1,-16,1
1796,-1,1,-4,1,-3,1,2,1,1,1,-4,1,9,1,6,1,0,1,0,1,7,1,-16,1
1797,-1,1,-4,1,-3,1,2,1,1,1,-4,1,10,1,6,1,0,1,0,1,7,1,-16,1
1798,0,1,-3,1,-3,1,1,1,1,1,-3,1,9,1,6,1,1,1,0,1,8,1,-16,1
1799,0,1,-2,1,-2,1,1,1,1,1,-2,1,9,1,6,1,2,1,-1,1,9,1,-16,1
1800,2,1,0,1,-2,1,-1,1,2,1,-1,1,10,1,7,1,4,1,0,1,9,1,-16,1
1801,3,1,0,1,-3,1,-1,1,3,1,-1,1,10,1,8,1,5,1,0,1,8,1,-16,1
1802,4,1,0,1,-4,1,-2,1,4,1,-2,1,10,1,8,1,6,1,0,1,7,1,-16,1
1803,3,1,-1,1,-4,1,-1,1,3,1,-2,1,10,1,9,1,7,1,0,1,7,1,-15,1
1804,1,1,-2,1,-3,1,0,1,2,1,-2,1,11,1,9,1,8,1,1,1,8,1,-14,1
1805,2,1,-2,1,-4,1,0,1,3,1,-3,1,12,1,10,1,9,1,2,1,8,1,-13,1
1806,4,1,-1,1,-5,1,-1,1,4,1,-3,1,13,1,11,1,9,1,2,1,8,1,-13,1
1807,5,1,-1,1,-6,1,-2,1,5,1,-3,1,13,1,11,1,9,1,2,1,7,1,-13,1
1808,6,1,-1,1,-7,1,-2,1,6,1,-4,1,12,1,11,1,10,1,3,1,7,1,-12,1
1809,6,1,0,1,-6,1,-3,1,6,1,-3,1,13,1,12,1,11,1,4,1,7,1,-11,1
1810,6,1,0,1,-6,1,-3,1,6,1,-3,1,13,1,13,1,12,1,4,1,7,1,-11,1
1811,5,1,-2,1,-7,1,-1,1,6,1,-4,1,14,1,13,1,12,1,5,1,8,1,-11,1
1812,2,1,-4,1,-6,1,1,1,4,1,-5,1,13,1,12,1,11,1,4,1,7,1,-12,1
1813,1,1,-5,1,-6,1,2,1,3,1,-5,1,14,1,12,1,11,1,4,1,8,1,-11,1
1814,1,1,-5,1,-6,1,2,1,3,1,-5,1,14,1,12,1,12,1,4,1,8,1,-11,1
1815,2,1,-4,1,-6,1,1,1,4,1,-5,1,14,1,12,1,12,1,5,1,9,1,-11,1
1816,0,1,-4,1,-4,1,2,1,2,1,-4,1,14,1,12,1,12,1,4,1,9,1,-11,1
