TS,I,If,II,IIf,III,IIIf,aVR,aVRf,aVL,aVLf,aVF,aVFf,V1,V1f,V2,V2f,V3,V3f,V4,V4f,V5,V5f,V6,V6f
1,21,1,43,1,22,1,-32,1,0,1,33,1,-38,1,28,1,43,1,23,1,-3,1,16,1
2,20,1,39,1,19,1,-29,1,1,1,29,1,-38,1,28,1,43,1,25,1,-3,1,16,1
3,20,1,40,1,20,1,-30,1,0,1,30,1,-39,1,25,1,41,1,24,1,-3,1,16,1
4,19,1,41,1,22,1,-30,1,-1,1,32,1,-38,1,23,1,39,1,23,1,-4,1,15,1
5,20,1,40,1,20,1,-30,1,0,1,30,1,-38,1,22,1,39,1,23,1,-5,1,15,1
6,20,1,42,1,22,1,-31,1,-1,1,32,1,-35,1,23,1,40,1,24,1,-4,1,16,1
7,22,1,45,1,23,1,-33,1,0,1,34,1,-33,1,24,1,41,1,25,1,-3,1,17,1
8,22,1,46,1,24,1,-34,1,-1,1,35,1,-31,1,24,1,42,1,25,1,-2,1,17,1
9,21,1,47,1,26,1,-34,1,-2,1,37,1,-30,1,23,1,42,1,25,1,-2,1,17,1
10,22,1,44,1,22,1,-33,1,0,1,33,1,-28,1,22,1,40,1,24,1,-2,1,18,1
11,22,1,42,1,20,1,-32,1,1,1,31,1,-27,1,21,1,39,1,24,1,-3,1,17,1
12,21,1,40,1,19,1,-30,1,1,1,30,1,-24,1,22,1,39,1,23,1,-3,1,17,1
13,21,1,37,1,16,1,-29,1,3,1,27,1,-22,1,22,1,39,1,22,1,-3,1,16,1
14,22,1,35,1,13,1,-28,1,5,1,24,1,-22,1,20,1,37,1,21,1,-5,1,15,1
15,19,1,33,1,14,1,-26,1,3,1,24,1,-20,1,20,1,37,1,21,1,-6,1,14,1
16,17,1,32,1,15,1,-24,1,1,1,24,1,-18,1,22,1,38,1,21,1,-5,1,14,1
17,14,1,32,1,18,1,-23,1,-2,1,25,1,-17,1,18,1,34,1,18,1,-9,1,10,1
18,14,1,30,1,16,1,-22,1,-1,1,23,1,-15,1,17,1,34,1,18,1,-9,1,11,1
19,11,1,28,1,17,1,-19,1,-3,1,23,1,-12,1,18,1,34,1,19,1,-9,1,11,1
20,9,1,26,1,17,1,-17,1,-4,1,22,1,-11,1,18,1,34,1,18,1,-10,1,10,1
21,9,1,23,1,14,1,-16,1,-2,1,19,1,-10,1,18,1,32,1,17,1,-11,1,8,1
22,8,1,20,1,12,1,-14,1,-2,1,16,1,-10,1,18,1,31,1,15,1,-13,1,7,1
23,9,1,18,1,9,1,-13,1,0,1,14,1,-8,1,18,1,31,1,13,1,-13,1,5,1
24,8,1,15,1,7,1,-11,1,1,1,11,1,-4,1,17,1,31,1,13,1,-14,1,6,1
25,6,1,14,1,8,1,-10,1,-1,1,11,1,-4,1,16,1,28,1,11,1,-14,1,6,1
26,4,1,13,1,9,1,-8,1,-2,1,11,1,-2,1,16,1,28,1,10,1,-15,1,5,1
27,4,1,12,1,8,1,-8,1,-2,1,10,1,0,1,14,1,26,1,8,1,-16,1,4,1
28,4,1,12,1,8,1,-8,1,-2,1,10,1,0,1,13,1,25,1,7,1,-17,1,3,1
29,2,1,11,1,9,1,-6,1,-3,1,10,1,1,1,12,1,25,1,7,1,-18,1,3,1
30,1,1,10,1,9,1,-5,1,-4,1,10,1,2,1,12,1,25,1,6,1,-19,1,3,1
31,1,1,10,1,9,1,-5,1,-4,1,10,1,4,1,12,1,24,1,6,1,-20,1,3,1
32,1,1,9,1,8,1,-5,1,-3,1,9,1,6,1,12,1,23,1,5,1,-19,1,3,1
33,0,1,9,1,9,1,-4,1,-4,1,9,1,7,1,11,1,22,1,5,1,-19,1,3,1
34,1,1,10,1,9,1,-5,1,-4,1,10,1,7,1,9,1,21,1,3,1,-19,1,2,1
35,3,1,10,1,7,1,-6,1,-2,1,9,1,8,1,8,1,18,1,2,1,-20,1,1,1
36,1,1,8,1,7,1,-4,1,-3,1,8,1,9,1,8,1,18,1,1,1,-21,1,0,1
37,0,1,9,1,9,1,-4,1,-4,1,9,1,10,1,10,1,19,1,3,1,-20,1,1,1
38,0,1,9,1,9,1,-4,1,-4,1,9,1,8,1,10,1,20,1,3,1,-19,1,2,1
39,0,1,8,1,8,1,-4,1,-4,1,8,1,8,1,10,1,21,1,3,1,-19,1,3,1
40,0,1,7,1,7,1,-3,1,-3,1,7,1,8,1,9,1,20,1,1,1,-19,1,2,1
41,2,1,6,1,4,1,-4,1,-1,1,5,1,6,1,7,1,18,1,1,1,-20,1,1,1
42,1,1,5,1,4,1,-3,1,-1,1,5,1,8,1,7,1,18,1,1,1,-20,1,1,1
43,1,1,5,1,4,1,-3,1,-1,1,5,1,9,1,7,1,18,1,1,1,-21,1,1,1
44,0,1,6,1,6,1,-3,1,-3,1,6,1,8,1,6,1,19,1,1,1,-20,1,2,1
45,-1,1,4,1,5,1,-1,1,-3,1,4,1,7,1,5,1,17,1,1,1,-21,1,0,1
46,-2,1,5,1,7,1,-1,1,-4,1,6,1,7,1,5,1,17,1,1,1,-20,1,1,1
47,-1,1,5,1,6,1,-2,1,-3,1,5,1,5,1,5,1,16,1,0,1,-21,1,1,1
48,-2,1,5,1,7,1,-1,1,-4,1,6,1,1,1,5,1,18,1,1,1,-18,1,2,1
49,-3,1,5,1,8,1,-1,1,-5,1,6,1,1,1,6,1,17,1,0,1,-19,1,1,1
50,-2,1,4,1,6,1,-1,1,-4,1,5,1,0,1,5,1,17,1,-1,1,-21,1,0,1
51,-2,1,2,1,4,1,0,1,-3,1,3,1,0,1,5,1,16,1,-2,1,-24,1,-1,1
52,0,1,1,1,1,1,0,1,0,1,1,1,2,1,8,1,18,1,0,1,-22,1,-2,1
53,0,1,0,1,0,1,0,1,0,1,0,1,3,1,12,1,21,1,1,1,-22,1,-2,1
54,0,1,-1,1,-1,1,0,1,0,1,-1,1,4,1,17,1,24,1,3,1,-22,1,-3,1
55,4,1,-2,1,-6,1,-1,1,5,1,-4,1,5,1,21,1,28,1,6,1,-21,1,-2,1
56,7,1,-6,1,-13,1,0,1,10,1,-9,1,8,1,30,1,36,1,12,1,-18,1,-3,1
57,9,1,-9,1,-18,1,0,1,13,1,-13,1,12,1,43,1,47,1,19,1,-16,1,-2,1
58,11,1,-9,1,-20,1,-1,1,15,1,-14,1,17,1,56,1,59,1,27,1,-15,1,-2,1
59,14,1,-8,1,-22,1,-3,1,18,1,-15,1,29,1,74,1,76,1,39,1,-10,1,-1,1
60,16,1,-6,1,-22,1,-5,1,19,1,-14,1,36,1,94,1,96,1,55,1,-3,1,1,1
61,22,1,-3,1,-25,1,-9,1,23,1,-14,1,43,1,123,1,121,1,72,1,4,1,4,1
62,33,1,4,1,-29,1,-18,1,31,1,-12,1,53,1,155,1,152,1,98,1,18,1,11,1
63,45,1,13,1,-32,1,-29,1,39,1,-9,1,55,1,189,1,188,1,130,1,39,1,21,1
64,61,1,23,1,-38,1,-42,1,50,1,-7,1,64,1,221,1,221,1,164,1,62,1,34,1
65,77,1,34,1,-43,1,-55,1,60,1,-4,1,77,1,259,1,257,1,201,1,86,1,46,1
66,87,1,46,1,-41,1,-66,1,64,1,3,1,95,1,290,1,289,1,233,1,110,1,59,1
67,96,1,62,1,-34,1,-79,1,65,1,14,1,112,1,302,1,311,1,262,1,133,1,74,1
68,107,1,80,1,-27,1,-93,1,67,1,27,1,123,1,294,1,321,1,282,1,156,1,89,1
69,107,1,91,1,-16,1,-99,1,62,1,38,1,141,1,282,1,318,1,287,1,167,1,99,1
70,91,1,105,1,14,1,-98,1,39,1,60,1,153,1,233,1,278,1,259,1,157,1,99,1
71,54,1,121,1,67,1,-87,1,-6,1,94,1,162,1,156,1,208,1,196,1,123,1,90,1
72,7,1,141,1,134,1,-74,1,-63,1,138,1,151,1,42,1,112,1,115,1,77,1,74,1
73,-36,1,164,1,200,1,-64,1,-118,1,182,1,125,1,-87,1,8,1,34,1,35,1,63,1
74,-76,1,177,1,253,1,-50,1,-164,1,215,1,106,1,-202,1,-93,1,-44,1,-8,1,48,1
75,-103,1,172,1,275,1,-34,1,-189,1,223,1,81,1,-290,1,-174,1,-107,1,-44,1,32,1
76,-117,1,159,1,276,1,-21,1,-196,1,217,1,39,1,-368,1,-252,1,-166,1,-76,1,17,1
77,-123,1,150,1,273,1,-13,1,-198,1,211,1,-14,1,-444,1,-333,1,-219,1,-98,1,6,1
78,-125,1,141,1,266,1,-8,1,-195,1,203,1,-74,1,-510,1,-400,1,-260,1,-114,1,1,1
79,-126,1,120,1,246,1,3,1,-186,1,183,1,-134,1,-551,1,-440,1,-286,1,-127,1,-7,1
80,-120,1,90,1,210,1,15,1,-165,1,150,1,-188,1,-567,1,-465,1,-307,1,-138,1,-16,1
81,-113,1,68,1,181,1,22,1,-147,1,124,1,-224,1,-570,1,-480,1,-326,1,-149,1,-24,1
82,-109,1,46,1,155,1,31,1,-132,1,100,1,-237,1,-554,1,-480,1,-332,1,-154,1,-30,1
83,-110,1,22,1,132,1,44,1,-121,1,77,1,-234,1,-526,1,-462,1,-326,1,-155,1,-35,1
84,-108,1,-1,1,107,1,54,1,-108,1,53,1,-226,1,-494,1,-435,1,-314,1,-157,1,-42,1
85,-107,1,-19,1,88,1,63,1,-98,1,34,1,-211,1,-458,1,-401,1,-297,1,-157,1,-49,1
86,-104,1,-32,1,72,1,68,1,-88,1,20,1,-190,1,-411,1,-359,1,-272,1,-149,1,-51,1
87,-98,1,-42,1,56,1,70,1,-77,1,7,1,-169,1,-365,1,-320,1,-247,1,-141,1,-51,1
88,-87,1,-45,1,42,1,66,1,-65,1,-2,1,-148,1,-316,1,-277,1,-218,1,-129,1,-48,1
89,-73,1,-47,1,26,1,60,1,-50,1,-11,1,-130,1,-269,1,-237,1,-189,1,-117,1,-44,1
90,-61,1,-47,1,14,1,54,1,-38,1,-17,1,-112,1,-231,1,-202,1,-163,1,-104,1,-39,1
91,-54,1,-46,1,8,1,50,1,-31,1,-19,1,-97,1,-204,1,-177,1,-146,1,-96,1,-37,1
92,-49,1,-43,1,6,1,46,1,-28,1,-19,1,-81,1,-180,1,-154,1,-130,1,-87,1,-33,1
93,-45,1,-40,1,5,1,42,1,-25,1,-18,1,-69,1,-154,1,-130,1,-110,1,-77,1,-28,1
94,-37,1,-32,1,5,1,34,1,-21,1,-14,1,-55,1,-127,1,-105,1,-91,1,-67,1,-24,1
95,-26,1,-21,1,5,1,23,1,-16,1,-8,1,-44,1,-99,1,-78,1,-69,1,-54,1,-17,1
96,-15,1,-11,1,4,1,13,1,-10,1,-4,1,-32,1,-73,1,-53,1,-51,1,-45,1,-11,1
97,-9,1,-6,1,3,1,7,1,-6,1,-2,1,-20,1,-53,1,-36,1,-39,1,-38,1,-8,1
98,-8,1,-1,1,7,1,4,1,-8,1,3,1,-7,1,-36,1,-20,1,-27,1,-32,1,-4,1
99,-6,1,2,1,8,1,2,1,-7,1,5,1,4,1,-24,1,-11,1,-20,1,-28,1,-2,1
100,-5,1,5,1,10,1,0,1,-7,1,7,1,12,1,-16,1,-4,1,-15,1,-25,1,0,1
101,-3,1,3,1,6,1,0,1,-4,1,4,1,20,1,-11,1,0,1,-12,1,-25,1,0,1
102,-2,1,3,1,5,1,0,1,-3,1,4,1,25,1,-8,1,1,1,-9,1,-24,1,0,1
103,-5,1,2,1,7,1,1,1,-6,1,4,1,30,1,-6,1,4,1,-8,1,-23,1,0,1
104,-2,1,4,1,6,1,-1,1,-4,1,5,1,34,1,-5,1,5,1,-8,1,-23,1,1,1
105,-1,1,5,1,6,1,-2,1,-3,1,5,1,36,1,-4,1,6,1,-8,1,-23,1,0,1
106,-1,1,6,1,7,1,-2,1,-4,1,6,1,39,1,-4,1,7,1,-8,1,-22,1,0,1
107,0,1,6,1,6,1,-3,1,-3,1,6,1,43,1,-3,1,7,1,-8,1,-22,1,0,1
108,0,1,8,1,8,1,-4,1,-4,1,8,1,46,1,-1,1,9,1,-6,1,-22,1,1,1
109,1,1,8,1,7,1,-4,1,-3,1,8,1,48,1,-1,1,9,1,-6,1,-22,1,1,1
110,1,1,9,1,8,1,-5,1,-3,1,9,1,51,1,0,1,10,1,-5,1,-21,1,1,1
111,2,1,9,1,7,1,-5,1,-2,1,8,1,54,1,2,1,12,1,-3,1,-22,1,1,1
112,1,1,8,1,7,1,-4,1,-3,1,8,1,58,1,3,1,13,1,-4,1,-22,1,1,1
113,0,1,7,1,7,1,-3,1,-3,1,7,1,59,1,3,1,13,1,-4,1,-22,1,1,1
114,0,1,9,1,9,1,-4,1,-4,1,9,1,61,1,2,1,12,1,-4,1,-22,1,1,1
115,3,1,9,1,6,1,-6,1,-1,1,8,1,61,1,0,1,11,1,-6,1,-22,1,1,1
116,3,1,9,1,6,1,-6,1,-1,1,8,1,62,1,0,1,12,1,-5,1,-21,1,2,1
117,3,1,11,1,8,1,-7,1,-2,1,10,1,65,1,1,1,14,1,-3,1,-20,1,2,1
118,3,1,12,1,9,1,-7,1,-3,1,11,1,66,1,2,1,14,1,-2,1,-20,1,3,1
119,4,1,11,1,7,1,-7,1,-1,1,9,1,65,1,1,1,13,1,-3,1,-19,1,3,1
120,4,1,13,1,9,1,-8,1,-2,1,11,1,65,1,1,1,12,1,-3,1,-19,1,3,1
121,7,1,14,1,7,1,-10,1,0,1,11,1,65,1,1,1,12,1,-4,1,-20,1,3,1
122,6,1,14,1,8,1,-10,1,-1,1,11,1,67,1,1,1,13,1,-2,1,-19,1,4,1
123,6,1,13,1,7,1,-9,1,0,1,10,1,68,1,1,1,14,1,-1,1,-17,1,5,1
124,5,1,11,1,6,1,-8,1,0,1,9,1,69,1,1,1,13,1,-1,1,-17,1,5,1
125,5,1,11,1,6,1,-8,1,0,1,9,1,70,1,1,1,13,1,0,1,-17,1,6,1
126,4,1,12,1,8,1,-8,1,-2,1,10,1,71,1,2,1,13,1,1,1,-17,1,7,1
127,5,1,12,1,7,1,-8,1,-1,1,10,1,73,1,0,1,12,1,0,1,-16,1,6,1
128,6,1,13,1,7,1,-9,1,0,1,10,1,73,1,0,1,12,1,-1,1,-16,1,5,1
129,7,1,14,1,7,1,-10,1,0,1,11,1,76,1,1,1,14,1,1,1,-15,1,6,1
130,8,1,14,1,6,1,-11,1,1,1,10,1,78,1,1,1,14,1,1,1,-15,1,7,1
131,9,1,14,1,5,1,-11,1,2,1,10,1,78,1,-1,1,13,1,1,1,-14,1,6,1
132,8,1,13,1,5,1,-10,1,2,1,9,1,80,1,-1,1,13,1,1,1,-14,1,6,1
133,8,1,13,1,5,1,-10,1,2,1,9,1,84,1,0,1,14,1,3,1,-13,1,8,1
134,9,1,13,1,4,1,-11,1,3,1,9,1,85,1,0,1,14,1,4,1,-13,1,7,1
135,11,1,17,1,6,1,-14,1,3,1,12,1,84,1,0,1,13,1,3,1,-14,1,6,1
136,12,1,17,1,5,1,-14,1,4,1,11,1,83,1,-2,1,11,1,1,1,-15,1,5,1
137,12,1,16,1,4,1,-14,1,4,1,10,1,84,1,-3,1,11,1,1,1,-14,1,6,1
138,12,1,18,1,6,1,-15,1,3,1,12,1,85,1,-3,1,11,1,3,1,-13,1,7,1
139,13,1,19,1,6,1,-16,1,4,1,13,1,87,1,-2,1,12,1,3,1,-12,1,7,1
140,13,1,19,1,6,1,-16,1,4,1,13,1,89,1,-1,1,13,1,3,1,-11,1,7,1
141,12,1,19,1,7,1,-15,1,3,1,13,1,90,1,0,1,15,1,5,1,-10,1,9,1
142,14,1,20,1,6,1,-17,1,4,1,13,1,86,1,0,1,14,1,5,1,-10,1,10,1
143,15,1,21,1,6,1,-18,1,5,1,14,1,83,1,0,1,12,1,4,1,-10,1,10,1
144,15,1,19,1,4,1,-17,1,6,1,12,1,81,1,-2,1,13,1,4,1,-9,1,10,1
145,15,1,18,1,3,1,-16,1,6,1,11,1,81,1,-1,1,13,1,5,1,-10,1,11,1
146,15,1,19,1,4,1,-17,1,6,1,12,1,79,1,-2,1,13,1,5,1,-10,1,10,1
147,14,1,19,1,5,1,-16,1,5,1,12,1,78,1,-2,1,13,1,6,1,-8,1,11,1
148,16,1,19,1,3,1,-17,1,7,1,11,1,77,1,-3,1,13,1,6,1,-9,1,11,1
149,19,1,19,1,0,1,-19,1,10,1,10,1,77,1,-4,1,10,1,4,1,-8,1,11,1
150,18,1,20,1,2,1,-19,1,8,1,11,1,77,1,-4,1,11,1,5,1,-8,1,12,1
151,18,1,21,1,3,1,-19,1,8,1,12,1,77,1,-4,1,11,1,5,1,-8,1,12,1
152,19,1,21,1,2,1,-20,1,9,1,12,1,74,1,-5,1,10,1,5,1,-8,1,13,1
153,19,1,21,1,2,1,-20,1,9,1,12,1,72,1,-6,1,10,1,5,1,-7,1,13,1
154,20,1,20,1,0,1,-20,1,10,1,10,1,72,1,-6,1,9,1,4,1,-7,1,13,1
155,22,1,21,1,-1,1,-21,1,12,1,10,1,73,1,-6,1,9,1,4,1,-7,1,12,1
156,23,1,21,1,-2,1,-22,1,13,1,10,1,75,1,-8,1,7,1,4,1,-6,1,12,1
157,22,1,22,1,0,1,-22,1,11,1,11,1,76,1,-8,1,6,1,4,1,-5,1,13,1
158,21,1,21,1,0,1,-21,1,11,1,11,1,76,1,-8,1,6,1,4,1,-5,1,15,1
159,23,1,23,1,0,1,-23,1,12,1,12,1,75,1,-9,1,5,1,3,1,-5,1,15,1
160,24,1,23,1,-1,1,-23,1,13,1,11,1,74,1,-10,1,4,1,2,1,-4,1,16,1
161,26,1,24,1,-2,1,-25,1,14,1,11,1,74,1,-12,1,3,1,2,1,-3,1,17,1
162,29,1,24,1,-5,1,-26,1,17,1,10,1,75,1,-13,1,2,1,2,1,-3,1,17,1
163,30,1,24,1,-6,1,-27,1,18,1,9,1,75,1,-15,1,0,1,1,1,-4,1,16,1
164,30,1,26,1,-4,1,-28,1,17,1,11,1,74,1,-16,1,0,1,0,1,-4,1,18,1
165,31,1,25,1,-6,1,-28,1,19,1,10,1,71,1,-18,1,-3,1,-1,1,-3,1,17,1
166,31,1,25,1,-6,1,-28,1,19,1,10,1,72,1,-19,1,-3,1,-1,1,-2,1,17,1
167,31,1,26,1,-5,1,-28,1,18,1,11,1,73,1,-20,1,-4,1,-2,1,-1,1,18,1
168,33,1,26,1,-7,1,-29,1,20,1,10,1,69,1,-23,1,-8,1,-4,1,-2,1,18,1
169,35,1,26,1,-9,1,-30,1,22,1,9,1,68,1,-24,1,-9,1,-4,1,-1,1,19,1
170,34,1,27,1,-7,1,-30,1,21,1,10,1,69,1,-26,1,-10,1,-6,1,-1,1,19,1
171,34,1,27,1,-7,1,-30,1,21,1,10,1,69,1,-27,1,-12,1,-6,1,-2,1,19,1
172,34,1,28,1,-6,1,-31,1,20,1,11,1,69,1,-29,1,-14,1,-7,1,-2,1,21,1
173,35,1,29,1,-6,1,-32,1,21,1,12,1,68,1,-31,1,-15,1,-9,1,-2,1,21,1
174,33,1,26,1,-7,1,-29,1,20,1,10,1,66,1,-33,1,-16,1,-9,1,0,1,21,1
175,34,1,26,1,-8,1,-30,1,21,1,9,1,66,1,-33,1,-17,1,-9,1,0,1,22,1
176,35,1,27,1,-8,1,-31,1,22,1,10,1,62,1,-34,1,-19,1,-9,1,0,1,22,1
177,35,1,27,1,-8,1,-31,1,22,1,10,1,61,1,-35,1,-20,1,-10,1,-1,1,22,1
178,37,1,27,1,-10,1,-32,1,24,1,9,1,59,1,-37,1,-22,1,-11,1,-1,1,21,1
179,37,1,26,1,-11,1,-31,1,24,1,8,1,58,1,-38,1,-23,1,-11,1,0,1,22,1
180,35,1,25,1,-10,1,-30,1,23,1,8,1,57,1,-37,1,-23,1,-12,1,0,1,24,1
181,37,1,27,1,-10,1,-32,1,24,1,9,1,55,1,-39,1,-25,1,-13,1,-1,1,23,1
182,38,1,28,1,-10,1,-33,1,24,1,9,1,52,1,-41,1,-26,1,-14,1,-1,1,21,1
183,38,1,28,1,-10,1,-33,1,24,1,9,1,52,1,-40,1,-27,1,-16,1,-1,1,21,1
184,38,1,28,1,-10,1,-33,1,24,1,9,1,51,1,-38,1,-26,1,-14,1,-1,1,22,1
185,38,1,28,1,-10,1,-33,1,24,1,9,1,51,1,-37,1,-25,1,-14,1,-2,1,21,1
186,35,1,28,1,-7,1,-31,1,21,1,11,1,54,1,-35,1,-23,1,-12,1,0,1,22,1
187,35,1,27,1,-8,1,-31,1,22,1,10,1,55,1,-34,1,-23,1,-12,1,0,1,22,1
188,35,1,27,1,-8,1,-31,1,22,1,10,1,57,1,-33,1,-22,1,-12,1,-1,1,22,1
189,36,1,28,1,-8,1,-32,1,22,1,10,1,58,1,-31,1,-21,1,-10,1,0,1,22,1
190,34,1,27,1,-7,1,-30,1,21,1,10,1,59,1,-28,1,-18,1,-8,1,1,1,22,1
191,33,1,27,1,-6,1,-30,1,20,1,11,1,63,1,-23,1,-15,1,-8,1,1,1,23,1
192,34,1,27,1,-7,1,-30,1,21,1,10,1,66,1,-18,1,-13,1,-7,1,0,1,22,1
193,30,1,24,1,-6,1,-27,1,18,1,9,1,70,1,-14,1,-9,1,-4,1,0,1,21,1
194,28,1,23,1,-5,1,-25,1,17,1,9,1,73,1,-9,1,-7,1,-3,1,-1,1,20,1
195,29,1,23,1,-6,1,-26,1,18,1,9,1,78,1,-4,1,-4,1,-2,1,-1,1,20,1
196,29,1,23,1,-6,1,-26,1,18,1,9,1,81,1,0,1,0,1,-1,1,-1,1,18,1
197,27,1,24,1,-3,1,-25,1,15,1,11,1,83,1,4,1,4,1,0,1,-2,1,17,1
198,28,1,24,1,-4,1,-26,1,16,1,10,1,88,1,9,1,8,1,1,1,-2,1,17,1
199,25,1,22,1,-3,1,-23,1,14,1,10,1,90,1,12,1,10,1,2,1,-4,1,15,1
200,22,1,21,1,-1,1,-21,1,12,1,10,1,94,1,18,1,15,1,4,1,-5,1,14,1
201,19,1,22,1,3,1,-20,1,8,1,13,1,100,1,24,1,20,1,7,1,-4,1,14,1
202,16,1,22,1,6,1,-19,1,5,1,14,1,105,1,26,1,22,1,9,1,-4,1,13,1
203,18,1,20,1,2,1,-19,1,8,1,11,1,107,1,26,1,21,1,8,1,-5,1,13,1
204,18,1,19,1,1,1,-18,1,9,1,10,1,109,1,26,1,22,1,7,1,-7,1,11,1
205,16,1,19,1,3,1,-17,1,7,1,11,1,113,1,28,1,24,1,7,1,-8,1,9,1
206,14,1,17,1,3,1,-15,1,6,1,10,1,116,1,30,1,26,1,7,1,-9,1,8,1
207,12,1,15,1,3,1,-13,1,5,1,9,1,119,1,32,1,28,1,9,1,-11,1,8,1
208,11,1,16,1,5,1,-13,1,3,1,11,1,122,1,33,1,30,1,10,1,-11,1,6,1
209,9,1,17,1,8,1,-13,1,1,1,13,1,123,1,34,1,30,1,10,1,-11,1,6,1
210,7,1,17,1,10,1,-12,1,-1,1,14,1,125,1,34,1,31,1,11,1,-12,1,6,1
211,7,1,17,1,10,1,-12,1,-1,1,14,1,129,1,35,1,33,1,12,1,-11,1,6,1
212,7,1,16,1,9,1,-11,1,-1,1,13,1,128,1,33,1,32,1,11,1,-12,1,6,1
213,6,1,16,1,10,1,-11,1,-2,1,13,1,129,1,34,1,32,1,10,1,-12,1,5,1
214,6,1,17,1,11,1,-11,1,-2,1,14,1,130,1,33,1,30,1,10,1,-13,1,5,1
215,4,1,17,1,13,1,-10,1,-4,1,15,1,129,1,33,1,31,1,10,1,-13,1,5,1
216,3,1,15,1,12,1,-9,1,-4,1,14,1,130,1,30,1,30,1,9,1,-14,1,5,1
217,2,1,15,1,13,1,-8,1,-5,1,14,1,131,1,28,1,28,1,8,1,-15,1,4,1
218,2,1,15,1,13,1,-8,1,-5,1,14,1,131,1,27,1,28,1,7,1,-15,1,5,1
219,3,1,16,1,13,1,-9,1,-5,1,15,1,131,1,28,1,29,1,7,1,-14,1,6,1
220,3,1,15,1,12,1,-9,1,-4,1,14,1,129,1,26,1,27,1,6,1,-15,1,3,1
221,1,1,14,1,13,1,-7,1,-6,1,14,1,129,1,26,1,27,1,7,1,-15,1,3,1
222,0,1,15,1,15,1,-7,1,-7,1,15,1,128,1,25,1,27,1,7,1,-15,1,3,1
223,0,1,16,1,16,1,-8,1,-8,1,16,1,128,1,25,1,28,1,8,1,-16,1,3,1
224,0,1,17,1,17,1,-8,1,-8,1,17,1,126,1,23,1,26,1,8,1,-17,1,1,1
225,0,1,16,1,16,1,-8,1,-8,1,16,1,125,1,23,1,26,1,6,1,-17,1,0,1
226,-1,1,16,1,17,1,-7,1,-9,1,16,1,126,1,24,1,27,1,7,1,-16,1,2,1
227,-1,1,16,1,17,1,-7,1,-9,1,16,1,124,1,21,1,25,1,5,1,-17,1,1,1
228,0,1,16,1,16,1,-8,1,-8,1,16,1,123,1,19,1,24,1,4,1,-17,1,0,1
229,-1,1,17,1,18,1,-8,1,-9,1,17,1,125,1,20,1,25,1,5,1,-18,1,0,1
230,-2,1,16,1,18,1,-7,1,-10,1,17,1,122,1,21,1,26,1,4,1,-17,1,0,1
231,0,1,16,1,16,1,-8,1,-8,1,16,1,120,1,21,1,25,1,3,1,-18,1,0,1
232,0,1,17,1,17,1,-8,1,-8,1,17,1,121,1,21,1,25,1,4,1,-18,1,1,1
233,-1,1,16,1,17,1,-7,1,-9,1,16,1,120,1,21,1,26,1,3,1,-19,1,0,1
234,-4,1,15,1,19,1,-5,1,-11,1,17,1,120,1,21,1,26,1,3,1,-19,1,0,1
235,-5,1,17,1,22,1,-6,1,-13,1,19,1,122,1,21,1,27,1,3,1,-19,1,0,1
236,-3,1,17,1,20,1,-7,1,-11,1,18,1,123,1,21,1,27,1,3,1,-19,1,-1,1
237,0,1,16,1,16,1,-8,1,-8,1,16,1,122,1,21,1,27,1,3,1,-20,1,-1,1
238,-3,1,16,1,19,1,-6,1,-11,1,17,1,123,1,22,1,27,1,5,1,-19,1,-1,1
239,-4,1,17,1,21,1,-6,1,-12,1,19,1,122,1,21,1,27,1,5,1,-18,1,0,1
240,-2,1,17,1,19,1,-7,1,-10,1,18,1,119,1,20,1,26,1,3,1,-19,1,-1,1
241,0,1,18,1,18,1,-9,1,-9,1,18,1,118,1,21,1,26,1,3,1,-20,1,0,1
242,-1,1,16,1,17,1,-7,1,-9,1,16,1,116,1,21,1,26,1,2,1,-20,1,0,1
243,-1,1,16,1,17,1,-7,1,-9,1,16,1,115,1,21,1,25,1,3,1,-19,1,0,1
244,0,1,16,1,16,1,-8,1,-8,1,16,1,114,1,21,1,26,1,3,1,-18,1,0,1
245,0,1,17,1,17,1,-8,1,-8,1,17,1,111,1,20,1,25,1,4,1,-18,1,1,1
246,0,1,17,1,17,1,-8,1,-8,1,17,1,108,1,21,1,26,1,4,1,-18,1,1,1
247,-2,1,17,1,19,1,-7,1,-10,1,18,1,112,1,23,1,27,1,5,1,-18,1,1,1
248,-1,1,17,1,18,1,-8,1,-9,1,17,1,112,1,23,1,28,1,6,1,-16,1,1,1
249,-1,1,17,1,18,1,-8,1,-9,1,17,1,110,1,24,1,28,1,7,1,-16,1,1,1
250,1,1,18,1,17,1,-9,1,-8,1,18,1,107,1,22,1,28,1,7,1,-17,1,1,1
251,1,1,19,1,18,1,-10,1,-8,1,19,1,105,1,23,1,28,1,6,1,-17,1,1,1
252,0,1,19,1,19,1,-9,1,-9,1,19,1,103,1,24,1,29,1,7,1,-17,1,2,1
253,0,1,21,1,21,1,-10,1,-10,1,21,1,102,1,24,1,30,1,7,1,-16,1,1,1
254,0,1,22,1,22,1,-11,1,-11,1,22,1,102,1,25,1,31,1,7,1,-16,1,0,1
255,0,1,21,1,21,1,-10,1,-10,1,21,1,106,1,27,1,32,1,9,1,-14,1,1,1
256,0,1,23,1,23,1,-11,1,-11,1,23,1,109,1,30,1,34,1,10,1,-13,1,3,1
257,2,1,27,1,25,1,-14,1,-11,1,26,1,108,1,32,1,36,1,12,1,-13,1,3,1
258,5,1,30,1,25,1,-17,1,-10,1,28,1,106,1,33,1,38,1,13,1,-11,1,3,1
259,3,1,31,1,28,1,-17,1,-12,1,30,1,106,1,36,1,40,1,16,1,-10,1,4,1
260,6,1,33,1,27,1,-19,1,-10,1,30,1,103,1,36,1,40,1,16,1,-10,1,5,1
261,7,1,36,1,29,1,-21,1,-11,1,33,1,104,1,39,1,42,1,17,1,-8,1,6,1
262,7,1,37,1,30,1,-22,1,-11,1,34,1,105,1,41,1,45,1,19,1,-6,1,7,1
263,6,1,39,1,33,1,-22,1,-13,1,36,1,105,1,44,1,48,1,23,1,-4,1,8,1
264,9,1,41,1,32,1,-25,1,-11,1,37,1,104,1,43,1,48,1,23,1,-5,1,9,1
265,10,1,41,1,31,1,-25,1,-10,1,36,1,106,1,45,1,49,1,24,1,-4,1,9,1
266,11,1,42,1,31,1,-26,1,-10,1,37,1,105,1,46,1,52,1,27,1,-4,1,10,1
267,12,1,44,1,32,1,-28,1,-10,1,38,1,103,1,45,1,52,1,27,1,-2,1,10,1
268,15,1,46,1,31,1,-30,1,-8,1,39,1,99,1,44,1,51,1,28,1,-1,1,12,1
269,16,1,45,1,29,1,-30,1,-6,1,37,1,97,1,42,1,50,1,28,1,0,1,14,1
270,16,1,42,1,26,1,-29,1,-5,1,34,1,91,1,38,1,46,1,25,1,-1,1,13,1
271,18,1,42,1,24,1,-30,1,-3,1,33,1,86,1,34,1,44,1,24,1,-1,1,13,1
272,19,1,43,1,24,1,-31,1,-2,1,34,1,85,1,33,1,43,1,24,1,0,1,15,1
273,21,1,42,1,21,1,-31,1,0,1,32,1,87,1,31,1,41,1,24,1,-1,1,14,1
274,21,1,42,1,21,1,-31,1,0,1,32,1,87,1,29,1,40,1,23,1,-1,1,14,1
275,21,1,43,1,22,1,-32,1,0,1,33,1,87,1,30,1,41,1,23,1,0,1,15,1
276,22,1,42,1,20,1,-32,1,1,1,31,1,87,1,27,1,39,1,23,1,-1,1,13,1
277,21,1,41,1,20,1,-31,1,1,1,31,1,89,1,24,1,38,1,22,1,-1,1,12,1
278,21,1,41,1,20,1,-31,1,1,1,31,1,88,1,22,1,37,1,20,1,-2,1,11,1
279,21,1,40,1,19,1,-30,1,1,1,30,1,88,1,21,1,36,1,20,1,-2,1,11,1
280,21,1,41,1,20,1,-31,1,1,1,31,1,89,1,21,1,37,1,21,1,0,1,13,1
281,21,1,42,1,21,1,-31,1,0,1,32,1,91,1,22,1,38,1,23,1,2,1,14,1
282,21,1,42,1,21,1,-31,1,0,1,32,1,90,1,21,1,37,1,22,1,1,1,14,1
283,23,1,42,1,19,1,-32,1,2,1,31,1,87,1,20,1,35,1,21,1,0,1,14,1
284,23,1,42,1,19,1,-32,1,2,1,31,1,87,1,20,1,35,1,21,1,-1,1,14,1
285,22,1,41,1,19,1,-31,1,2,1,30,1,89,1,20,1,36,1,21,1,-1,1,14,1
286,22,1,38,1,16,1,-30,1,3,1,27,1,87,1,20,1,36,1,22,1,0,1,13,1
287,21,1,35,1,14,1,-28,1,4,1,25,1,85,1,20,1,35,1,22,1,0,1,14,1
288,18,1,32,1,14,1,-25,1,2,1,23,1,87,1,21,1,36,1,22,1,0,1,13,1
289,16,1,31,1,15,1,-23,1,1,1,23,1,84,1,21,1,35,1,21,1,-2,1,11,1
290,17,1,30,1,13,1,-23,1,2,1,22,1,80,1,19,1,34,1,19,1,-4,1,10,1
291,16,1,31,1,15,1,-23,1,1,1,23,1,78,1,19,1,33,1,18,1,-4,1,10,1
292,13,1,28,1,15,1,-20,1,-1,1,22,1,76,1,17,1,32,1,17,1,-5,1,9,1
293,10,1,26,1,16,1,-18,1,-3,1,21,1,76,1,16,1,30,1,15,1,-7,1,7,1
294,8,1,24,1,16,1,-16,1,-4,1,20,1,80,1,16,1,29,1,13,1,-8,1,5,1
295,6,1,21,1,15,1,-13,1,-4,1,18,1,83,1,17,1,28,1,12,1,-9,1,4,1
296,4,1,16,1,12,1,-10,1,-4,1,14,1,82,1,16,1,26,1,11,1,-11,1,2,1
297,3,1,14,1,11,1,-8,1,-4,1,13,1,82,1,18,1,27,1,10,1,-12,1,2,1
298,3,1,14,1,11,1,-8,1,-4,1,13,1,81,1,16,1,25,1,8,1,-14,1,1,1
299,3,1,13,1,10,1,-8,1,-3,1,12,1,83,1,16,1,25,1,7,1,-16,1,1,1
300,1,1,11,1,10,1,-6,1,-4,1,11,1,81,1,14,1,23,1,6,1,-16,1,0,1
301,0,1,11,1,11,1,-5,1,-5,1,11,1,80,1,13,1,22,1,5,1,-16,1,0,1
302,0,1,11,1,11,1,-5,1,-5,1,11,1,76,1,10,1,19,1,3,1,-18,1,-1,1
303,-1,1,8,1,9,1,-3,1,-5,1,8,1,74,1,10,1,19,1,3,1,-18,1,-1,1
304,-2,1,8,1,10,1,-3,1,-6,1,9,1,73,1,11,1,19,1,3,1,-16,1,-1,1
305,0,1,8,1,8,1,-4,1,-4,1,8,1,70,1,11,1,19,1,2,1,-17,1,-2,1
306,0,1,8,1,8,1,-4,1,-4,1,8,1,66,1,11,1,19,1,2,1,-18,1,-2,1
307,-2,1,8,1,10,1,-3,1,-6,1,9,1,62,1,10,1,18,1,2,1,-18,1,-2,1
308,-1,1,7,1,8,1,-3,1,-4,1,7,1,59,1,9,1,17,1,1,1,-19,1,-4,1
309,-1,1,7,1,8,1,-3,1,-4,1,7,1,57,1,10,1,18,1,2,1,-18,1,-3,1
310,0,1,7,1,7,1,-3,1,-3,1,7,1,56,1,9,1,18,1,1,1,-18,1,-3,1
311,0,1,7,1,7,1,-3,1,-3,1,7,1,54,1,8,1,18,1,0,1,-18,1,-3,1
312,-2,1,7,1,9,1,-2,1,-5,1,8,1,53,1,7,1,17,1,0,1,-19,1,-3,1
313,-5,1,7,1,12,1,-1,1,-8,1,9,1,53,1,9,1,18,1,2,1,-18,1,-3,1
314,-3,1,5,1,8,1,-1,1,-5,1,6,1,51,1,8,1,16,1,0,1,-18,1,-2,1
315,-1,1,2,1,3,1,0,1,-2,1,2,1,49,1,6,1,15,1,-2,1,-19,1,-3,1
316,-1,1,2,1,3,1,0,1,-2,1,2,1,47,1,7,1,16,1,-2,1,-20,1,-4,1
317,-2,1,4,1,6,1,-1,1,-4,1,5,1,45,1,6,1,15,1,-1,1,-21,1,-3,1
318,-2,1,3,1,5,1,0,1,-3,1,4,1,42,1,4,1,14,1,-2,1,-22,1,-3,1
319,-3,1,3,1,6,1,0,1,-4,1,4,1,40,1,4,1,14,1,-3,1,-21,1,-4,1
320,-5,1,3,1,8,1,1,1,-6,1,5,1,40,1,4,1,15,1,-2,1,-20,1,-3,1
321,-5,1,3,1,8,1,1,1,-6,1,5,1,38,1,5,1,16,1,-1,1,-20,1,-4,1
322,-5,1,5,1,10,1,0,1,-7,1,7,1,35,1,4,1,15,1,-1,1,-21,1,-3,1
323,-5,1,5,1,10,1,0,1,-7,1,7,1,33,1,3,1,15,1,-2,1,-21,1,-4,1
324,-3,1,4,1,7,1,0,1,-5,1,5,1,32,1,2,1,14,1,-2,1,-20,1,-4,1
325,-2,1,2,1,4,1,0,1,-3,1,3,1,29,1,1,1,12,1,-3,1,-20,1,-3,1
326,-2,1,1,1,3,1,0,1,-2,1,2,1,27,1,5,1,14,1,-3,1,-21,1,-3,1
327,-2,1,-1,1,1,1,1,1,-2,1,0,1,28,1,8,1,17,1,-2,1,-21,1,-3,1
328,-1,1,-2,1,-1,1,1,1,0,1,-2,1,28,1,14,1,21,1,0,1,-21,1,-4,1
329,-1,1,-4,1,-3,1,2,1,1,1,-4,1,27,1,20,1,27,1,3,1,-20,1,-5,1
330,1,1,-4,1,-5,1,1,1,3,1,-4,1,27,1,26,1,31,1,8,1,-18,1,-4,1
331,4,1,-6,1,-10,1,1,1,7,1,-8,1,32,1,38,1,42,1,16,1,-16,1,-4,1
332,7,1,-7,1,-14,1,0,1,10,1,-10,1,34,1,51,1,53,1,22,1,-13,1,-4,1
333,10,1,-8,1,-18,1,-1,1,14,1,-13,1,40,1,66,1,67,1,31,1,-11,1,-4,1
334,12,1,-6,1,-18,1,-3,1,15,1,-12,1,49,1,87,1,86,1,45,1,-5,1,-4,1
335,15,1,-4,1,-19,1,-5,1,17,1,-11,1,58,1,112,1,109,1,61,1,0,1,-2,1
336,23,1,-2,1,-25,1,-10,1,24,1,-13,1,71,1,147,1,138,1,84,1,11,1,3,1
337,36,1,3,1,-33,1,-19,1,35,1,-15,1,80,1,183,1,171,1,112,1,28,1,12,1
338,52,1,13,1,-39,1,-32,1,46,1,-13,1,86,1,218,1,205,1,145,1,49,1,23,1
339,68,1,24,1,-44,1,-46,1,56,1,-10,1,94,1,257,1,241,1,181,1,75,1,37,1
340,82,1,33,1,-49,1,-57,1,66,1,-8,1,93,1,292,1,274,1,215,1,99,1,49,1
341,92,1,46,1,-46,1,-69,1,69,1,0,1,94,1,309,1,300,1,245,1,122,1,62,1
342,103,1,63,1,-40,1,-83,1,72,1,12,1,98,1,306,1,313,1,268,1,143,1,77,1
343,113,1,76,1,-37,1,-94,1,75,1,20,1,95,1,291,1,317,1,284,1,162,1,90,1
344,107,1,88,1,-19,1,-97,1,63,1,35,1,90,1,255,1,294,1,274,1,166,1,96,1
345,82,1,105,1,23,1,-93,1,30,1,64,1,81,1,184,1,239,1,232,1,149,1,95,1
346,40,1,122,1,82,1,-81,1,-21,1,102,1,62,1,87,1,160,1,164,1,111,1,84,1
347,-5,1,147,1,152,1,-71,1,-78,1,149,1,21,1,-34,1,66,1,88,1,70,1,74,1
348,-49,1,170,1,219,1,-60,1,-134,1,194,1,-19,1,-155,1,-30,1,15,1,34,1,64,1
349,-86,1,177,1,263,1,-45,1,-174,1,220,1,-58,1,-253,1,-117,1,-53,1,-6,1,49,1
350,-108,1,167,1,275,1,-29,1,-191,1,221,1,-108,1,-334,1,-195,1,-114,1,-41,1,33,1
351,-118,1,154,1,272,1,-18,1,-195,1,213,1,-166,1,-414,1,-280,1,-173,1,-69,1,21,1
352,-123,1,146,1,269,1,-11,1,-196,1,207,1,-234,1,-495,1,-365,1,-225,1,-90,1,13,1
353,-124,1,131,1,255,1,-3,1,-189,1,193,1,-301,1,-549,1,-419,1,-260,1,-104,1,6,1
354,-122,1,101,1,223,1,10,1,-172,1,162,1,-364,1,-574,1,-449,1,-284,1,-117,1,-2,1
355,-120,1,74,1,194,1,23,1,-157,1,134,1,-412,1,-581,1,-469,1,-305,1,-131,1,-11,1
356,-116,1,54,1,170,1,31,1,-143,1,112,1,-445,1,-577,1,-481,1,-322,1,-142,1,-20,1
357,-113,1,37,1,150,1,38,1,-131,1,93,1,-456,1,-555,1,-474,1,-323,1,-146,1,-27,1
358,-110,1,16,1,126,1,47,1,-118,1,71,1,-445,1,-526,1,-453,1,-316,1,-150,1,-35,1
359,-109,1,-6,1,103,1,57,1,-106,1,48,1,-425,1,-491,1,-421,1,-303,1,-153,1,-43,1
360,-108,1,-25,1,83,1,66,1,-96,1,29,1,-407,1,-440,1,-378,1,-279,1,-149,1,-48,1
361,-103,1,-38,1,65,1,70,1,-84,1,13,1,-389,1,-390,1,-336,1,-254,1,-142,1,-50,1
362,-93,1,-44,1,49,1,68,1,-71,1,2,1,-375,1,-346,1,-297,1,-228,1,-132,1,-49,1
363,-82,1,-49,1,33,1,65,1,-58,1,-8,1,-349,1,-296,1,-254,1,-198,1,-118,1,-45,1
364,-70,1,-51,1,19,1,60,1,-45,1,-16,1,-333,1,-250,1,-214,1,-169,1,-104,1,-41,1
365,-63,1,-52,1,11,1,57,1,-37,1,-21,1,-316,1,-216,1,-185,1,-148,1,-95,1,-38,1
366,-58,1,-51,1,7,1,54,1,-33,1,-22,1,-303,1,-188,1,-160,1,-130,1,-88,1,-36,1
367,-52,1,-48,1,4,1,50,1,-28,1,-22,1,-292,1,-161,1,-136,1,-112,1,-78,1,-31,1
368,-42,1,-40,1,2,1,41,1,-22,1,-19,1,-281,1,-137,1,-113,1,-95,1,-68,1,-27,1
369,-32,1,-30,1,2,1,31,1,-17,1,-14,1,-271,1,-111,1,-88,1,-76,1,-58,1,-21,1
370,-23,1,-19,1,4,1,21,1,-14,1,-8,1,-263,1,-86,1,-64,1,-57,1,-48,1,-16,1
371,-17,1,-10,1,7,1,13,1,-12,1,-2,1,-251,1,-59,1,-39,1,-38,1,-38,1,-9,1
372,-11,1,-4,1,7,1,7,1,-9,1,1,1,-242,1,-40,1,-24,1,-27,1,-31,1,-7,1
373,-10,1,0,1,10,1,5,1,-10,1,5,1,-236,1,-26,1,-12,1,-20,1,-28,1,-4,1
374,-9,1,2,1,11,1,3,1,-10,1,6,1,-229,1,-15,1,-5,1,-13,1,-24,1,-3,1
375,-6,1,4,1,10,1,1,1,-8,1,7,1,-218,1,-10,1,-1,1,-10,1,-23,1,-3,1
376,-7,1,3,1,10,1,2,1,-8,1,6,1,-212,1,-7,1,1,1,-9,1,-24,1,-4,1
377,-5,1,3,1,8,1,1,1,-6,1,5,1,-208,1,-6,1,3,1,-7,1,-23,1,-4,1
378,-4,1,3,1,7,1,0,1,-5,1,5,1,-203,1,-3,1,6,1,-4,1,-21,1,-2,1
379,-5,1,2,1,7,1,1,1,-6,1,4,1,-203,1,-3,1,8,1,-3,1,-21,1,-2,1
380,-4,1,3,1,7,1,0,1,-5,1,5,1,-202,1,-2,1,8,1,-2,1,-19,1,-2,1
381,-4,1,3,1,7,1,0,1,-5,1,5,1,-201,1,1,1,11,1,0,1,-18,1,-1,1
382,-3,1,3,1,6,1,0,1,-4,1,4,1,-202,1,3,1,12,1,0,1,-17,1,0,1
383,-3,1,4,1,7,1,0,1,-5,1,5,1,-204,1,5,1,12,1,-1,1,-18,1,0,1
384,-1,1,4,1,5,1,-1,1,-3,1,4,1,-209,1,3,1,12,1,0,1,-18,1,0,1
385,-1,1,5,1,6,1,-2,1,-3,1,5,1,-214,1,5,1,14,1,1,1,-17,1,0,1
386,0,1,6,1,6,1,-3,1,-3,1,6,1,-218,1,5,1,15,1,1,1,-17,1,0,1
387,-3,1,6,1,9,1,-1,1,-6,1,7,1,-219,1,5,1,15,1,3,1,-17,1,0,1
388,-3,1,7,1,10,1,-2,1,-6,1,8,1,-220,1,5,1,15,1,3,1,-17,1,0,1
389,0,1,6,1,6,1,-3,1,-3,1,6,1,-220,1,3,1,13,1,1,1,-18,1,1,1
390,1,1,6,1,5,1,-3,1,-2,1,6,1,-221,1,3,1,13,1,0,1,-18,1,1,1
391,0,1,7,1,7,1,-3,1,-3,1,7,1,-218,1,4,1,15,1,2,1,-17,1,1,1
392,1,1,8,1,7,1,-4,1,-3,1,8,1,-214,1,5,1,14,1,1,1,-18,1,1,1
393,2,1,9,1,7,1,-5,1,-2,1,8,1,-214,1,4,1,14,1,0,1,-18,1,0,1
394,3,1,10,1,7,1,-6,1,-2,1,9,1,-218,1,3,1,14,1,1,1,-18,1,1,1
395,1,1,10,1,9,1,-5,1,-4,1,10,1,-219,1,5,1,16,1,2,1,-16,1,2,1
396,3,1,10,1,7,1,-6,1,-2,1,9,1,-221,1,4,1,15,1,3,1,-17,1,0,1
397,3,1,8,1,5,1,-5,1,-1,1,7,1,-220,1,5,1,17,1,5,1,-15,1,2,1
398,3,1,8,1,5,1,-5,1,-1,1,7,1,-221,1,5,1,17,1,5,1,-15,1,3,1
399,3,1,9,1,6,1,-6,1,-1,1,8,1,-223,1,5,1,16,1,5,1,-15,1,2,1
400,4,1,9,1,5,1,-6,1,0,1,7,1,-223,1,5,1,18,1,6,1,-14,1,3,1
401,5,1,10,1,5,1,-7,1,0,1,8,1,-224,1,4,1,16,1,6,1,-14,1,3,1
402,4,1,10,1,6,1,-7,1,-1,1,8,1,-224,1,3,1,16,1,6,1,-14,1,3,1
403,5,1,11,1,6,1,-8,1,0,1,9,1,-224,1,4,1,17,1,7,1,-13,1,3,1
404,6,1,12,1,6,1,-9,1,0,1,9,1,-226,1,5,1,16,1,7,1,-12,1,4,1
405,6,1,13,1,7,1,-9,1,0,1,10,1,-231,1,5,1,16,1,7,1,-12,1,4,1
406,4,1,13,1,9,1,-8,1,-2,1,11,1,-230,1,5,1,17,1,7,1,-13,1,4,1
407,5,1,13,1,8,1,-9,1,-1,1,11,1,-225,1,4,1,16,1,7,1,-13,1,3,1
408,7,1,13,1,6,1,-10,1,1,1,10,1,-222,1,3,1,16,1,6,1,-13,1,3,1
409,8,1,15,1,7,1,-11,1,1,1,11,1,-215,1,5,1,17,1,9,1,-10,1,5,1
410,8,1,13,1,5,1,-10,1,2,1,9,1,-212,1,2,1,17,1,8,1,-10,1,5,1
411,8,1,14,1,6,1,-11,1,1,1,10,1,-211,1,2,1,16,1,8,1,-11,1,5,1
412,9,1,15,1,6,1,-12,1,2,1,11,1,-212,1,2,1,17,1,9,1,-11,1,5,1
413,9,1,16,1,7,1,-12,1,1,1,12,1,-213,1,3,1,17,1,10,1,-9,1,7,1
414,11,1,15,1,4,1,-13,1,4,1,10,1,-214,1,2,1,17,1,9,1,-8,1,7,1
415,10,1,14,1,4,1,-12,1,3,1,9,1,-214,1,2,1,16,1,9,1,-8,1,8,1
416,10,1,14,1,4,1,-12,1,3,1,9,1,-213,1,3,1,17,1,11,1,-8,1,8,1
417,11,1,15,1,4,1,-13,1,4,1,10,1,-215,1,1,1,16,1,10,1,-8,1,9,1
418,13,1,15,1,2,1,-14,1,6,1,9,1,-214,1,1,1,16,1,10,1,-9,1,9,1
419,13,1,17,1,4,1,-15,1,5,1,11,1,-213,1,1,1,16,1,10,1,-7,1,9,1
420,12,1,17,1,5,1,-14,1,4,1,11,1,-208,1,2,1,17,1,11,1,-6,1,9,1
421,12,1,16,1,4,1,-14,1,4,1,10,1,-204,1,2,1,17,1,12,1,-6,1,10,1
422,14,1,16,1,2,1,-15,1,6,1,9,1,-201,1,2,1,17,1,12,1,-5,1,10,1
423,14,1,16,1,2,1,-15,1,6,1,9,1,-200,1,1,1,17,1,12,1,-5,1,11,1
424,16,1,17,1,1,1,-16,1,8,1,9,1,-200,1,0,1,16,1,10,1,-4,1,11,1
425,16,1,16,1,0,1,-16,1,8,1,8,1,-201,1,0,1,15,1,10,1,-4,1,11,1
426,17,1,16,1,-1,1,-16,1,9,1,8,1,-204,1,0,1,14,1,10,1,-4,1,10,1
427,17,1,19,1,2,1,-18,1,8,1,11,1,-204,1,-1,1,14,1,9,1,-4,1,10,1
428,18,1,20,1,2,1,-19,1,8,1,11,1,-203,1,-2,1,14,1,9,1,-4,1,11,1
429,19,1,18,1,-1,1,-18,1,10,1,9,1,-205,1,-2,1,15,1,9,1,-3,1,12,1
430,20,1,18,1,-2,1,-19,1,11,1,8,1,-206,1,-2,1,13,1,9,1,-2,1,13,1
431,21,1,20,1,-1,1,-20,1,11,1,10,1,-206,1,-3,1,13,1,9,1,-1,1,13,1
432,22,1,21,1,-1,1,-21,1,12,1,10,1,-207,1,-4,1,13,1,9,1,-1,1,13,1
433,22,1,21,1,-1,1,-21,1,12,1,10,1,-206,1,-4,1,12,1,9,1,-1,1,13,1
434,22,1,21,1,-1,1,-21,1,12,1,10,1,-210,1,-7,1,10,1,7,1,-2,1,13,1
435,24,1,23,1,-1,1,-23,1,13,1,11,1,-210,1,-7,1,10,1,8,1,0,1,14,1
436,24,1,21,1,-3,1,-22,1,14,1,9,1,-212,1,-8,1,8,1,8,1,0,1,14,1
437,22,1,21,1,-1,1,-21,1,12,1,10,1,-212,1,-8,1,8,1,8,1,0,1,16,1
438,24,1,22,1,-2,1,-23,1,13,1,10,1,-214,1,-11,1,5,1,6,1,0,1,16,1
439,27,1,21,1,-6,1,-24,1,17,1,8,1,-217,1,-14,1,2,1,3,1,0,1,16,1
440,28,1,22,1,-6,1,-25,1,17,1,8,1,-220,1,-16,1,0,1,2,1,0,1,16,1
441,29,1,23,1,-6,1,-26,1,18,1,9,1,-221,1,-17,1,-2,1,1,1,0,1,16,1
442,29,1,23,1,-6,1,-26,1,18,1,9,1,-220,1,-18,1,-2,1,2,1,1,1,17,1
443,28,1,24,1,-4,1,-26,1,16,1,10,1,-219,1,-20,1,-3,1,1,1,0,1,17,1
444,29,1,24,1,-5,1,-26,1,17,1,10,1,-220,1,-20,1,-5,1,0,1,0,1,17,1
445,29,1,24,1,-5,1,-26,1,17,1,10,1,-221,1,-22,1,-5,1,1,1,1,1,17,1
446,30,1,23,1,-7,1,-26,1,19,1,8,1,-230,1,-25,1,-7,1,0,1,1,1,18,1
447,28,1,24,1,-4,1,-26,1,16,1,10,1,-236,1,-25,1,-8,1,0,1,1,1,18,1
448,29,1,25,1,-4,1,-27,1,17,1,11,1,-241,1,-29,1,-11,1,-3,1,2,1,20,1
449,30,1,25,1,-5,1,-27,1,18,1,10,1,-245,1,-31,1,-14,1,-4,1,2,1,21,1
450,31,1,25,1,-6,1,-28,1,19,1,10,1,-247,1,-32,1,-15,1,-4,1,2,1,22,1
451,33,1,24,1,-9,1,-28,1,21,1,8,1,-248,1,-35,1,-17,1,-7,1,2,1,21,1
452,33,1,24,1,-9,1,-28,1,21,1,8,1,-248,1,-35,1,-19,1,-7,1,3,1,22,1
453,34,1,25,1,-9,1,-29,1,22,1,8,1,-247,1,-36,1,-19,1,-8,1,3,1,23,1
454,33,1,25,1,-8,1,-29,1,21,1,9,1,-248,1,-38,1,-21,1,-8,1,2,1,22,1
455,34,1,26,1,-8,1,-30,1,21,1,9,1,-249,1,-40,1,-22,1,-9,1,2,1,21,1
456,36,1,28,1,-8,1,-32,1,22,1,10,1,-250,1,-42,1,-23,1,-10,1,1,1,21,1
457,34,1,29,1,-5,1,-31,1,20,1,12,1,-247,1,-41,1,-23,1,-9,1,2,1,22,1
458,32,1,27,1,-5,1,-29,1,19,1,11,1,-246,1,-40,1,-21,1,-8,1,3,1,23,1
459,30,1,28,1,-2,1,-29,1,16,1,13,1,-248,1,-40,1,-21,1,-9,1,1,1,21,1
460,31,1,26,1,-5,1,-28,1,18,1,11,1,-251,1,-41,1,-23,1,-11,1,0,1,21,1
461,33,1,27,1,-6,1,-30,1,20,1,11,1,-251,1,-40,1,-22,1,-10,1,1,1,22,1
462,33,1,27,1,-6,1,-30,1,20,1,11,1,-249,1,-37,1,-20,1,-8,1,2,1,21,1
463,34,1,28,1,-6,1,-31,1,20,1,11,1,-248,1,-36,1,-20,1,-8,1,1,1,19,1
464,31,1,27,1,-4,1,-29,1,18,1,12,1,-245,1,-33,1,-18,1,-6,1,1,1,19,1
465,31,1,27,1,-4,1,-29,1,18,1,12,1,-241,1,-28,1,-15,1,-6,1,1,1,20,1
466,31,1,27,1,-4,1,-29,1,18,1,12,1,-237,1,-24,1,-13,1,-6,1,0,1,19,1
467,30,1,25,1,-5,1,-27,1,18,1,10,1,-236,1,-21,1,-11,1,-4,1,0,1,18,1
468,27,1,24,1,-3,1,-25,1,15,1,11,1,-232,1,-14,1,-6,1,-1,1,1,1,19,1
469,27,1,24,1,-3,1,-25,1,15,1,11,1,-227,1,-9,1,-1,1,1,1,1,1,19,1
470,25,1,24,1,-1,1,-24,1,13,1,12,1,-221,1,-4,1,1,1,3,1,0,1,18,1
471,24,1,24,1,0,1,-24,1,12,1,12,1,-215,1,0,1,5,1,5,1,2,1,17,1
472,26,1,24,1,-2,1,-25,1,14,1,11,1,-212,1,4,1,7,1,6,1,2,1,17,1
473,24,1,24,1,0,1,-24,1,12,1,12,1,-205,1,9,1,11,1,8,1,2,1,17,1
474,23,1,22,1,-1,1,-22,1,12,1,11,1,-199,1,13,1,14,1,10,1,1,1,14,1
475,21,1,21,1,0,1,-21,1,11,1,11,1,-192,1,17,1,18,1,10,1,0,1,14,1
476,17,1,20,1,3,1,-18,1,7,1,12,1,-186,1,20,1,21,1,11,1,-1,1,14,1
477,16,1,19,1,3,1,-17,1,7,1,11,1,-182,1,24,1,24,1,13,1,-3,1,12,1
478,16,1,19,1,3,1,-17,1,7,1,11,1,-176,1,27,1,26,1,13,1,-3,1,11,1
479,15,1,19,1,4,1,-17,1,6,1,12,1,-174,1,29,1,28,1,12,1,-3,1,11,1
480,12,1,16,1,4,1,-14,1,4,1,10,1,-174,1,31,1,28,1,10,1,-6,1,10,1
481,12,1,17,1,5,1,-14,1,4,1,11,1,-171,1,34,1,31,1,13,1,-6,1,10,1
482,10,1,18,1,8,1,-14,1,1,1,13,1,-170,1,36,1,33,1,15,1,-6,1,8,1
483,9,1,18,1,9,1,-13,1,0,1,14,1,-171,1,35,1,33,1,14,1,-8,1,5,1
484,10,1,17,1,7,1,-13,1,2,1,12,1,-173,1,35,1,33,1,14,1,-10,1,5,1
485,6,1,16,1,10,1,-11,1,-2,1,13,1,-172,1,36,1,35,1,14,1,-10,1,5,1
486,4,1,17,1,13,1,-10,1,-4,1,15,1,-172,1,36,1,35,1,14,1,-10,1,4,1
487,4,1,15,1,11,1,-9,1,-3,1,13,1,-173,1,35,1,36,1,14,1,-13,1,4,1
488,4,1,15,1,11,1,-9,1,-3,1,13,1,-175,1,35,1,36,1,14,1,-13,1,4,1
489,3,1,15,1,12,1,-9,1,-4,1,14,1,-178,1,35,1,36,1,14,1,-13,1,4,1
490,1,1,15,1,14,1,-8,1,-6,1,15,1,-182,1,34,1,36,1,14,1,-13,1,3,1
491,0,1,15,1,15,1,-7,1,-7,1,15,1,-185,1,33,1,35,1,13,1,-13,1,2,1
492,1,1,15,1,14,1,-8,1,-6,1,15,1,-187,1,31,1,34,1,13,1,-14,1,2,1
493,2,1,15,1,13,1,-8,1,-5,1,14,1,-191,1,31,1,34,1,13,1,-14,1,2,1
494,0,1,14,1,14,1,-7,1,-7,1,14,1,-195,1,30,1,35,1,13,1,-14,1,2,1
495,0,1,14,1,14,1,-7,1,-7,1,14,1,-198,1,30,1,35,1,13,1,-14,1,2,1
496,0,1,15,1,15,1,-7,1,-7,1,15,1,-203,1,28,1,34,1,12,1,-14,1,3,1
497,-2,1,14,1,16,1,-6,1,-9,1,15,1,-205,1,28,1,33,1,11,1,-14,1,2,1
498,-3,1,14,1,17,1,-5,1,-10,1,15,1,-209,1,26,1,32,1,10,1,-15,1,2,1
499,-3,1,14,1,17,1,-5,1,-10,1,15,1,-211,1,26,1,32,1,10,1,-15,1,2,1
500,-2,1,13,1,15,1,-5,1,-8,1,14,1,-213,1,26,1,32,1,10,1,-15,1,2,1
501,-2,1,13,1,15,1,-5,1,-8,1,14,1,-217,1,25,1,31,1,10,1,-15,1,2,1
502,-2,1,13,1,15,1,-5,1,-8,1,14,1,-218,1,24,1,30,1,8,1,-16,1,2,1
503,-1,1,13,1,14,1,-6,1,-7,1,13,1,-220,1,24,1,29,1,7,1,-16,1,2,1
504,-1,1,13,1,14,1,-6,1,-7,1,13,1,-222,1,23,1,29,1,8,1,-16,1,2,1
505,-4,1,13,1,17,1,-4,1,-10,1,15,1,-223,1,25,1,31,1,9,1,-15,1,2,1
506,-6,1,12,1,18,1,-3,1,-12,1,15,1,-224,1,26,1,32,1,9,1,-14,1,2,1
507,-2,1,14,1,16,1,-6,1,-9,1,15,1,-227,1,22,1,29,1,6,1,-17,1,0,1
508,-2,1,13,1,15,1,-5,1,-8,1,14,1,-226,1,22,1,29,1,6,1,-17,1,0,1
509,-3,1,13,1,16,1,-5,1,-9,1,14,1,-227,1,24,1,30,1,6,1,-16,1,1,1
510,-2,1,13,1,15,1,-5,1,-8,1,14,1,-229,1,23,1,29,1,5,1,-17,1,0,1
511,-3,1,13,1,16,1,-5,1,-9,1,14,1,-230,1,24,1,30,1,6,1,-17,1,0,1
512,-3,1,13,1,16,1,-5,1,-9,1,14,1,-232,1,24,1,30,1,6,1,-17,1,0,1
513,-1,1,15,1,16,1,-7,1,-8,1,15,1,-245,1,24,1,30,1,6,1,-17,1,0,1
514,0,1,15,1,15,1,-7,1,-7,1,15,1,-256,1,24,1,30,1,6,1,-18,1,1,1
515,-1,1,15,1,16,1,-7,1,-8,1,15,1,-262,1,24,1,30,1,7,1,-17,1,1,1
516,-2,1,15,1,17,1,-6,1,-9,1,16,1,-266,1,24,1,32,1,7,1,-17,1,1,1
517,-2,1,15,1,17,1,-6,1,-9,1,16,1,-270,1,25,1,32,1,7,1,-17,1,1,1
518,-1,1,16,1,17,1,-7,1,-9,1,16,1,-272,1,24,1,31,1,6,1,-17,1,1,1
519,-1,1,16,1,17,1,-7,1,-9,1,16,1,-271,1,24,1,31,1,6,1,-16,1,2,1
520,-1,1,17,1,18,1,-8,1,-9,1,17,1,-271,1,23,1,30,1,4,1,-16,1,1,1
521,0,1,18,1,18,1,-9,1,-9,1,18,1,-270,1,23,1,30,1,4,1,-16,1,1,1
522,0,1,19,1,19,1,-9,1,-9,1,19,1,-267,1,24,1,31,1,5,1,-16,1,2,1
523,-1,1,19,1,20,1,-9,1,-10,1,19,1,-266,1,25,1,31,1,7,1,-16,1,2,1
524,-1,1,17,1,18,1,-8,1,-9,1,17,1,-262,1,27,1,32,1,8,1,-14,1,3,1
525,0,1,16,1,16,1,-8,1,-8,1,16,1,-260,1,27,1,33,1,9,1,-14,1,2,1
526,2,1,16,1,14,1,-9,1,-6,1,15,1,-257,1,26,1,33,1,8,1,-14,1,2,1
527,1,1,17,1,16,1,-9,1,-7,1,17,1,-252,1,27,1,34,1,8,1,-14,1,3,1
528,0,1,17,1,17,1,-8,1,-8,1,17,1,-251,1,26,1,34,1,9,1,-14,1,3,1
529,-2,1,17,1,19,1,-7,1,-10,1,18,1,-249,1,28,1,34,1,11,1,-12,1,3,1
530,-3,1,18,1,21,1,-7,1,-12,1,19,1,-244,1,30,1,35,1,11,1,-12,1,4,1
531,-1,1,19,1,20,1,-9,1,-10,1,19,1,-237,1,31,1,35,1,10,1,-12,1,3,1
532,0,1,21,1,21,1,-10,1,-10,1,21,1,-232,1,32,1,36,1,11,1,-12,1,3,1
533,0,1,23,1,23,1,-11,1,-11,1,23,1,-227,1,35,1,38,1,14,1,-12,1,5,1
534,2,1,25,1,23,1,-13,1,-10,1,24,1,-224,1,35,1,39,1,15,1,-12,1,5,1
535,3,1,27,1,24,1,-15,1,-10,1,26,1,-220,1,37,1,41,1,16,1,-10,1,6,1
536,4,1,30,1,26,1,-17,1,-11,1,28,1,-219,1,39,1,43,1,18,1,-10,1,6,1
537,4,1,31,1,27,1,-17,1,-11,1,29,1,-218,1,40,1,44,1,18,1,-8,1,6,1
538,7,1,32,1,25,1,-19,1,-9,1,29,1,-216,1,41,1,46,1,20,1,-8,1,6,1
539,7,1,34,1,27,1,-20,1,-10,1,31,1,-214,1,43,1,48,1,22,1,-6,1,8,1
540,6,1,36,1,30,1,-21,1,-12,1,33,1,-213,1,46,1,51,1,24,1,-5,1,9,1
541,9,1,39,1,30,1,-24,1,-10,1,35,1,-211,1,48,1,54,1,26,1,-3,1,11,1
542,11,1,40,1,29,1,-25,1,-9,1,35,1,-209,1,50,1,55,1,27,1,-2,1,12,1
543,11,1,42,1,31,1,-26,1,-10,1,37,1,-207,1,51,1,55,1,27,1,-2,1,12,1
544,13,1,43,1,30,1,-28,1,-8,1,37,1,-206,1,52,1,58,1,29,1,-1,1,13,1
545,12,1,43,1,31,1,-27,1,-9,1,37,1,-207,1,53,1,60,1,32,1,0,1,14,1
546,15,1,44,1,29,1,-29,1,-7,1,37,1,-211,1,49,1,58,1,31,1,1,1,15,1
547,16,1,43,1,27,1,-29,1,-5,1,35,1,-215,1,46,1,54,1,29,1,1,1,16,1
548,19,1,43,1,24,1,-31,1,-2,1,34,1,-218,1,41,1,52,1,27,1,0,1,15,1
549,21,1,43,1,22,1,-32,1,0,1,33,1,-222,1,38,1,49,1,26,1,-1,1,15,1
550,22,1,42,1,20,1,-32,1,1,1,31,1,-224,1,35,1,47,1,25,1,-2,1,14,1
551,21,1,42,1,21,1,-31,1,0,1,32,1,-224,1,33,1,47,1,25,1,-1,1,15,1
552,20,1,41,1,21,1,-30,1,0,1,31,1,-225,1,33,1,46,1,26,1,-1,1,15,1
553,20,1,42,1,22,1,-31,1,-1,1,32,1,-224,1,32,1,46,1,25,1,0,1,15,1
554,19,1,40,1,21,1,-29,1,-1,1,31,1,-224,1,30,1,45,1,25,1,0,1,16,1
555,19,1,39,1,20,1,-29,1,0,1,30,1,-224,1,28,1,43,1,24,1,-2,1,14,1
556,20,1,39,1,19,1,-29,1,1,1,29,1,-224,1,24,1,40,1,22,1,-3,1,14,1
557,20,1,39,1,19,1,-29,1,1,1,29,1,-224,1,24,1,39,1,22,1,-2,1,15,1
558,21,1,41,1,20,1,-31,1,1,1,31,1,-222,1,25,1,40,1,22,1,-1,1,15,1
559,21,1,42,1,21,1,-31,1,0,1,32,1,-220,1,26,1,41,1,23,1,0,1,15,1
560,22,1,43,1,21,1,-32,1,1,1,32,1,-219,1,25,1,40,1,23,1,0,1,16,1
561,20,1,43,1,23,1,-31,1,-1,1,33,1,-217,1,24,1,40,1,23,1,1,1,16,1
562,20,1,41,1,21,1,-30,1,0,1,31,1,-218,1,23,1,39,1,23,1,1,1,16,1
563,22,1,39,1,17,1,-30,1,3,1,28,1,-222,1,22,1,38,1,21,1,0,1,16,1
564,22,1,37,1,15,1,-29,1,4,1,26,1,-224,1,22,1,37,1,20,1,-1,1,15,1
565,21,1,35,1,14,1,-28,1,4,1,25,1,-222,1,23,1,38,1,21,1,0,1,14,1
566,19,1,33,1,14,1,-26,1,3,1,24,1,-222,1,21,1,36,1,20,1,-1,1,14,1
567,17,1,30,1,13,1,-23,1,2,1,22,1,-221,1,21,1,36,1,20,1,-2,1,14,1
568,16,1,30,1,14,1,-23,1,1,1,22,1,-220,1,21,1,35,1,19,1,-3,1,13,1
569,13,1,29,1,16,1,-21,1,-1,1,23,1,-220,1,21,1,35,1,18,1,-4,1,12,1
570,10,1,26,1,16,1,-18,1,-3,1,21,1,-221,1,19,1,32,1,16,1,-5,1,11,1
571,9,1,24,1,15,1,-16,1,-3,1,20,1,-221,1,17,1,30,1,12,1,-6,1,9,1
572,7,1,22,1,15,1,-14,1,-4,1,19,1,-219,1,17,1,29,1,11,1,-8,1,7,1
573,4,1,18,1,14,1,-11,1,-5,1,16,1,-218,1,17,1,29,1,9,1,-11,1,6,1
574,4,1,16,1,12,1,-10,1,-4,1,14,1,-218,1,17,1,27,1,8,1,-12,1,4,1
575,2,1,13,1,11,1,-7,1,-4,1,12,1,-219,1,17,1,26,1,5,1,-15,1,1,1
576,2,1,12,1,10,1,-7,1,-4,1,11,1,-220,1,15,1,24,1,4,1,-16,1,1,1
577,2,1,10,1,8,1,-6,1,-3,1,9,1,-220,1,14,1,23,1,4,1,-16,1,0,1
578,1,1,10,1,9,1,-5,1,-4,1,10,1,-219,1,14,1,23,1,4,1,-17,1,0,1
579,0,1,11,1,11,1,-5,1,-5,1,11,1,-219,1,13,1,22,1,3,1,-17,1,0,1
580,0,1,11,1,11,1,-5,1,-5,1,11,1,-222,1,13,1,22,1,2,1,-18,1,0,1
581,1,1,12,1,11,1,-6,1,-5,1,12,1,-226,1,13,1,21,1,2,1,-17,1,0,1
582,1,1,11,1,10,1,-6,1,-4,1,11,1,-227,1,13,1,21,1,2,1,-17,1,1,1
583,0,1,10,1,10,1,-5,1,-5,1,10,1,-226,1,12,1,19,1,0,1,-18,1,0,1
584,-1,1,9,1,10,1,-4,1,-5,1,9,1,-225,1,12,1,20,1,0,1,-18,1,0,1
585,-1,1,9,1,10,1,-4,1,-5,1,9,1,-225,1,10,1,20,1,1,1,-18,1,0,1
586,-2,1,7,1,9,1,-2,1,-5,1,8,1,-225,1,9,1,20,1,0,1,-18,1,1,1
587,-5,1,6,1,11,1,0,1,-8,1,8,1,-225,1,10,1,20,1,2,1,-17,1,0,1
588,-2,1,8,1,10,1,-3,1,-6,1,9,1,-228,1,9,1,19,1,0,1,-16,1,0,1
589,0,1,8,1,8,1,-4,1,-4,1,8,1,-228,1,8,1,17,1,-1,1,-18,1,0,1
590,0,1,8,1,8,1,-4,1,-4,1,8,1,-229,1,7,1,17,1,-3,1,-20,1,-1,1
591,-1,1,8,1,9,1,-3,1,-5,1,8,1,-229,1,7,1,18,1,-1,1,-19,1,-1,1
592,-1,1,8,1,9,1,-3,1,-5,1,8,1,-228,1,8,1,18,1,-1,1,-19,1,-1,1
593,-1,1,8,1,9,1,-3,1,-5,1,8,1,-227,1,7,1,18,1,-2,1,-19,1,-1,1
594,-2,1,6,1,8,1,-2,1,-5,1,7,1,-224,1,7,1,18,1,-2,1,-19,1,0,1
595,-3,1,5,1,8,1,-1,1,-5,1,6,1,-222,1,6,1,18,1,-2,1,-19,1,-2,1
596,-3,1,5,1,8,1,-1,1,-5,1,6,1,-220,1,6,1,17,1,-2,1,-19,1,-2,1
597,-2,1,5,1,7,1,-1,1,-4,1,6,1,-218,1,6,1,17,1,-1,1,-18,1,-1,1
598,-2,1,5,1,7,1,-1,1,-4,1,6,1,-215,1,6,1,18,1,-1,1,-18,1,-1,1
599,-3,1,5,1,8,1,-1,1,-5,1,6,1,-215,1,5,1,18,1,-1,1,-19,1,-1,1
600,-4,1,5,1,9,1,0,1,-6,1,7,1,-212,1,5,1,18,1,-1,1,-18,1,-1,1
601,-4,1,5,1,9,1,0,1,-6,1,7,1,-211,1,5,1,17,1,-1,1,-18,1,-1,1
602,-3,1,5,1,8,1,-1,1,-5,1,6,1,-209,1,4,1,17,1,-2,1,-19,1,-2,1
603,-2,1,3,1,5,1,0,1,-3,1,4,1,-208,1,5,1,16,1,-3,1,-19,1,-2,1
604,-4,1,1,1,5,1,1,1,-4,1,3,1,-205,1,6,1,16,1,-3,1,-19,1,-3,1
605,-3,1,0,1,3,1,1,1,-3,1,1,1,-202,1,9,1,19,1,-1,1,-20,1,-3,1
606,-3,1,-2,1,1,1,2,1,-2,1,-1,1,-200,1,14,1,22,1,0,1,-21,1,-4,1
607,-2,1,-4,1,-2,1,3,1,0,1,-3,1,-197,1,20,1,27,1,3,1,-21,1,-6,1
608,1,1,-4,1,-5,1,1,1,3,1,-4,1,-193,1,28,1,35,1,8,1,-19,1,-5,1
609,6,1,-5,1,-11,1,0,1,8,1,-8,1,-189,1,38,1,43,1,13,1,-18,1,-5,1
610,8,1,-7,1,-15,1,0,1,11,1,-11,1,-185,1,49,1,55,1,20,1,-15,1,-5,1
611,9,1,-7,1,-16,1,-1,1,12,1,-11,1,-178,1,65,1,69,1,29,1,-11,1,-4,1
612,11,1,-6,1,-17,1,-2,1,14,1,-11,1,-167,1,88,1,88,1,42,1,-6,1,-2,1
613,16,1,-3,1,-19,1,-6,1,17,1,-11,1,-158,1,115,1,110,1,57,1,-1,1,0,1
614,23,1,-1,1,-24,1,-11,1,23,1,-12,1,-146,1,152,1,139,1,78,1,9,1,3,1
615,36,1,7,1,-29,1,-21,1,33,1,-11,1,-135,1,188,1,171,1,106,1,25,1,11,1
616,48,1,15,1,-33,1,-31,1,41,1,-9,1,-124,1,223,1,204,1,136,1,46,1,21,1
617,63,1,24,1,-39,1,-43,1,51,1,-7,1,-110,1,263,1,238,1,168,1,67,1,32,1
618,79,1,32,1,-47,1,-55,1,63,1,-7,1,-92,1,299,1,272,1,202,1,91,1,45,1
619,94,1,46,1,-48,1,-70,1,71,1,-1,1,-72,1,317,1,299,1,234,1,114,1,58,1
620,105,1,60,1,-45,1,-82,1,75,1,8,1,-53,1,315,1,314,1,257,1,135,1,71,1
621,116,1,75,1,-41,1,-95,1,79,1,17,1,-42,1,299,1,319,1,274,1,155,1,86,1
622,115,1,87,1,-28,1,-101,1,72,1,30,1,-29,1,263,1,300,1,269,1,163,1,93,1
623,95,1,105,1,10,1,-100,1,43,1,58,1,-19,1,194,1,252,1,239,1,154,1,95,1
624,60,1,122,1,62,1,-91,1,-1,1,92,1,-17,1,101,1,180,1,179,1,124,1,88,1
625,13,1,145,1,132,1,-79,1,-59,1,139,1,-36,1,-19,1,90,1,105,1,85,1,79,1
626,-35,1,170,1,205,1,-67,1,-120,1,187,1,-63,1,-145,1,-7,1,32,1,49,1,72,1
627,-76,1,181,1,257,1,-52,1,-166,1,219,1,-82,1,-247,1,-95,1,-36,1,14,1,59,1
628,-101,1,173,1,274,1,-36,1,-187,1,223,1,-114,1,-332,1,-177,1,-99,1,-24,1,42,1
629,-113,1,161,1,274,1,-24,1,-193,1,217,1,-159,1,-410,1,-260,1,-157,1,-53,1,30,1
630,-120,1,153,1,273,1,-16,1,-196,1,213,1,-219,1,-495,1,-349,1,-212,1,-74,1,23,1
631,-120,1,141,1,261,1,-10,1,-190,1,201,1,-280,1,-556,1,-410,1,-250,1,-89,1,17,1
632,-114,1,111,1,225,1,1,1,-169,1,168,1,-338,1,-585,1,-445,1,-277,1,-104,1,7,1
633,-113,1,81,1,194,1,16,1,-153,1,137,1,-378,1,-592,1,-467,1,-300,1,-119,1,-4,1
634,-113,1,61,1,174,1,26,1,-143,1,117,1,-401,1,-589,1,-480,1,-317,1,-130,1,-13,1
635,-110,1,45,1,155,1,32,1,-132,1,100,1,-402,1,-569,1,-477,1,-323,1,-137,1,-20,1
636,-109,1,25,1,134,1,42,1,-121,1,79,1,-396,1,-543,1,-458,1,-318,1,-141,1,-28,1
637,-107,1,4,1,111,1,51,1,-109,1,57,1,-389,1,-511,1,-430,1,-308,1,-145,1,-37,1
638,-106,1,-17,1,89,1,61,1,-98,1,36,1,-363,1,-458,1,-388,1,-286,1,-145,1,-44,1
639,-103,1,-33,1,70,1,68,1,-87,1,18,1,-333,1,-401,1,-342,1,-260,1,-139,1,-48,1
640,-95,1,-41,1,54,1,68,1,-75,1,6,1,-314,1,-353,1,-300,1,-233,1,-129,1,-48,1
641,-82,1,-44,1,38,1,63,1,-60,1,-3,1,-292,1,-300,1,-255,1,-203,1,-118,1,-45,1
642,-72,1,-47,1,25,1,59,1,-49,1,-11,1,-274,1,-253,1,-215,1,-173,1,-105,1,-41,1
643,-65,1,-48,1,17,1,56,1,-41,1,-16,1,-257,1,-219,1,-186,1,-154,1,-96,1,-40,1
644,-59,1,-48,1,11,1,53,1,-35,1,-19,1,-240,1,-191,1,-163,1,-138,1,-89,1,-37,1
645,-52,1,-44,1,8,1,48,1,-30,1,-18,1,-226,1,-165,1,-141,1,-121,1,-81,1,-34,1
646,-45,1,-39,1,6,1,42,1,-26,1,-17,1,-214,1,-142,1,-118,1,-104,1,-73,1,-31,1
647,-34,1,-28,1,6,1,31,1,-20,1,-11,1,-202,1,-116,1,-93,1,-84,1,-62,1,-24,1
648,-24,1,-16,1,8,1,20,1,-16,1,-4,1,-190,1,-90,1,-67,1,-65,1,-50,1,-17,1
649,-16,1,-6,1,10,1,11,1,-13,1,2,1,-171,1,-63,1,-43,1,-47,1,-40,1,-12,1
650,-12,1,1,1,13,1,5,1,-12,1,7,1,-154,1,-42,1,-25,1,-33,1,-33,1,-8,1
651,-12,1,6,1,18,1,3,1,-15,1,12,1,-142,1,-26,1,-13,1,-24,1,-28,1,-6,1
652,-9,1,8,1,17,1,0,1,-13,1,12,1,-134,1,-15,1,-5,1,-18,1,-26,1,-4,1
653,-6,1,9,1,15,1,-1,1,-10,1,12,1,-128,1,-9,1,0,1,-14,1,-25,1,-3,1
654,-5,1,7,1,12,1,-1,1,-8,1,9,1,-123,1,-7,1,2,1,-14,1,-25,1,-3,1
655,-5,1,7,1,12,1,-1,1,-8,1,9,1,-121,1,-4,1,4,1,-12,1,-23,1,-2,1
656,-6,1,8,1,14,1,-1,1,-10,1,11,1,-119,1,-2,1,6,1,-11,1,-23,1,-2,1
657,-4,1,7,1,11,1,-1,1,-7,1,9,1,-116,1,-2,1,6,1,-11,1,-23,1,-3,1
658,-2,1,7,1,9,1,-2,1,-5,1,8,1,-112,1,0,1,9,1,-10,1,-23,1,-4,1
659,-3,1,7,1,10,1,-2,1,-6,1,8,1,-108,1,0,1,10,1,-8,1,-22,1,-4,1
660,-1,1,7,1,8,1,-3,1,-4,1,7,1,-105,1,1,1,12,1,-8,1,-21,1,-2,1
661,-1,1,8,1,9,1,-3,1,-5,1,8,1,-99,1,3,1,14,1,-6,1,-20,1,-2,1
662,-1,1,9,1,10,1,-4,1,-5,1,9,1,-96,1,4,1,14,1,-6,1,-20,1,-2,1
663,-1,1,9,1,10,1,-4,1,-5,1,9,1,-92,1,5,1,14,1,-4,1,-19,1,-1,1
664,0,1,9,1,9,1,-4,1,-4,1,9,1,-89,1,6,1,15,1,-4,1,-19,1,-1,1
665,0,1,10,1,10,1,-5,1,-5,1,10,1,-86,1,6,1,16,1,-4,1,-19,1,0,1
666,-2,1,9,1,11,1,-3,1,-6,1,10,1,-83,1,6,1,15,1,-4,1,-19,1,-1,1
667,1,1,9,1,8,1,-5,1,-3,1,9,1,-81,1,5,1,14,1,-6,1,-18,1,0,1
668,3,1,9,1,6,1,-6,1,-1,1,8,1,-78,1,5,1,15,1,-5,1,-18,1,1,1
669,3,1,12,1,9,1,-7,1,-3,1,11,1,-75,1,6,1,16,1,-4,1,-17,1,0,1
670,3,1,12,1,9,1,-7,1,-3,1,11,1,-72,1,7,1,18,1,-3,1,-16,1,0,1
671,2,1,11,1,9,1,-6,1,-3,1,10,1,-71,1,8,1,18,1,-1,1,-16,1,2,1
672,3,1,13,1,10,1,-8,1,-3,1,12,1,-70,1,7,1,18,1,-2,1,-16,1,0,1
673,1,1,13,1,12,1,-7,1,-5,1,13,1,-68,1,9,1,18,1,-2,1,-16,1,0,1
674,1,1,12,1,11,1,-6,1,-5,1,12,1,-67,1,7,1,18,1,-2,1,-16,1,1,1
675,3,1,12,1,9,1,-7,1,-3,1,11,1,-65,1,6,1,15,1,-2,1,-16,1,1,1
676,4,1,12,1,8,1,-8,1,-2,1,10,1,-63,1,5,1,15,1,-2,1,-16,1,0,1
677,4,1,13,1,9,1,-8,1,-2,1,11,1,-59,1,5,1,16,1,-1,1,-15,1,1,1
678,6,1,15,1,9,1,-10,1,-1,1,12,1,-58,1,3,1,15,1,-3,1,-16,1,1,1
679,6,1,14,1,8,1,-10,1,-1,1,11,1,-55,1,5,1,16,1,-1,1,-15,1,2,1
680,5,1,14,1,9,1,-9,1,-2,1,12,1,-53,1,5,1,18,1,0,1,-14,1,3,1
681,5,1,17,1,12,1,-11,1,-3,1,15,1,-50,1,5,1,19,1,1,1,-14,1,2,1
682,7,1,16,1,9,1,-11,1,-1,1,13,1,-49,1,4,1,18,1,2,1,-15,1,2,1
683,8,1,16,1,8,1,-12,1,0,1,12,1,-46,1,5,1,18,1,1,1,-15,1,2,1
684,7,1,16,1,9,1,-11,1,-1,1,13,1,-43,1,5,1,18,1,1,1,-14,1,3,1
685,7,1,15,1,8,1,-11,1,0,1,12,1,-41,1,6,1,19,1,2,1,-13,1,3,1
686,6,1,16,1,10,1,-11,1,-2,1,13,1,-40,1,6,1,20,1,3,1,-11,1,4,1
687,6,1,16,1,10,1,-11,1,-2,1,13,1,-39,1,5,1,19,1,3,1,-12,1,5,1
688,7,1,17,1,10,1,-12,1,-1,1,14,1,-35,1,6,1,20,1,3,1,-11,1,5,1
689,9,1,18,1,9,1,-13,1,0,1,14,1,-32,1,5,1,19,1,1,1,-11,1,5,1
690,11,1,18,1,7,1,-14,1,2,1,13,1,-30,1,4,1,18,1,1,1,-12,1,5,1
691,10,1,17,1,7,1,-13,1,2,1,12,1,-26,1,4,1,18,1,3,1,-11,1,5,1
692,12,1,18,1,6,1,-15,1,3,1,12,1,-24,1,4,1,18,1,3,1,-9,1,6,1
693,12,1,19,1,7,1,-15,1,3,1,13,1,-22,1,4,1,18,1,3,1,-9,1,6,1
694,9,1,19,1,10,1,-14,1,0,1,15,1,-20,1,5,1,18,1,3,1,-10,1,6,1
695,10,1,19,1,9,1,-14,1,1,1,14,1,-17,1,5,1,17,1,3,1,-10,1,6,1
696,12,1,18,1,6,1,-15,1,3,1,12,1,-14,1,5,1,17,1,3,1,-9,1,7,1
697,13,1,18,1,5,1,-15,1,4,1,12,1,-12,1,5,1,18,1,3,1,-10,1,7,1
698,13,1,20,1,7,1,-16,1,3,1,14,1,-10,1,5,1,19,1,3,1,-8,1,8,1
699,14,1,20,1,6,1,-17,1,4,1,13,1,-8,1,4,1,19,1,3,1,-8,1,8,1
700,15,1,20,1,5,1,-17,1,5,1,13,1,-6,1,4,1,19,1,4,1,-8,1,9,1
701,16,1,20,1,4,1,-18,1,6,1,12,1,-3,1,5,1,19,1,5,1,-6,1,9,1
702,16,1,21,1,5,1,-18,1,6,1,13,1,-2,1,4,1,20,1,5,1,-7,1,10,1
703,16,1,20,1,4,1,-18,1,6,1,12,1,-2,1,2,1,18,1,3,1,-6,1,10,1
704,17,1,20,1,3,1,-18,1,7,1,12,1,-1,1,1,1,17,1,3,1,-5,1,10,1
705,17,1,21,1,4,1,-19,1,7,1,13,1,-2,1,2,1,17,1,3,1,-3,1,11,1
706,16,1,22,1,6,1,-19,1,5,1,14,1,-4,1,0,1,16,1,3,1,-3,1,11,1
707,19,1,22,1,3,1,-20,1,8,1,13,1,-4,1,-1,1,14,1,1,1,-5,1,10,1
708,20,1,23,1,3,1,-21,1,9,1,13,1,-3,1,-1,1,14,1,2,1,-5,1,11,1
709,22,1,25,1,3,1,-23,1,10,1,14,1,-4,1,-2,1,12,1,2,1,-5,1,11,1
710,21,1,24,1,3,1,-22,1,9,1,14,1,-5,1,-3,1,11,1,1,1,-4,1,10,1
711,22,1,24,1,2,1,-23,1,10,1,13,1,-5,1,-3,1,11,1,1,1,-4,1,13,1
712,23,1,26,1,3,1,-24,1,10,1,15,1,-6,1,-4,1,10,1,2,1,-2,1,13,1
713,22,1,25,1,3,1,-23,1,10,1,14,1,-9,1,-4,1,10,1,2,1,-1,1,14,1
714,22,1,25,1,3,1,-23,1,10,1,14,1,-11,1,-6,1,7,1,0,1,-3,1,13,1
715,25,1,25,1,0,1,-25,1,13,1,13,1,-13,1,-9,1,6,1,-1,1,-3,1,13,1
716,26,1,25,1,-1,1,-25,1,14,1,12,1,-14,1,-11,1,5,1,-1,1,-1,1,13,1
717,25,1,26,1,1,1,-25,1,12,1,14,1,-15,1,-12,1,3,1,-1,1,-1,1,15,1
718,26,1,27,1,1,1,-26,1,13,1,14,1,-17,1,-14,1,1,1,-2,1,-1,1,15,1
719,28,1,27,1,-1,1,-27,1,15,1,13,1,-18,1,-17,1,0,1,-4,1,-2,1,15,1
720,28,1,28,1,0,1,-28,1,14,1,14,1,-18,1,-18,1,-1,1,-3,1,-1,1,15,1
721,29,1,29,1,0,1,-29,1,15,1,15,1,-19,1,-20,1,-1,1,-3,1,-1,1,16,1
722,30,1,31,1,1,1,-30,1,15,1,16,1,-20,1,-21,1,-4,1,-4,1,-1,1,15,1
723,28,1,30,1,2,1,-29,1,13,1,16,1,-21,1,-23,1,-7,1,-6,1,-1,1,17,1
724,30,1,30,1,0,1,-30,1,15,1,15,1,-21,1,-25,1,-9,1,-7,1,0,1,17,1
725,33,1,31,1,-2,1,-32,1,18,1,15,1,-22,1,-27,1,-11,1,-8,1,0,1,18,1
726,34,1,31,1,-3,1,-32,1,19,1,14,1,-22,1,-29,1,-14,1,-9,1,0,1,18,1
727,33,1,30,1,-3,1,-31,1,18,1,14,1,-21,1,-31,1,-16,1,-11,1,0,1,19,1
728,31,1,29,1,-2,1,-30,1,17,1,14,1,-17,1,-32,1,-16,1,-11,1,1,1,19,1
729,31,1,29,1,-2,1,-30,1,17,1,14,1,-14,1,-33,1,-16,1,-10,1,2,1,20,1
730,32,1,30,1,-2,1,-31,1,17,1,14,1,-13,1,-35,1,-18,1,-11,1,1,1,21,1
731,34,1,31,1,-3,1,-32,1,19,1,14,1,-12,1,-37,1,-21,1,-12,1,1,1,21,1
732,35,1,31,1,-4,1,-33,1,20,1,14,1,-11,1,-39,1,-21,1,-13,1,2,1,22,1
733,36,1,32,1,-4,1,-34,1,20,1,14,1,-11,1,-41,1,-23,1,-14,1,1,1,21,1
734,36,1,32,1,-4,1,-34,1,20,1,14,1,-13,1,-42,1,-25,1,-16,1,0,1,20,1
735,35,1,32,1,-3,1,-33,1,19,1,15,1,-12,1,-41,1,-26,1,-16,1,0,1,21,1
736,33,1,30,1,-3,1,-31,1,18,1,14,1,-10,1,-41,1,-25,1,-16,1,1,1,22,1
737,33,1,31,1,-2,1,-32,1,18,1,15,1,-9,1,-42,1,-25,1,-16,1,1,1,22,1
738,33,1,32,1,-1,1,-32,1,17,1,16,1,-8,1,-42,1,-26,1,-16,1,0,1,22,1
739,35,1,33,1,-2,1,-34,1,19,1,16,1,-6,1,-41,1,-25,1,-15,1,0,1,23,1
740,34,1,33,1,-1,1,-33,1,18,1,16,1,-4,1,-39,1,-24,1,-13,1,0,1,22,1
741,33,1,34,1,1,1,-33,1,16,1,18,1,-2,1,-37,1,-22,1,-13,1,1,1,21,1
742,34,1,34,1,0,1,-34,1,17,1,17,1,1,1,-34,1,-21,1,-13,1,0,1,20,1
743,35,1,32,1,-3,1,-33,1,19,1,15,1,4,1,-32,1,-19,1,-12,1,0,1,21,1
744,32,1,30,1,-2,1,-31,1,17,1,14,1,9,1,-28,1,-16,1,-11,1,0,1,21,1
745,32,1,30,1,-2,1,-31,1,17,1,14,1,12,1,-24,1,-13,1,-11,1,-1,1,19,1
746,31,1,29,1,-2,1,-30,1,17,1,14,1,16,1,-21,1,-10,1,-11,1,-2,1,17,1
747,28,1,28,1,0,1,-28,1,14,1,14,1,21,1,-16,1,-6,1,-9,1,-1,1,17,1
748,27,1,28,1,1,1,-27,1,13,1,15,1,25,1,-9,1,-2,1,-6,1,-1,1,17,1
749,27,1,27,1,0,1,-27,1,14,1,14,1,29,1,-5,1,0,1,-5,1,-2,1,15,1
750,27,1,27,1,0,1,-27,1,14,1,14,1,33,1,0,1,3,1,-3,1,-3,1,14,1
751,25,1,27,1,2,1,-26,1,12,1,15,1,38,1,5,1,8,1,-1,1,-4,1,13,1
752,23,1,27,1,4,1,-25,1,10,1,16,1,43,1,11,1,13,1,1,1,-2,1,14,1
753,21,1,27,1,6,1,-24,1,8,1,17,1,47,1,18,1,17,1,4,1,-2,1,13,1
754,19,1,24,1,5,1,-21,1,7,1,15,1,49,1,20,1,20,1,4,1,-3,1,11,1
755,18,1,24,1,6,1,-21,1,6,1,15,1,54,1,24,1,23,1,4,1,-4,1,11,1
756,16,1,23,1,7,1,-19,1,5,1,15,1,58,1,28,1,27,1,7,1,-4,1,11,1
757,13,1,22,1,9,1,-17,1,2,1,16,1,61,1,28,1,28,1,8,1,-4,1,10,1
758,13,1,20,1,7,1,-16,1,3,1,14,1,60,1,30,1,28,1,7,1,-5,1,9,1
759,13,1,20,1,7,1,-16,1,3,1,14,1,61,1,32,1,30,1,7,1,-6,1,8,1
760,12,1,19,1,7,1,-15,1,3,1,13,1,64,1,33,1,31,1,8,1,-7,1,8,1
761,10,1,19,1,9,1,-14,1,1,1,14,1,66,1,36,1,34,1,9,1,-7,1,7,1
762,8,1,20,1,12,1,-14,1,-2,1,16,1,68,1,37,1,35,1,11,1,-7,1,7,1
763,6,1,20,1,14,1,-13,1,-4,1,17,1,69,1,37,1,36,1,10,1,-7,1,8,1
764,6,1,20,1,14,1,-13,1,-4,1,17,1,68,1,35,1,36,1,9,1,-9,1,5,1
765,7,1,20,1,13,1,-13,1,-3,1,17,1,68,1,35,1,36,1,8,1,-10,1,4,1
766,6,1,20,1,14,1,-13,1,-4,1,17,1,70,1,35,1,35,1,6,1,-12,1,3,1
767,4,1,19,1,15,1,-11,1,-5,1,17,1,73,1,35,1,35,1,6,1,-14,1,3,1
768,4,1,18,1,14,1,-11,1,-5,1,16,1,76,1,35,1,35,1,7,1,-13,1,3,1
769,4,1,17,1,13,1,-10,1,-4,1,15,1,77,1,33,1,33,1,5,1,-14,1,2,1
770,4,1,18,1,14,1,-11,1,-5,1,16,1,78,1,32,1,33,1,5,1,-16,1,1,1
771,3,1,19,1,16,1,-11,1,-6,1,18,1,79,1,31,1,34,1,5,1,-15,1,1,1
772,1,1,17,1,16,1,-9,1,-7,1,17,1,78,1,31,1,34,1,6,1,-15,1,2,1
773,0,1,17,1,17,1,-8,1,-8,1,17,1,77,1,30,1,34,1,5,1,-15,1,2,1
774,-1,1,17,1,18,1,-8,1,-9,1,17,1,77,1,29,1,33,1,4,1,-16,1,1,1
775,-1,1,16,1,17,1,-7,1,-9,1,16,1,77,1,28,1,31,1,3,1,-17,1,2,1
776,-1,1,15,1,16,1,-7,1,-8,1,15,1,77,1,27,1,31,1,3,1,-18,1,1,1
777,-2,1,15,1,17,1,-6,1,-9,1,16,1,76,1,26,1,31,1,2,1,-17,1,0,1
778,-1,1,15,1,16,1,-7,1,-8,1,15,1,77,1,26,1,31,1,3,1,-17,1,0,1
779,-4,1,15,1,19,1,-5,1,-11,1,17,1,79,1,27,1,32,1,4,1,-17,1,1,1
780,-5,1,16,1,21,1,-5,1,-13,1,18,1,79,1,26,1,31,1,4,1,-16,1,0,1
781,-2,1,18,1,20,1,-8,1,-11,1,19,1,79,1,24,1,28,1,1,1,-18,1,-1,1
782,0,1,18,1,18,1,-9,1,-9,1,18,1,81,1,24,1,29,1,2,1,-19,1,0,1
783,-1,1,16,1,17,1,-7,1,-9,1,16,1,83,1,24,1,29,1,2,1,-18,1,0,1
784,-2,1,16,1,18,1,-7,1,-10,1,17,1,83,1,24,1,29,1,2,1,-19,1,0,1
785,-1,1,17,1,18,1,-8,1,-9,1,17,1,84,1,24,1,30,1,2,1,-17,1,1,1
786,-1,1,19,1,20,1,-9,1,-10,1,19,1,84,1,25,1,30,1,3,1,-17,1,1,1
787,-2,1,18,1,20,1,-8,1,-11,1,19,1,86,1,25,1,30,1,2,1,-18,1,0,1
788,-1,1,18,1,19,1,-8,1,-10,1,18,1,86,1,24,1,30,1,2,1,-18,1,0,1
789,-1,1,18,1,19,1,-8,1,-10,1,18,1,86,1,23,1,30,1,3,1,-18,1,0,1
790,-2,1,18,1,20,1,-8,1,-11,1,19,1,87,1,23,1,30,1,3,1,-18,1,0,1
791,-3,1,18,1,21,1,-7,1,-12,1,19,1,89,1,25,1,31,1,3,1,-17,1,1,1
792,-1,1,17,1,18,1,-8,1,-9,1,17,1,89,1,26,1,30,1,2,1,-17,1,2,1
793,-1,1,17,1,18,1,-8,1,-9,1,17,1,90,1,27,1,31,1,3,1,-16,1,1,1
794,0,1,19,1,19,1,-9,1,-9,1,19,1,90,1,26,1,31,1,1,1,-17,1,0,1
795,0,1,16,1,16,1,-8,1,-8,1,16,1,89,1,24,1,29,1,0,1,-18,1,-1,1
796,0,1,15,1,15,1,-7,1,-7,1,15,1,89,1,24,1,29,1,0,1,-17,1,0,1
797,-1,1,15,1,16,1,-7,1,-8,1,15,1,92,1,26,1,30,1,1,1,-17,1,0,1
798,0,1,16,1,16,1,-8,1,-8,1,16,1,93,1,26,1,30,1,0,1,-17,1,0,1
799,-2,1,16,1,18,1,-7,1,-10,1,17,1,94,1,27,1,31,1,2,1,-16,1,2,1
800,-1,1,17,1,18,1,-8,1,-9,1,17,1,96,1,26,1,30,1,1,1,-16,1,1,1
801,0,1,17,1,17,1,-8,1,-8,1,17,1,94,1,26,1,30,1,1,1,-17,1,1,1
802,-1,1,18,1,19,1,-8,1,-10,1,18,1,96,1,26,1,31,1,2,1,-16,1,1,1
803,-1,1,18,1,19,1,-8,1,-10,1,18,1,98,1,26,1,31,1,2,1,-16,1,1,1
804,-1,1,17,1,18,1,-8,1,-9,1,17,1,99,1,28,1,32,1,2,1,-16,1,2,1
805,0,1,17,1,17,1,-8,1,-8,1,17,1,100,1,28,1,32,1,3,1,-16,1,1,1
806,1,1,18,1,17,1,-9,1,-8,1,18,1,99,1,27,1,31,1,2,1,-16,1,1,1
807,0,1,18,1,18,1,-9,1,-9,1,18,1,101,1,27,1,32,1,2,1,-16,1,1,1
808,-1,1,19,1,20,1,-9,1,-10,1,19,1,103,1,29,1,33,1,3,1,-14,1,2,1
809,0,1,19,1,19,1,-9,1,-9,1,19,1,104,1,29,1,33,1,4,1,-15,1,2,1
810,2,1,20,1,18,1,-11,1,-8,1,19,1,103,1,29,1,34,1,5,1,-14,1,2,1
811,1,1,21,1,20,1,-11,1,-9,1,21,1,104,1,30,1,35,1,7,1,-13,1,3,1
812,0,1,22,1,22,1,-11,1,-11,1,22,1,105,1,31,1,35,1,6,1,-13,1,3,1
813,0,1,23,1,23,1,-11,1,-11,1,23,1,108,1,33,1,37,1,8,1,-12,1,4,1
814,1,1,25,1,24,1,-13,1,-11,1,25,1,110,1,36,1,39,1,9,1,-11,1,4,1
815,2,1,26,1,24,1,-14,1,-11,1,25,1,111,1,37,1,41,1,10,1,-9,1,5,1
816,2,1,26,1,24,1,-14,1,-11,1,25,1,113,1,40,1,44,1,13,1,-7,1,6,1
817,4,1,30,1,26,1,-17,1,-11,1,28,1,115,1,44,1,48,1,16,1,-6,1,8,1
818,3,1,32,1,29,1,-17,1,-13,1,31,1,117,1,46,1,49,1,17,1,-6,1,8,1
819,7,1,33,1,26,1,-20,1,-9,1,30,1,117,1,44,1,48,1,17,1,-6,1,8,1
820,9,1,34,1,25,1,-21,1,-8,1,30,1,119,1,45,1,48,1,18,1,-5,1,8,1
821,9,1,36,1,27,1,-22,1,-9,1,32,1,125,1,47,1,50,1,19,1,-3,1,8,1
822,9,1,38,1,29,1,-23,1,-10,1,34,1,129,1,50,1,53,1,22,1,-1,1,9,1
823,9,1,41,1,32,1,-25,1,-11,1,37,1,131,1,53,1,56,1,24,1,0,1,11,1
824,11,1,42,1,31,1,-26,1,-10,1,37,1,131,1,54,1,57,1,25,1,1,1,12,1
825,14,1,44,1,30,1,-29,1,-8,1,37,1,131,1,55,1,58,1,27,1,1,1,11,1
826,15,1,45,1,30,1,-30,1,-7,1,38,1,131,1,54,1,56,1,25,1,0,1,11,1
827,15,1,46,1,31,1,-30,1,-8,1,39,1,130,1,51,1,56,1,25,1,2,1,12,1
828,18,1,44,1,26,1,-31,1,-4,1,35,1,126,1,47,1,53,1,24,1,2,1,13,1
829,20,1,44,1,24,1,-32,1,-2,1,34,1,123,1,43,1,50,1,23,1,3,1,14,1
830,20,1,44,1,24,1,-32,1,-2,1,34,1,120,1,40,1,50,1,23,1,3,1,15,1
831,21,1,44,1,23,1,-32,1,-1,1,34,1,118,1,38,1,48,1,22,1,3,1,15,1
832,22,1,41,1,19,1,-31,1,2,1,30,1,114,1,33,1,44,1,19,1,2,1,14,1
833,21,1,41,1,20,1,-31,1,1,1,31,1,113,1,32,1,44,1,19,1,2,1,14,1
834,19,1,41,1,22,1,-30,1,-1,1,32,1,115,1,33,1,46,1,20,1,3,1,15,1
835,19,1,41,1,22,1,-30,1,-1,1,32,1,113,1,31,1,44,1,19,1,2,1,14,1
836,21,1,41,1,20,1,-31,1,1,1,31,1,112,1,29,1,42,1,18,1,1,1,13,1
837,20,1,41,1,21,1,-30,1,0,1,31,1,112,1,27,1,40,1,16,1,0,1,12,1
838,20,1,39,1,19,1,-29,1,1,1,29,1,113,1,26,1,38,1,15,1,0,1,13,1
839,22,1,40,1,18,1,-31,1,2,1,29,1,112,1,25,1,38,1,13,1,-1,1,14,1
840,23,1,43,1,20,1,-33,1,2,1,32,1,113,1,25,1,38,1,15,1,1,1,14,1
841,24,1,44,1,20,1,-34,1,2,1,32,1,111,1,25,1,39,1,15,1,2,1,15,1
842,22,1,44,1,22,1,-33,1,0,1,33,1,111,1,24,1,38,1,15,1,2,1,16,1
843,21,1,43,1,22,1,-32,1,0,1,33,1,111,1,24,1,38,1,15,1,2,1,15,1
844,21,1,41,1,20,1,-31,1,1,1,31,1,112,1,24,1,38,1,15,1,2,1,15,1
845,21,1,38,1,17,1,-29,1,2,1,28,1,111,1,25,1,39,1,15,1,1,1,15,1
846,21,1,35,1,14,1,-28,1,4,1,25,1,109,1,25,1,39,1,14,1,1,1,14,1
847,16,1,33,1,17,1,-24,1,0,1,25,1,110,1,25,1,39,1,14,1,1,1,15,1
848,18,1,33,1,15,1,-25,1,2,1,24,1,109,1,22,1,37,1,12,1,1,1,13,1
849,17,1,30,1,13,1,-23,1,2,1,22,1,108,1,19,1,34,1,11,1,0,1,12,1
850,13,1,29,1,16,1,-21,1,-1,1,23,1,108,1,18,1,33,1,9,1,-3,1,11,1
851,11,1,29,1,18,1,-20,1,-3,1,24,1,108,1,17,1,31,1,7,1,-5,1,9,1
852,9,1,26,1,17,1,-17,1,-4,1,22,1,108,1,16,1,29,1,5,1,-7,1,8,1
853,5,1,24,1,19,1,-14,1,-7,1,22,1,109,1,16,1,28,1,4,1,-8,1,6,1
854,4,1,20,1,16,1,-12,1,-6,1,18,1,110,1,16,1,27,1,4,1,-9,1,5,1
855,3,1,17,1,14,1,-10,1,-5,1,16,1,106,1,17,1,28,1,3,1,-10,1,4,1
856,4,1,16,1,12,1,-10,1,-4,1,14,1,97,1,17,1,27,1,1,1,-11,1,2,1
857,2,1,14,1,12,1,-8,1,-5,1,13,1,87,1,16,1,25,1,0,1,-13,1,1,1
858,0,1,14,1,14,1,-7,1,-7,1,14,1,83,1,16,1,25,1,0,1,-14,1,1,1
859,0,1,13,1,13,1,-6,1,-6,1,13,1,79,1,15,1,24,1,-1,1,-15,1,0,1
860,-1,1,13,1,14,1,-6,1,-7,1,13,1,77,1,15,1,24,1,-1,1,-14,1,1,1
861,-1,1,14,1,15,1,-6,1,-8,1,14,1,75,1,15,1,24,1,0,1,-13,1,1,1
862,1,1,11,1,10,1,-6,1,-4,1,11,1,70,1,11,1,21,1,-3,1,-15,1,1,1
863,0,1,9,1,9,1,-4,1,-4,1,9,1,67,1,10,1,19,1,-4,1,-17,1,0,1
864,-3,1,9,1,12,1,-3,1,-7,1,10,1,66,1,11,1,21,1,-3,1,-16,1,-1,1
865,-2,1,10,1,12,1,-4,1,-7,1,11,1,64,1,10,1,18,1,-5,1,-17,1,-2,1
866,-1,1,10,1,11,1,-4,1,-6,1,10,1,63,1,9,1,18,1,-5,1,-17,1,-2,1
867,-2,1,8,1,10,1,-3,1,-6,1,9,1,62,1,10,1,19,1,-5,1,-17,1,-2,1
868,-4,1,7,1,11,1,-1,1,-7,1,9,1,61,1,10,1,19,1,-4,1,-17,1,-2,1
869,-5,1,8,1,13,1,-1,1,-9,1,10,1,60,1,10,1,19,1,-4,1,-17,1,-2,1
870,-5,1,7,1,12,1,-1,1,-8,1,9,1,57,1,9,1,19,1,-4,1,-18,1,-1,1
871,-3,1,7,1,10,1,-2,1,-6,1,8,1,54,1,8,1,18,1,-5,1,-19,1,-2,1
872,-3,1,7,1,10,1,-2,1,-6,1,8,1,52,1,7,1,18,1,-5,1,-18,1,-2,1
873,-3,1,7,1,10,1,-2,1,-6,1,8,1,51,1,7,1,18,1,-4,1,-18,1,-3,1
874,-3,1,6,1,9,1,-1,1,-6,1,7,1,50,1,8,1,18,1,-4,1,-19,1,-4,1
875,-4,1,5,1,9,1,0,1,-6,1,7,1,48,1,7,1,16,1,-5,1,-19,1,-3,1
876,-5,1,5,1,10,1,0,1,-7,1,7,1,48,1,7,1,17,1,-5,1,-19,1,-3,1
877,-3,1,6,1,9,1,-1,1,-6,1,7,1,47,1,5,1,15,1,-5,1,-19,1,-3,1
878,-1,1,6,1,7,1,-2,1,-4,1,6,1,45,1,5,1,15,1,-6,1,-20,1,-3,1
879,-1,1,6,1,7,1,-2,1,-4,1,6,1,45,1,5,1,16,1,-4,1,-19,1,-2,1
880,-3,1,5,1,8,1,-1,1,-5,1,6,1,44,1,6,1,17,1,-4,1,-19,1,-3,1
881,-3,1,5,1,8,1,-1,1,-5,1,6,1,42,1,4,1,14,1,-5,1,-20,1,-4,1
882,-2,1,5,1,7,1,-1,1,-4,1,6,1,42,1,4,1,13,1,-6,1,-20,1,-4,1
883,-2,1,4,1,6,1,-1,1,-4,1,5,1,42,1,5,1,13,1,-5,1,-20,1,-3,1
884,-4,1,4,1,8,1,0,1,-6,1,6,1,42,1,5,1,13,1,-5,1,-20,1,-4,1
885,-4,1,3,1,7,1,0,1,-5,1,5,1,43,1,5,1,15,1,-5,1,-19,1,-4,1
886,-3,1,1,1,4,1,1,1,-3,1,2,1,45,1,8,1,15,1,-4,1,-20,1,-5,1
887,-3,1,0,1,3,1,1,1,-3,1,1,1,48,1,12,1,18,1,-3,1,-21,1,-5,1
888,0,1,-1,1,-1,1,0,1,0,1,-1,1,53,1,18,1,22,1,-1,1,-21,1,-6,1
889,0,1,-2,1,-2,1,1,1,1,1,-2,1,55,1,26,1,30,1,2,1,-20,1,-7,1
890,1,1,-4,1,-5,1,1,1,3,1,-4,1,59,1,36,1,39,1,9,1,-18,1,-6,1
891,5,1,-6,1,-11,1,0,1,8,1,-8,1,63,1,48,1,49,1,15,1,-16,1,-6,1
892,6,1,-7,1,-13,1,0,1,9,1,-10,1,69,1,61,1,62,1,23,1,-13,1,-6,1
893,10,1,-8,1,-18,1,-1,1,14,1,-13,1,77,1,79,1,77,1,35,1,-9,1,-4,1
894,14,1,-7,1,-21,1,-3,1,17,1,-14,1,88,1,104,1,99,1,51,1,-3,1,-2,1
895,17,1,-4,1,-21,1,-6,1,19,1,-12,1,103,1,139,1,129,1,72,1,7,1,1,1
896,26,1,0,1,-26,1,-13,1,26,1,-13,1,120,1,177,1,161,1,96,1,20,1,8,1
897,41,1,8,1,-33,1,-24,1,37,1,-12,1,132,1,209,1,191,1,123,1,36,1,16,1
898,58,1,19,1,-39,1,-38,1,49,1,-10,1,148,1,248,1,226,1,154,1,57,1,26,1
899,75,1,27,1,-48,1,-51,1,62,1,-10,1,166,1,288,1,258,1,186,1,80,1,38,1
900,91,1,36,1,-55,1,-63,1,73,1,-9,1,185,1,314,1,288,1,218,1,102,1,50,1
901,103,1,52,1,-51,1,-77,1,77,1,1,1,205,1,319,1,308,1,244,1,123,1,62,1
902,112,1,68,1,-44,1,-90,1,78,1,12,1,220,1,307,1,317,1,264,1,144,1,77,1
903,115,1,81,1,-34,1,-98,1,75,1,24,1,232,1,284,1,311,1,271,1,156,1,88,1
904,105,1,92,1,-13,1,-98,1,59,1,40,1,237,1,225,1,274,1,250,1,156,1,94,1
905,75,1,110,1,35,1,-92,1,20,1,73,1,242,1,145,1,216,1,206,1,138,1,91,1
906,33,1,131,1,98,1,-82,1,-32,1,115,1,229,1,35,1,134,1,137,1,103,1,82,1
907,-13,1,158,1,171,1,-72,1,-92,1,164,1,204,1,-87,1,42,1,67,1,68,1,75,1
908,-55,1,175,1,230,1,-60,1,-142,1,202,1,179,1,-202,1,-50,1,-1,1,33,1,66,1
909,-91,1,172,1,263,1,-40,1,-177,1,217,1,156,1,-288,1,-130,1,-64,1,-3,1,51,1
910,-110,1,161,1,271,1,-25,1,-190,1,216,1,114,1,-368,1,-209,1,-121,1,-34,1,37,1
911,-118,1,151,1,269,1,-16,1,-193,1,210,1,58,1,-455,1,-300,1,-180,1,-60,1,26,1
912,-121,1,145,1,266,1,-12,1,-193,1,205,1,-5,1,-533,1,-377,1,-228,1,-78,1,20,1
913,-119,1,123,1,242,1,-2,1,-180,1,182,1,-68,1,-575,1,-422,1,-258,1,-93,1,12,1
914,-117,1,92,1,209,1,12,1,-163,1,150,1,-124,1,-590,1,-449,1,-280,1,-107,1,2,1
915,-115,1,70,1,185,1,22,1,-150,1,127,1,-159,1,-590,1,-465,1,-301,1,-121,1,-7,1
916,-112,1,53,1,165,1,29,1,-138,1,109,1,-179,1,-579,1,-472,1,-314,1,-130,1,-16,1
917,-110,1,33,1,143,1,38,1,-126,1,88,1,-182,1,-556,1,-461,1,-314,1,-134,1,-24,1
918,-107,1,12,1,119,1,47,1,-113,1,65,1,-184,1,-529,1,-440,1,-308,1,-139,1,-31,1
919,-107,1,-8,1,99,1,57,1,-103,1,45,1,-170,1,-486,1,-404,1,-294,1,-142,1,-41,1
920,-105,1,-24,1,81,1,64,1,-93,1,28,1,-139,1,-427,1,-358,1,-269,1,-139,1,-46,1
921,-99,1,-35,1,64,1,67,1,-82,1,14,1,-115,1,-375,1,-315,1,-243,1,-132,1,-48,1
922,-89,1,-41,1,48,1,65,1,-69,1,3,1,-91,1,-324,1,-271,1,-214,1,-121,1,-45,1
923,-77,1,-45,1,32,1,61,1,-55,1,-7,1,-70,1,-273,1,-229,1,-185,1,-109,1,-43,1
924,-67,1,-46,1,21,1,56,1,-44,1,-13,1,-52,1,-233,1,-193,1,-160,1,-97,1,-39,1
925,-61,1,-47,1,14,1,54,1,-38,1,-17,1,-37,1,-203,1,-168,1,-141,1,-90,1,-37,1
926,-54,1,-45,1,9,1,49,1,-32,1,-18,1,-23,1,-175,1,-146,1,-125,1,-82,1,-34,1
927,-48,1,-42,1,6,1,45,1,-27,1,-18,1,-12,1,-149,1,-123,1,-109,1,-74,1,-30,1
928,-38,1,-34,1,4,1,36,1,-21,1,-15,1,-3,1,-124,1,-99,1,-90,1,-63,1,-24,1
929,-28,1,-23,1,5,1,25,1,-17,1,-9,1,3,1,-98,1,-73,1,-70,1,-52,1,-19,1
930,-21,1,-12,1,9,1,16,1,-15,1,-2,1,14,1,-72,1,-49,1,-51,1,-41,1,-11,1
931,-15,1,-5,1,10,1,10,1,-13,1,2,1,25,1,-49,1,-30,1,-37,1,-34,1,-8,1
932,-9,1,2,1,11,1,3,1,-10,1,6,1,34,1,-33,1,-16,1,-27,1,-29,1,-6,1
933,-8,1,6,1,14,1,1,1,-11,1,10,1,42,1,-21,1,-6,1,-20,1,-26,1,-4,1
934,-8,1,7,1,15,1,0,1,-11,1,11,1,48,1,-12,1,0,1,-15,1,-24,1,-3,1
935,-8,1,6,1,14,1,1,1,-11,1,10,1,49,1,-9,1,3,1,-13,1,-22,1,-2,1
936,-7,1,6,1,13,1,0,1,-10,1,9,1,49,1,-7,1,3,1,-13,1,-23,1,-2,1
937,-5,1,6,1,11,1,0,1,-8,1,8,1,48,1,-5,1,3,1,-14,1,-23,1,-2,1
938,-3,1,6,1,9,1,-1,1,-6,1,7,1,50,1,-4,1,4,1,-13,1,-22,1,-2,1
939,-4,1,5,1,9,1,0,1,-6,1,7,1,51,1,-3,1,5,1,-11,1,-22,1,-2,1
940,-2,1,6,1,8,1,-2,1,-5,1,7,1,52,1,0,1,7,1,-10,1,-22,1,-2,1
941,-2,1,6,1,8,1,-2,1,-5,1,7,1,53,1,0,1,10,1,-8,1,-22,1,-1,1
942,-2,1,7,1,9,1,-2,1,-5,1,8,1,55,1,2,1,12,1,-7,1,-21,1,0,1
943,-3,1,7,1,10,1,-2,1,-6,1,8,1,56,1,4,1,13,1,-6,1,-20,1,0,1
944,-2,1,7,1,9,1,-2,1,-5,1,8,1,56,1,5,1,14,1,-5,1,-19,1,0,1
945,-1,1,7,1,8,1,-3,1,-4,1,7,1,54,1,5,1,14,1,-6,1,-20,1,-1,1
946,-2,1,7,1,9,1,-2,1,-5,1,8,1,52,1,5,1,14,1,-6,1,-20,1,0,1
947,-3,1,8,1,11,1,-2,1,-7,1,9,1,50,1,4,1,15,1,-6,1,-20,1,0,1
948,-2,1,9,1,11,1,-3,1,-6,1,10,1,50,1,4,1,16,1,-4,1,-19,1,0,1
949,0,1,11,1,11,1,-5,1,-5,1,11,1,51,1,4,1,16,1,-4,1,-19,1,0,1
950,1,1,11,1,10,1,-6,1,-4,1,11,1,50,1,4,1,16,1,-4,1,-19,1,0,1
951,3,1,12,1,9,1,-7,1,-3,1,11,1,50,1,3,1,15,1,-4,1,-19,1,0,1
952,0,1,11,1,11,1,-5,1,-5,1,11,1,50,1,4,1,16,1,-3,1,-18,1,0,1
953,1,1,12,1,11,1,-6,1,-5,1,12,1,50,1,4,1,16,1,-2,1,-17,1,0,1
954,1,1,11,1,10,1,-6,1,-4,1,11,1,49,1,4,1,16,1,-2,1,-18,1,0,1
955,0,1,11,1,11,1,-5,1,-5,1,11,1,50,1,4,1,16,1,-3,1,-17,1,0,1
956,0,1,11,1,11,1,-5,1,-5,1,11,1,50,1,5,1,16,1,-2,1,-17,1,1,1
957,1,1,11,1,10,1,-6,1,-4,1,11,1,51,1,6,1,17,1,-2,1,-15,1,1,1
958,1,1,12,1,11,1,-6,1,-5,1,12,1,51,1,5,1,17,1,-1,1,-14,1,2,1
959,3,1,14,1,11,1,-8,1,-4,1,13,1,51,1,4,1,17,1,-1,1,-15,1,2,1
960,3,1,13,1,10,1,-8,1,-3,1,12,1,54,1,4,1,17,1,0,1,-15,1,2,1
961,6,1,13,1,7,1,-9,1,0,1,10,1,56,1,2,1,17,1,-2,1,-15,1,3,1
962,6,1,13,1,7,1,-9,1,0,1,10,1,57,1,3,1,17,1,-1,1,-15,1,3,1
963,5,1,14,1,9,1,-9,1,-2,1,12,1,56,1,2,1,17,1,-1,1,-15,1,2,1
964,3,1,15,1,12,1,-9,1,-4,1,14,1,57,1,4,1,18,1,0,1,-12,1,3,1
965,3,1,15,1,12,1,-9,1,-4,1,14,1,54,1,3,1,18,1,0,1,-13,1,4,1
966,6,1,17,1,11,1,-11,1,-2,1,14,1,53,1,3,1,18,1,0,1,-14,1,4,1
967,6,1,14,1,8,1,-10,1,-1,1,11,1,54,1,3,1,17,1,-1,1,-14,1,4,1
968,7,1,15,1,8,1,-11,1,0,1,12,1,54,1,3,1,17,1,0,1,-13,1,4,1
969,8,1,17,1,9,1,-12,1,0,1,13,1,53,1,2,1,17,1,1,1,-13,1,5,1
970,10,1,19,1,9,1,-14,1,1,1,14,1,52,1,2,1,18,1,2,1,-12,1,6,1
971,8,1,18,1,10,1,-13,1,-1,1,14,1,50,1,3,1,18,1,3,1,-10,1,7,1
972,8,1,18,1,10,1,-13,1,-1,1,14,1,48,1,4,1,19,1,3,1,-10,1,7,1
973,11,1,16,1,5,1,-13,1,3,1,11,1,47,1,4,1,19,1,3,1,-9,1,9,1
974,11,1,14,1,3,1,-12,1,4,1,9,1,46,1,3,1,18,1,4,1,-10,1,9,1
975,11,1,14,1,3,1,-12,1,4,1,9,1,46,1,3,1,19,1,4,1,-9,1,9,1
976,11,1,15,1,4,1,-13,1,4,1,10,1,45,1,3,1,19,1,4,1,-9,1,9,1
977,12,1,17,1,5,1,-14,1,4,1,11,1,42,1,3,1,17,1,2,1,-9,1,9,1
978,13,1,18,1,5,1,-15,1,4,1,12,1,39,1,2,1,17,1,2,1,-9,1,9,1
979,12,1,18,1,6,1,-15,1,3,1,12,1,37,1,2,1,17,1,2,1,-8,1,9,1
980,13,1,18,1,5,1,-15,1,4,1,12,1,36,1,2,1,16,1,3,1,-8,1,9,1
981,14,1,18,1,4,1,-16,1,5,1,11,1,34,1,2,1,17,1,4,1,-7,1,10,1
982,12,1,19,1,7,1,-15,1,3,1,13,1,34,1,3,1,17,1,5,1,-7,1,11,1
983,15,1,20,1,5,1,-17,1,5,1,13,1,30,1,2,1,17,1,4,1,-7,1,11,1
984,15,1,20,1,5,1,-17,1,5,1,13,1,27,1,2,1,16,1,4,1,-7,1,10,1
985,16,1,21,1,5,1,-18,1,6,1,13,1,25,1,0,1,15,1,4,1,-6,1,11,1
986,17,1,21,1,4,1,-19,1,7,1,13,1,21,1,-2,1,14,1,4,1,-4,1,12,1
987,17,1,23,1,6,1,-20,1,6,1,15,1,20,1,-3,1,13,1,3,1,-5,1,11,1
988,17,1,23,1,6,1,-20,1,6,1,15,1,18,1,-2,1,13,1,3,1,-5,1,11,1
989,17,1,23,1,6,1,-20,1,6,1,15,1,17,1,-3,1,13,1,2,1,-5,1,11,1
990,19,1,23,1,4,1,-21,1,8,1,14,1,15,1,-4,1,11,1,1,1,-5,1,13,1
991,21,1,24,1,3,1,-22,1,9,1,14,1,14,1,-6,1,9,1,1,1,-5,1,13,1
992,22,1,25,1,3,1,-23,1,10,1,14,1,13,1,-6,1,8,1,1,1,-5,1,12,1
993,21,1,24,1,3,1,-22,1,9,1,14,1,13,1,-6,1,9,1,2,1,-4,1,13,1
994,21,1,23,1,2,1,-22,1,10,1,13,1,12,1,-7,1,8,1,1,1,-3,1,15,1
995,23,1,24,1,1,1,-23,1,11,1,13,1,10,1,-10,1,5,1,0,1,-4,1,15,1
996,25,1,25,1,0,1,-25,1,13,1,13,1,8,1,-12,1,3,1,-1,1,-4,1,14,1
997,24,1,26,1,2,1,-25,1,11,1,14,1,7,1,-13,1,1,1,-2,1,-4,1,15,1
998,26,1,27,1,1,1,-26,1,13,1,14,1,6,1,-15,1,0,1,-3,1,-4,1,16,1
999,27,1,26,1,-1,1,-26,1,14,1,13,1,7,1,-15,1,0,1,-4,1,-2,1,17,1
1000,26,1,26,1,0,1,-26,1,13,1,13,1,7,1,-16,1,0,1,-3,1,-2,1,17,1
1001,25,1,26,1,1,1,-25,1,12,1,14,1,8,1,-16,1,-1,1,-2,1,-1,1,18,1
1002,28,1,26,1,-2,1,-27,1,15,1,12,1,5,1,-20,1,-4,1,-4,1,-1,1,18,1
1003,30,1,27,1,-3,1,-28,1,17,1,12,1,4,1,-23,1,-7,1,-6,1,-2,1,18,1
1004,30,1,28,1,-2,1,-29,1,16,1,13,1,4,1,-24,1,-7,1,-5,1,-1,1,19,1
1005,29,1,28,1,-1,1,-28,1,15,1,14,1,3,1,-25,1,-8,1,-5,1,-1,1,20,1
1006,27,1,28,1,1,1,-27,1,13,1,15,1,1,1,-28,1,-11,1,-7,1,0,1,20,1
1007,29,1,28,1,-1,1,-28,1,15,1,14,1,-1,1,-32,1,-13,1,-9,1,0,1,20,1
1008,31,1,30,1,-1,1,-30,1,16,1,15,1,-3,1,-33,1,-16,1,-11,1,-1,1,20,1
1009,33,1,30,1,-3,1,-31,1,18,1,14,1,-5,1,-36,1,-18,1,-11,1,-1,1,19,1
1010,33,1,30,1,-3,1,-31,1,18,1,14,1,-5,1,-37,1,-19,1,-12,1,-1,1,21,1
1011,33,1,32,1,-1,1,-32,1,17,1,16,1,-6,1,-38,1,-20,1,-13,1,-2,1,22,1
1012,35,1,32,1,-3,1,-33,1,19,1,15,1,-7,1,-40,1,-22,1,-13,1,-1,1,22,1
1013,34,1,31,1,-3,1,-32,1,19,1,14,1,-6,1,-40,1,-24,1,-14,1,0,1,22,1
1014,32,1,31,1,-1,1,-31,1,17,1,15,1,-6,1,-41,1,-22,1,-13,1,0,1,23,1
1015,32,1,31,1,-1,1,-31,1,17,1,15,1,-7,1,-43,1,-24,1,-14,1,0,1,23,1
1016,33,1,31,1,-2,1,-32,1,18,1,15,1,-9,1,-46,1,-26,1,-16,1,-2,1,22,1
1017,33,1,32,1,-1,1,-32,1,17,1,16,1,-7,1,-45,1,-26,1,-16,1,-1,1,22,1
1018,33,1,32,1,-1,1,-32,1,17,1,16,1,-6,1,-45,1,-26,1,-15,1,-1,1,22,1
1019,34,1,32,1,-2,1,-33,1,18,1,15,1,-3,1,-45,1,-27,1,-16,1,-1,1,22,1
1020,33,1,32,1,-1,1,-32,1,17,1,16,1,-2,1,-43,1,-26,1,-15,1,-1,1,23,1
1021,33,1,34,1,1,1,-33,1,16,1,18,1,0,1,-42,1,-25,1,-14,1,0,1,23,1
1022,36,1,34,1,-2,1,-35,1,19,1,16,1,0,1,-43,1,-26,1,-14,1,0,1,23,1
1023,34,1,33,1,-1,1,-33,1,18,1,16,1,2,1,-41,1,-24,1,-14,1,-1,1,23,1
1024,34,1,33,1,-1,1,-33,1,18,1,16,1,5,1,-38,1,-22,1,-12,1,-1,1,22,1
1025,33,1,31,1,-2,1,-32,1,18,1,15,1,8,1,-33,1,-20,1,-11,1,-2,1,21,1
1026,32,1,31,1,-1,1,-31,1,17,1,15,1,11,1,-30,1,-17,1,-10,1,0,1,22,1
1027,30,1,31,1,1,1,-30,1,15,1,16,1,15,1,-25,1,-13,1,-8,1,-1,1,21,1
1028,30,1,29,1,-1,1,-29,1,16,1,14,1,18,1,-21,1,-11,1,-7,1,-2,1,19,1
1029,28,1,28,1,0,1,-28,1,14,1,14,1,22,1,-17,1,-8,1,-6,1,-3,1,17,1
1030,26,1,27,1,1,1,-26,1,13,1,14,1,29,1,-10,1,-3,1,-3,1,-2,1,17,1
1031,24,1,26,1,2,1,-25,1,11,1,14,1,34,1,-4,1,1,1,-1,1,-2,1,18,1
1032,26,1,25,1,-1,1,-25,1,14,1,12,1,39,1,1,1,5,1,0,1,-2,1,16,1
1033,24,1,23,1,-1,1,-23,1,13,1,11,1,42,1,6,1,7,1,2,1,-2,1,15,1
1034,21,1,22,1,1,1,-21,1,10,1,12,1,46,1,9,1,11,1,3,1,-3,1,14,1
1035,20,1,22,1,2,1,-21,1,9,1,12,1,51,1,15,1,15,1,5,1,-4,1,14,1
1036,18,1,22,1,4,1,-20,1,7,1,13,1,58,1,22,1,20,1,8,1,-3,1,14,1
1037,16,1,23,1,7,1,-19,1,5,1,15,1,62,1,24,1,21,1,7,1,-5,1,12,1
1038,15,1,22,1,7,1,-18,1,4,1,15,1,64,1,24,1,20,1,6,1,-7,1,11,1
1039,14,1,20,1,6,1,-17,1,4,1,13,1,69,1,26,1,20,1,6,1,-8,1,10,1
1040,14,1,19,1,5,1,-16,1,5,1,12,1,73,1,30,1,22,1,6,1,-7,1,10,1
1041,13,1,18,1,5,1,-15,1,4,1,12,1,78,1,33,1,25,1,8,1,-7,1,9,1
1042,11,1,18,1,7,1,-14,1,2,1,13,1,80,1,35,1,27,1,10,1,-7,1,9,1
1043,8,1,18,1,10,1,-13,1,-1,1,14,1,83,1,36,1,28,1,10,1,-8,1,9,1
1044,7,1,18,1,11,1,-12,1,-2,1,15,1,83,1,35,1,27,1,9,1,-10,1,7,1
1045,6,1,17,1,11,1,-11,1,-2,1,14,1,83,1,34,1,27,1,8,1,-11,1,6,1
1046,6,1,17,1,11,1,-11,1,-2,1,14,1,83,1,35,1,27,1,7,1,-12,1,5,1
1047,4,1,16,1,12,1,-10,1,-4,1,14,1,84,1,35,1,29,1,7,1,-12,1,5,1
1048,4,1,16,1,12,1,-10,1,-4,1,14,1,84,1,35,1,30,1,7,1,-13,1,4,1
1049,3,1,17,1,14,1,-10,1,-5,1,16,1,83,1,35,1,30,1,7,1,-14,1,4,1
1050,1,1,16,1,15,1,-8,1,-7,1,16,1,84,1,35,1,31,1,8,1,-13,1,4,1
1051,1,1,16,1,15,1,-8,1,-7,1,16,1,84,1,34,1,31,1,8,1,-13,1,4,1
1052,4,1,17,1,13,1,-10,1,-4,1,15,1,83,1,31,1,29,1,6,1,-15,1,2,1
1053,1,1,17,1,16,1,-9,1,-7,1,17,1,83,1,31,1,29,1,6,1,-15,1,2,1
1054,-1,1,15,1,16,1,-7,1,-8,1,15,1,84,1,30,1,31,1,7,1,-15,1,2,1
1055,0,1,15,1,15,1,-7,1,-7,1,15,1,83,1,28,1,29,1,6,1,-16,1,1,1
1056,-2,1,14,1,16,1,-6,1,-9,1,15,1,84,1,28,1,29,1,5,1,-16,1,2,1
1057,-2,1,14,1,16,1,-6,1,-9,1,15,1,83,1,28,1,29,1,3,1,-17,1,0,1
1058,-1,1,14,1,15,1,-6,1,-8,1,14,1,84,1,28,1,29,1,4,1,-17,1,0,1
1059,0,1,16,1,16,1,-8,1,-8,1,16,1,84,1,26,1,26,1,3,1,-17,1,1,1
1060,-1,1,16,1,17,1,-7,1,-9,1,16,1,83,1,24,1,24,1,2,1,-17,1,1,1
1061,-3,1,15,1,18,1,-6,1,-10,1,16,1,85,1,24,1,24,1,2,1,-17,1,0,1
1062,-4,1,15,1,19,1,-5,1,-11,1,17,1,86,1,26,1,26,1,5,1,-17,1,1,1
1063,-2,1,16,1,18,1,-7,1,-10,1,17,1,85,1,25,1,24,1,3,1,-18,1,1,1
1064,-2,1,16,1,18,1,-7,1,-10,1,17,1,84,1,25,1,24,1,3,1,-18,1,1,1
1065,-4,1,15,1,19,1,-5,1,-11,1,17,1,84,1,25,1,25,1,4,1,-17,1,1,1
1066,-4,1,15,1,19,1,-5,1,-11,1,17,1,84,1,25,1,25,1,3,1,-18,1,1,1
1067,-2,1,15,1,17,1,-6,1,-9,1,16,1,84,1,25,1,25,1,3,1,-17,1,1,1
1068,-1,1,16,1,17,1,-7,1,-9,1,16,1,84,1,25,1,26,1,2,1,-18,1,1,1
1069,-1,1,17,1,18,1,-8,1,-9,1,17,1,83,1,25,1,27,1,2,1,-19,1,1,1
1070,-2,1,16,1,18,1,-7,1,-10,1,17,1,85,1,27,1,29,1,3,1,-18,1,1,1
1071,-4,1,15,1,19,1,-5,1,-11,1,17,1,87,1,28,1,29,1,3,1,-19,1,1,1
1072,-4,1,15,1,19,1,-5,1,-11,1,17,1,87,1,28,1,29,1,4,1,-18,1,1,1
1073,-2,1,15,1,17,1,-6,1,-9,1,16,1,85,1,24,1,27,1,1,1,-20,1,0,1
1074,-2,1,15,1,17,1,-6,1,-9,1,16,1,86,1,24,1,27,1,1,1,-19,1,0,1
1075,-1,1,15,1,16,1,-7,1,-8,1,15,1,85,1,25,1,26,1,1,1,-20,1,-1,1
1076,-2,1,15,1,17,1,-6,1,-9,1,16,1,85,1,26,1,28,1,2,1,-19,1,-1,1
1077,-2,1,15,1,17,1,-6,1,-9,1,16,1,86,1,27,1,30,1,4,1,-18,1,0,1
1078,-3,1,16,1,19,1,-6,1,-11,1,17,1,86,1,28,1,30,1,4,1,-18,1,0,1
1079,-2,1,16,1,18,1,-7,1,-10,1,17,1,85,1,28,1,30,1,3,1,-18,1,1,1
1080,-4,1,15,1,19,1,-5,1,-11,1,17,1,84,1,28,1,30,1,2,1,-19,1,1,1
1081,-2,1,16,1,18,1,-7,1,-10,1,17,1,80,1,28,1,30,1,2,1,-18,1,1,1
1082,0,1,17,1,17,1,-8,1,-8,1,17,1,78,1,29,1,31,1,3,1,-17,1,1,1
1083,-1,1,16,1,17,1,-7,1,-9,1,16,1,78,1,29,1,31,1,5,1,-17,1,1,1
1084,-1,1,15,1,16,1,-7,1,-8,1,15,1,78,1,29,1,31,1,4,1,-18,1,1,1
1085,-1,1,15,1,16,1,-7,1,-8,1,15,1,79,1,29,1,32,1,5,1,-16,1,1,1
1086,-2,1,16,1,18,1,-7,1,-10,1,17,1,79,1,30,1,34,1,7,1,-15,1,2,1
1087,-2,1,14,1,16,1,-6,1,-9,1,15,1,78,1,30,1,32,1,6,1,-15,1,1,1
1088,0,1,16,1,16,1,-8,1,-8,1,16,1,78,1,29,1,29,1,5,1,-16,1,1,1
1089,0,1,17,1,17,1,-8,1,-8,1,17,1,77,1,30,1,29,1,5,1,-15,1,1,1
1090,0,1,19,1,19,1,-9,1,-9,1,19,1,77,1,31,1,30,1,6,1,-15,1,1,1
1091,1,1,21,1,20,1,-11,1,-9,1,21,1,78,1,31,1,30,1,7,1,-15,1,1,1
1092,2,1,21,1,19,1,-11,1,-8,1,20,1,81,1,33,1,32,1,9,1,-13,1,2,1
1093,2,1,22,1,20,1,-12,1,-9,1,21,1,83,1,34,1,34,1,11,1,-13,1,3,1
1094,1,1,23,1,22,1,-12,1,-10,1,23,1,85,1,34,1,34,1,10,1,-14,1,1,1
1095,1,1,24,1,23,1,-12,1,-11,1,24,1,88,1,36,1,35,1,12,1,-12,1,2,1
1096,2,1,26,1,24,1,-14,1,-11,1,25,1,93,1,39,1,39,1,15,1,-10,1,5,1
1097,2,1,27,1,25,1,-14,1,-11,1,26,1,95,1,42,1,42,1,17,1,-9,1,6,1
1098,6,1,30,1,24,1,-18,1,-9,1,27,1,97,1,45,1,44,1,18,1,-9,1,6,1
1099,8,1,30,1,22,1,-19,1,-7,1,26,1,98,1,45,1,45,1,20,1,-8,1,7,1
1100,6,1,30,1,24,1,-18,1,-9,1,27,1,98,1,46,1,46,1,21,1,-7,1,8,1
1101,7,1,34,1,27,1,-20,1,-10,1,31,1,100,1,49,1,49,1,23,1,-5,1,8,1
1102,9,1,36,1,27,1,-22,1,-9,1,32,1,101,1,50,1,51,1,25,1,-5,1,9,1
1103,10,1,36,1,26,1,-23,1,-8,1,31,1,102,1,51,1,52,1,26,1,-2,1,11,1
1104,11,1,38,1,27,1,-24,1,-8,1,33,1,103,1,53,1,54,1,26,1,-1,1,12,1
1105,13,1,40,1,27,1,-26,1,-7,1,34,1,105,1,55,1,56,1,29,1,1,1,13,1
1106,15,1,41,1,26,1,-28,1,-5,1,34,1,103,1,56,1,57,1,30,1,1,1,13,1
1107,15,1,41,1,26,1,-28,1,-5,1,34,1,100,1,52,1,55,1,29,1,1,1,13,1
1108,16,1,41,1,25,1,-28,1,-4,1,33,1,96,1,49,1,54,1,28,1,1,1,14,1
1109,18,1,40,1,22,1,-29,1,-2,1,31,1,92,1,46,1,52,1,28,1,1,1,14,1
1110,19,1,40,1,21,1,-29,1,-1,1,31,1,88,1,43,1,51,1,27,1,1,1,14,1
1111,21,1,42,1,21,1,-31,1,0,1,32,1,87,1,41,1,49,1,26,1,1,1,16,1
1112,22,1,40,1,18,1,-31,1,2,1,29,1,83,1,36,1,45,1,22,1,-1,1,13,1
1113,22,1,41,1,19,1,-31,1,2,1,30,1,81,1,33,1,41,1,20,1,-3,1,13,1
1114,21,1,42,1,21,1,-31,1,0,1,32,1,79,1,33,1,41,1,21,1,-2,1,13,1
1115,20,1,42,1,22,1,-31,1,-1,1,32,1,77,1,32,1,40,1,21,1,-2,1,14,1
1116,19,1,39,1,20,1,-29,1,0,1,30,1,75,1,29,1,38,1,18,1,-3,1,14,1
1117,19,1,39,1,20,1,-29,1,0,1,30,1,75,1,28,1,37,1,18,1,-2,1,13,1
1118,21,1,39,1,18,1,-30,1,2,1,29,1,73,1,26,1,35,1,17,1,-2,1,13,1
1119,23,1,39,1,16,1,-31,1,4,1,28,1,71,1,25,1,35,1,16,1,-2,1,13,1
1120,22,1,40,1,18,1,-31,1,2,1,29,1,72,1,26,1,36,1,18,1,0,1,15,1
1121,21,1,41,1,20,1,-31,1,1,1,31,1,71,1,26,1,38,1,20,1,1,1,16,1
1122,23,1,42,1,19,1,-32,1,2,1,31,1,70,1,26,1,36,1,18,1,0,1,15,1
1123,23,1,41,1,18,1,-32,1,3,1,30,1,67,1,24,1,36,1,17,1,0,1,15,1
1124,22,1,39,1,17,1,-30,1,3,1,28,1,66,1,24,1,36,1,16,1,-1,1,15,1
1125,22,1,37,1,15,1,-29,1,4,1,26,1,64,1,23,1,35,1,16,1,-2,1,15,1
1126,20,1,34,1,14,1,-27,1,3,1,24,1,63,1,23,1,36,1,17,1,-1,1,15,1
1127,20,1,31,1,11,1,-25,1,5,1,21,1,63,1,22,1,35,1,16,1,-2,1,14,1
1128,19,1,30,1,11,1,-24,1,4,1,21,1,62,1,22,1,34,1,15,1,-3,1,13,1
1129,17,1,28,1,11,1,-22,1,3,1,20,1,61,1,21,1,34,1,15,1,-4,1,11,1
1130,15,1,27,1,12,1,-21,1,2,1,20,1,60,1,19,1,32,1,14,1,-5,1,10,1
1131,13,1,28,1,15,1,-20,1,-1,1,22,1,60,1,18,1,31,1,13,1,-6,1,9,1
1132,11,1,26,1,15,1,-18,1,-2,1,21,1,60,1,18,1,29,1,11,1,-6,1,9,1
1133,8,1,22,1,14,1,-15,1,-3,1,18,1,62,1,17,1,27,1,9,1,-8,1,7,1
1134,5,1,18,1,13,1,-11,1,-4,1,16,1,63,1,17,1,26,1,6,1,-10,1,5,1
1135,6,1,16,1,10,1,-11,1,-2,1,13,1,64,1,17,1,27,1,6,1,-12,1,4,1
1136,3,1,14,1,11,1,-8,1,-4,1,13,1,64,1,19,1,28,1,7,1,-12,1,3,1
1137,-1,1,12,1,13,1,-5,1,-7,1,12,1,65,1,19,1,28,1,8,1,-12,1,2,1
1138,0,1,12,1,12,1,-6,1,-6,1,12,1,62,1,16,1,26,1,6,1,-13,1,2,1
1139,2,1,11,1,9,1,-6,1,-3,1,10,1,61,1,14,1,23,1,2,1,-14,1,2,1
1140,1,1,10,1,9,1,-5,1,-4,1,10,1,59,1,14,1,21,1,2,1,-16,1,1,1
1141,-1,1,10,1,11,1,-4,1,-6,1,10,1,60,1,14,1,21,1,2,1,-16,1,1,1
1142,-1,1,9,1,10,1,-4,1,-5,1,9,1,59,1,12,1,20,1,1,1,-17,1,1,1
1143,-1,1,7,1,8,1,-3,1,-4,1,7,1,58,1,12,1,20,1,0,1,-18,1,0,1
1144,-1,1,5,1,6,1,-2,1,-3,1,5,1,57,1,11,1,19,1,0,1,-18,1,0,1
1145,0,1,6,1,6,1,-3,1,-3,1,6,1,55,1,11,1,18,1,-1,1,-19,1,-1,1
1146,-2,1,6,1,8,1,-2,1,-5,1,7,1,55,1,11,1,18,1,-2,1,-19,1,-2,1
1147,-4,1,6,1,10,1,-1,1,-7,1,8,1,54,1,9,1,17,1,-2,1,-19,1,-2,1
1148,-3,1,6,1,9,1,-1,1,-6,1,7,1,52,1,9,1,15,1,-3,1,-20,1,-2,1
1149,-3,1,5,1,8,1,-1,1,-5,1,6,1,50,1,9,1,15,1,-3,1,-20,1,-2,1
1150,-5,1,4,1,9,1,0,1,-7,1,6,1,48,1,8,1,15,1,-3,1,-20,1,-2,1
1151,-3,1,6,1,9,1,-1,1,-6,1,7,1,47,1,8,1,16,1,-1,1,-19,1,-1,1
1152,-4,1,4,1,8,1,0,1,-6,1,6,1,45,1,9,1,16,1,-1,1,-19,1,-2,1
1153,-5,1,4,1,9,1,0,1,-7,1,6,1,45,1,10,1,16,1,-2,1,-19,1,-1,1
1154,-6,1,4,1,10,1,1,1,-8,1,7,1,45,1,11,1,17,1,0,1,-19,1,-2,1
1155,-5,1,4,1,9,1,0,1,-7,1,6,1,44,1,10,1,17,1,0,1,-19,1,-1,1
1156,-2,1,3,1,5,1,0,1,-3,1,4,1,41,1,7,1,14,1,-3,1,-21,1,-1,1
1157,-2,1,2,1,4,1,0,1,-3,1,3,1,41,1,7,1,15,1,-3,1,-21,1,-2,1
1158,-4,1,2,1,6,1,1,1,-5,1,4,1,41,1,8,1,15,1,-4,1,-21,1,-2,1
1159,-6,1,2,1,8,1,2,1,-7,1,5,1,41,1,8,1,16,1,-4,1,-21,1,-3,1
1160,-6,1,3,1,9,1,1,1,-7,1,6,1,40,1,8,1,16,1,-4,1,-22,1,-2,1
1161,-6,1,4,1,10,1,1,1,-8,1,7,1,40,1,7,1,15,1,-4,1,-21,1,-4,1
1162,-5,1,5,1,10,1,0,1,-7,1,7,1,38,1,6,1,14,1,-4,1,-21,1,-4,1
1163,-5,1,4,1,9,1,0,1,-7,1,6,1,38,1,5,1,14,1,-4,1,-22,1,-5,1
1164,-6,1,4,1,10,1,1,1,-8,1,7,1,39,1,6,1,15,1,-3,1,-22,1,-4,1
1165,-6,1,4,1,10,1,1,1,-8,1,7,1,39,1,7,1,15,1,-3,1,-22,1,-4,1
1166,-5,1,2,1,7,1,1,1,-6,1,4,1,38,1,8,1,15,1,-4,1,-22,1,-4,1
1167,-4,1,-1,1,3,1,2,1,-4,1,1,1,38,1,10,1,16,1,-6,1,-25,1,-6,1
1168,-4,1,-3,1,1,1,3,1,-3,1,-1,1,42,1,16,1,19,1,-3,1,-23,1,-6,1
1169,-3,1,-5,1,-2,1,4,1,-1,1,-4,1,46,1,23,1,25,1,0,1,-22,1,-7,1
1170,0,1,-5,1,-5,1,2,1,2,1,-5,1,48,1,30,1,33,1,5,1,-20,1,-6,1
1171,1,1,-6,1,-7,1,2,1,4,1,-6,1,53,1,41,1,42,1,12,1,-18,1,-6,1
1172,4,1,-9,1,-13,1,2,1,8,1,-11,1,57,1,53,1,52,1,19,1,-17,1,-7,1
1173,6,1,-9,1,-15,1,1,1,10,1,-12,1,64,1,69,1,64,1,28,1,-15,1,-6,1
1174,9,1,-7,1,-16,1,-1,1,12,1,-11,1,75,1,92,1,82,1,42,1,-9,1,-5,1
1175,12,1,-4,1,-16,1,-4,1,14,1,-10,1,84,1,118,1,103,1,58,1,-2,1,-3,1
1176,19,1,0,1,-19,1,-9,1,19,1,-9,1,96,1,154,1,133,1,80,1,9,1,1,1
1177,34,1,6,1,-28,1,-20,1,31,1,-11,1,104,1,190,1,164,1,105,1,23,1,8,1
1178,48,1,14,1,-34,1,-31,1,41,1,-10,1,114,1,227,1,199,1,136,1,42,1,18,1
1179,62,1,20,1,-42,1,-41,1,52,1,-11,1,125,1,267,1,233,1,168,1,64,1,30,1
1180,79,1,28,1,-51,1,-53,1,65,1,-11,1,142,1,303,1,266,1,201,1,87,1,43,1
1181,94,1,37,1,-57,1,-65,1,76,1,-10,1,160,1,321,1,291,1,230,1,109,1,55,1
1182,105,1,54,1,-51,1,-79,1,78,1,2,1,175,1,317,1,305,1,252,1,132,1,69,1
1183,117,1,68,1,-49,1,-92,1,83,1,10,1,187,1,300,1,311,1,270,1,152,1,83,1
1184,115,1,81,1,-34,1,-98,1,75,1,24,1,194,1,263,1,290,1,263,1,158,1,91,1
1185,95,1,100,1,5,1,-97,1,45,1,53,1,201,1,195,1,243,1,230,1,148,1,93,1
1186,58,1,120,1,62,1,-89,1,-2,1,91,1,203,1,104,1,176,1,174,1,118,1,87,1
1187,10,1,144,1,134,1,-77,1,-62,1,139,1,188,1,-10,1,92,1,106,1,85,1,80,1
1188,-33,1,166,1,199,1,-66,1,-116,1,182,1,164,1,-127,1,3,1,40,1,54,1,72,1
1189,-78,1,172,1,250,1,-47,1,-164,1,211,1,145,1,-226,1,-83,1,-26,1,17,1,60,1
1190,-107,1,163,1,270,1,-28,1,-188,1,216,1,116,1,-313,1,-161,1,-87,1,-18,1,45,1
1191,-115,1,155,1,270,1,-20,1,-192,1,212,1,66,1,-397,1,-244,1,-144,1,-48,1,33,1
1192,-121,1,149,1,270,1,-14,1,-195,1,209,1,7,1,-483,1,-332,1,-199,1,-70,1,24,1
1193,-124,1,138,1,262,1,-7,1,-193,1,200,1,-55,1,-546,1,-395,1,-237,1,-86,1,18,1
1194,-118,1,113,1,231,1,2,1,-174,1,172,1,-117,1,-576,1,-430,1,-261,1,-100,1,9,1
1195,-117,1,83,1,200,1,17,1,-158,1,141,1,-164,1,-584,1,-452,1,-284,1,-114,1,-1,1
1196,-115,1,59,1,174,1,28,1,-144,1,116,1,-196,1,-579,1,-466,1,-303,1,-125,1,-12,1
1197,-112,1,43,1,155,1,34,1,-133,1,99,1,-205,1,-560,1,-465,1,-309,1,-133,1,-20,1
1198,-110,1,23,1,133,1,43,1,-121,1,78,1,-208,1,-538,1,-448,1,-306,1,-137,1,-26,1
1199,-109,1,3,1,112,1,53,1,-110,1,57,1,-201,1,-507,1,-423,1,-296,1,-140,1,-35,1
1200,-107,1,-15,1,92,1,61,1,-100,1,38,1,-177,1,-456,1,-381,1,-276,1,-140,1,-42,1
1201,-102,1,-28,1,74,1,65,1,-88,1,23,1,-148,1,-400,1,-337,1,-251,1,-135,1,-46,1
1202,-96,1,-39,1,57,1,67,1,-77,1,9,1,-124,1,-350,1,-294,1,-223,1,-126,1,-45,1
1203,-84,1,-44,1,40,1,64,1,-62,1,-2,1,-101,1,-298,1,-250,1,-194,1,-113,1,-44,1
1204,-72,1,-46,1,26,1,59,1,-49,1,-10,1,-83,1,-251,1,-211,1,-166,1,-101,1,-40,1
1205,-66,1,-48,1,18,1,57,1,-42,1,-15,1,-68,1,-215,1,-182,1,-144,1,-91,1,-36,1
1206,-59,1,-49,1,10,1,54,1,-35,1,-20,1,-55,1,-188,1,-158,1,-129,1,-85,1,-35,1
1207,-52,1,-45,1,7,1,48,1,-30,1,-19,1,-43,1,-162,1,-135,1,-112,1,-77,1,-32,1
1208,-46,1,-40,1,6,1,43,1,-26,1,-17,1,-31,1,-136,1,-113,1,-95,1,-67,1,-28,1
1209,-34,1,-29,1,5,1,31,1,-20,1,-12,1,-23,1,-111,1,-89,1,-76,1,-57,1,-22,1
1210,-24,1,-17,1,7,1,20,1,-16,1,-5,1,-12,1,-85,1,-65,1,-58,1,-46,1,-17,1
1211,-19,1,-8,1,11,1,13,1,-15,1,1,1,0,1,-60,1,-44,1,-42,1,-38,1,-12,1
1212,-15,1,0,1,15,1,7,1,-15,1,7,1,12,1,-38,1,-26,1,-28,1,-31,1,-9,1
1213,-12,1,3,1,15,1,4,1,-13,1,9,1,22,1,-25,1,-16,1,-20,1,-27,1,-5,1
1214,-8,1,5,1,13,1,1,1,-10,1,9,1,29,1,-16,1,-8,1,-16,1,-25,1,-5,1
1215,-6,1,6,1,12,1,0,1,-9,1,9,1,36,1,-12,1,-5,1,-14,1,-24,1,-5,1
1216,-5,1,5,1,10,1,0,1,-7,1,7,1,38,1,-8,1,-3,1,-14,1,-24,1,-5,1
1217,-5,1,5,1,10,1,0,1,-7,1,7,1,36,1,-5,1,1,1,-12,1,-24,1,-5,1
1218,-6,1,4,1,10,1,1,1,-8,1,7,1,33,1,-3,1,4,1,-9,1,-22,1,-4,1
1219,-4,1,4,1,8,1,0,1,-6,1,6,1,34,1,-1,1,6,1,-8,1,-21,1,-4,1
1220,-5,1,5,1,10,1,0,1,-7,1,7,1,35,1,1,1,8,1,-6,1,-21,1,-2,1
1221,-5,1,5,1,10,1,0,1,-7,1,7,1,36,1,2,1,10,1,-6,1,-20,1,-1,1
1222,-1,1,5,1,6,1,-2,1,-3,1,5,1,38,1,2,1,10,1,-6,1,-20,1,-2,1
1223,-1,1,6,1,7,1,-2,1,-4,1,6,1,41,1,4,1,11,1,-4,1,-20,1,-2,1
1224,-2,1,6,1,8,1,-2,1,-5,1,7,1,43,1,4,1,11,1,-3,1,-19,1,-1,1
1225,-3,1,5,1,8,1,-1,1,-5,1,6,1,42,1,4,1,10,1,-3,1,-17,1,0,1
1226,-2,1,6,1,8,1,-2,1,-5,1,7,1,37,1,5,1,11,1,-3,1,-18,1,0,1
1227,0,1,8,1,8,1,-4,1,-4,1,8,1,32,1,4,1,10,1,-2,1,-18,1,-1,1
1228,0,1,7,1,7,1,-3,1,-3,1,7,1,31,1,5,1,10,1,-1,1,-17,1,0,1
1229,0,1,8,1,8,1,-4,1,-4,1,8,1,30,1,6,1,12,1,-1,1,-17,1,1,1
1230,2,1,9,1,7,1,-5,1,-2,1,8,1,29,1,6,1,12,1,0,1,-17,1,1,1
1231,2,1,9,1,7,1,-5,1,-2,1,8,1,27,1,6,1,11,1,-2,1,-18,1,0,1
1232,2,1,10,1,8,1,-6,1,-3,1,9,1,29,1,6,1,12,1,0,1,-17,1,0,1
1233,2,1,11,1,9,1,-6,1,-3,1,10,1,28,1,7,1,13,1,1,1,-16,1,1,1
1234,3,1,11,1,8,1,-7,1,-2,1,10,1,29,1,7,1,14,1,1,1,-15,1,2,1
1235,3,1,10,1,7,1,-6,1,-2,1,9,1,29,1,6,1,15,1,1,1,-16,1,1,1
1236,1,1,10,1,9,1,-5,1,-4,1,10,1,26,1,5,1,15,1,1,1,-16,1,2,1
1237,1,1,10,1,9,1,-5,1,-4,1,10,1,24,1,5,1,15,1,1,1,-15,1,2,1
1238,3,1,12,1,9,1,-7,1,-3,1,11,1,26,1,6,1,16,1,1,1,-15,1,2,1
1239,4,1,14,1,10,1,-9,1,-3,1,12,1,24,1,4,1,15,1,0,1,-16,1,2,1
1240,4,1,14,1,10,1,-9,1,-3,1,12,1,24,1,4,1,16,1,0,1,-14,1,3,1
1241,4,1,13,1,9,1,-8,1,-2,1,11,1,24,1,5,1,17,1,2,1,-13,1,5,1
1242,6,1,13,1,7,1,-9,1,0,1,10,1,22,1,4,1,14,1,0,1,-13,1,4,1
1243,6,1,15,1,9,1,-10,1,-1,1,12,1,21,1,4,1,14,1,0,1,-13,1,4,1
1244,4,1,14,1,10,1,-9,1,-3,1,12,1,22,1,5,1,15,1,2,1,-13,1,5,1
1245,6,1,14,1,8,1,-10,1,-1,1,11,1,21,1,5,1,16,1,2,1,-12,1,5,1
1246,6,1,13,1,7,1,-9,1,0,1,10,1,21,1,5,1,16,1,3,1,-11,1,6,1
1247,6,1,13,1,7,1,-9,1,0,1,10,1,20,1,6,1,17,1,4,1,-10,1,7,1
1248,7,1,12,1,5,1,-9,1,1,1,9,1,20,1,5,1,18,1,5,1,-9,1,7,1
1249,9,1,13,1,4,1,-11,1,3,1,9,1,18,1,3,1,15,1,3,1,-10,1,7,1
1250,9,1,15,1,6,1,-12,1,2,1,11,1,16,1,2,1,14,1,2,1,-10,1,7,1
1251,8,1,15,1,7,1,-11,1,1,1,11,1,14,1,2,1,14,1,2,1,-11,1,7,1
1252,8,1,16,1,8,1,-12,1,0,1,12,1,14,1,2,1,15,1,2,1,-10,1,7,1
1253,10,1,17,1,7,1,-13,1,2,1,12,1,13,1,3,1,16,1,3,1,-9,1,8,1
1254,13,1,16,1,3,1,-14,1,5,1,10,1,12,1,2,1,16,1,3,1,-9,1,7,1
1255,12,1,15,1,3,1,-13,1,5,1,9,1,10,1,2,1,16,1,3,1,-9,1,6,1
1256,12,1,17,1,5,1,-14,1,4,1,11,1,11,1,3,1,17,1,4,1,-8,1,7,1
1257,10,1,18,1,8,1,-14,1,1,1,13,1,11,1,3,1,17,1,5,1,-7,1,8,1
1258,11,1,18,1,7,1,-14,1,2,1,13,1,10,1,2,1,17,1,4,1,-7,1,8,1
1259,13,1,18,1,5,1,-15,1,4,1,12,1,9,1,1,1,16,1,4,1,-7,1,8,1
1260,14,1,19,1,5,1,-16,1,5,1,12,1,9,1,1,1,16,1,4,1,-7,1,8,1
1261,16,1,20,1,4,1,-18,1,6,1,12,1,10,1,1,1,14,1,4,1,-7,1,9,1
1262,16,1,21,1,5,1,-18,1,6,1,13,1,8,1,1,1,12,1,4,1,-7,1,10,1
1263,16,1,21,1,5,1,-18,1,6,1,13,1,8,1,1,1,11,1,5,1,-5,1,10,1
1264,16,1,21,1,5,1,-18,1,6,1,13,1,7,1,0,1,11,1,5,1,-3,1,10,1
1265,17,1,21,1,4,1,-19,1,7,1,13,1,7,1,0,1,10,1,5,1,-3,1,12,1
1266,17,1,21,1,4,1,-19,1,7,1,13,1,7,1,-1,1,9,1,3,1,-4,1,11,1
1267,19,1,22,1,3,1,-20,1,8,1,13,1,6,1,-2,1,8,1,3,1,-5,1,11,1
1268,19,1,23,1,4,1,-21,1,8,1,14,1,5,1,-3,1,9,1,3,1,-4,1,11,1
1269,19,1,24,1,5,1,-21,1,7,1,15,1,6,1,-2,1,9,1,4,1,-3,1,12,1
1270,18,1,24,1,6,1,-21,1,6,1,15,1,6,1,-2,1,10,1,5,1,-1,1,13,1
1271,19,1,24,1,5,1,-21,1,7,1,15,1,5,1,-3,1,9,1,4,1,0,1,14,1
1272,22,1,24,1,2,1,-23,1,10,1,13,1,2,1,-4,1,8,1,3,1,-1,1,14,1
1273,22,1,25,1,3,1,-23,1,10,1,14,1,0,1,-6,1,7,1,2,1,0,1,14,1
1274,23,1,25,1,2,1,-24,1,11,1,14,1,-1,1,-9,1,4,1,0,1,0,1,15,1
1275,25,1,26,1,1,1,-25,1,12,1,14,1,-2,1,-11,1,4,1,0,1,0,1,15,1
1276,23,1,25,1,2,1,-24,1,11,1,14,1,-5,1,-11,1,3,1,1,1,0,1,14,1
1277,22,1,25,1,3,1,-23,1,10,1,14,1,-4,1,-10,1,4,1,1,1,1,1,17,1
1278,26,1,25,1,-1,1,-25,1,14,1,12,1,-7,1,-14,1,1,1,-2,1,-1,1,17,1
1279,29,1,26,1,-3,1,-27,1,16,1,12,1,-10,1,-16,1,-1,1,-4,1,-1,1,16,1
1280,29,1,26,1,-3,1,-27,1,16,1,12,1,-10,1,-17,1,-2,1,-4,1,-1,1,17,1
1281,28,1,26,1,-2,1,-27,1,15,1,12,1,-13,1,-19,1,-3,1,-3,1,-1,1,17,1
1282,29,1,26,1,-3,1,-27,1,16,1,12,1,-14,1,-22,1,-6,1,-5,1,-1,1,17,1
1283,30,1,27,1,-3,1,-28,1,17,1,12,1,-16,1,-24,1,-8,1,-7,1,0,1,18,1
1284,30,1,26,1,-4,1,-28,1,17,1,11,1,-16,1,-25,1,-10,1,-7,1,0,1,18,1
1285,31,1,26,1,-5,1,-28,1,18,1,11,1,-20,1,-25,1,-13,1,-7,1,0,1,19,1
1286,30,1,26,1,-4,1,-28,1,17,1,11,1,-23,1,-28,1,-16,1,-7,1,1,1,20,1
1287,31,1,26,1,-5,1,-28,1,18,1,11,1,-26,1,-31,1,-19,1,-9,1,1,1,20,1
1288,31,1,26,1,-5,1,-28,1,18,1,11,1,-28,1,-33,1,-21,1,-10,1,1,1,20,1
1289,29,1,26,1,-3,1,-27,1,16,1,12,1,-28,1,-34,1,-21,1,-10,1,1,1,20,1
1290,32,1,28,1,-4,1,-30,1,18,1,12,1,-31,1,-35,1,-21,1,-10,1,3,1,23,1
1291,35,1,28,1,-7,1,-31,1,21,1,11,1,-33,1,-39,1,-25,1,-12,1,2,1,22,1
1292,36,1,29,1,-7,1,-32,1,22,1,11,1,-36,1,-42,1,-27,1,-14,1,1,1,22,1
1293,35,1,29,1,-6,1,-32,1,21,1,12,1,-37,1,-43,1,-29,1,-15,1,1,1,22,1
1294,35,1,31,1,-4,1,-33,1,20,1,14,1,-38,1,-43,1,-30,1,-16,1,2,1,22,1
1295,34,1,31,1,-3,1,-32,1,19,1,14,1,-39,1,-43,1,-30,1,-16,1,2,1,23,1
1296,34,1,31,1,-3,1,-32,1,19,1,14,1,-40,1,-45,1,-30,1,-15,1,2,1,23,1
1297,34,1,31,1,-3,1,-32,1,19,1,14,1,-40,1,-46,1,-31,1,-16,1,2,1,23,1
1298,34,1,31,1,-3,1,-32,1,19,1,14,1,-41,1,-46,1,-32,1,-17,1,2,1,23,1
1299,37,1,31,1,-6,1,-34,1,22,1,13,1,-41,1,-48,1,-33,1,-17,1,2,1,23,1
1300,36,1,30,1,-6,1,-33,1,21,1,12,1,-43,1,-48,1,-34,1,-17,1,2,1,22,1
1301,35,1,30,1,-5,1,-32,1,20,1,13,1,-41,1,-46,1,-31,1,-15,1,3,1,23,1
1302,34,1,30,1,-4,1,-32,1,19,1,13,1,-40,1,-43,1,-29,1,-15,1,4,1,23,1
1303,35,1,30,1,-5,1,-32,1,20,1,13,1,-38,1,-43,1,-30,1,-16,1,3,1,23,1
1304,35,1,29,1,-6,1,-32,1,21,1,12,1,-36,1,-41,1,-29,1,-15,1,3,1,23,1
1305,35,1,29,1,-6,1,-32,1,21,1,12,1,-34,1,-37,1,-26,1,-12,1,3,1,22,1
1306,33,1,28,1,-5,1,-30,1,19,1,12,1,-30,1,-34,1,-22,1,-11,1,3,1,21,1
1307,32,1,27,1,-5,1,-29,1,19,1,11,1,-27,1,-30,1,-20,1,-10,1,2,1,20,1
1308,31,1,27,1,-4,1,-29,1,18,1,12,1,-24,1,-26,1,-18,1,-10,1,2,1,19,1
1309,29,1,27,1,-2,1,-28,1,16,1,13,1,-11,1,-20,1,-14,1,-8,1,2,1,19,1
1310,29,1,26,1,-3,1,-27,1,16,1,12,1,-1,1,-16,1,-10,1,-6,1,1,1,18,1
1311,30,1,26,1,-4,1,-28,1,17,1,11,1,5,1,-11,1,-7,1,-5,1,1,1,18,1
1312,28,1,24,1,-4,1,-26,1,16,1,10,1,11,1,-4,1,-4,1,-3,1,1,1,18,1
1313,26,1,25,1,-1,1,-25,1,14,1,12,1,17,1,1,1,1,1,0,1,0,1,17,1
1314,23,1,23,1,0,1,-23,1,12,1,12,1,24,1,7,1,5,1,2,1,1,1,16,1
1315,22,1,21,1,-1,1,-21,1,12,1,10,1,29,1,10,1,9,1,3,1,1,1,16,1
1316,21,1,20,1,-1,1,-20,1,11,1,10,1,35,1,15,1,12,1,5,1,1,1,15,1
1317,19,1,20,1,1,1,-19,1,9,1,11,1,40,1,19,1,16,1,6,1,0,1,13,1
1318,18,1,19,1,1,1,-18,1,9,1,10,1,44,1,23,1,19,1,8,1,-1,1,13,1
1319,17,1,19,1,2,1,-18,1,8,1,11,1,47,1,24,1,21,1,7,1,-3,1,11,1
1320,14,1,19,1,5,1,-16,1,5,1,12,1,52,1,29,1,25,1,8,1,-3,1,11,1
1321,13,1,19,1,6,1,-16,1,4,1,13,1,54,1,31,1,27,1,9,1,-3,1,10,1
1322,13,1,19,1,6,1,-16,1,4,1,13,1,56,1,33,1,29,1,9,1,-4,1,9,1
1323,10,1,19,1,9,1,-14,1,1,1,14,1,57,1,35,1,30,1,10,1,-5,1,8,1
1324,9,1,19,1,10,1,-14,1,0,1,15,1,59,1,36,1,31,1,10,1,-5,1,8,1
1325,9,1,18,1,9,1,-13,1,0,1,14,1,59,1,34,1,30,1,9,1,-7,1,7,1
1326,8,1,18,1,10,1,-13,1,-1,1,14,1,61,1,35,1,31,1,9,1,-8,1,6,1
1327,7,1,17,1,10,1,-12,1,-1,1,14,1,62,1,34,1,31,1,9,1,-9,1,5,1
1328,5,1,17,1,12,1,-11,1,-3,1,15,1,62,1,35,1,32,1,10,1,-9,1,5,1
1329,4,1,17,1,13,1,-10,1,-4,1,15,1,62,1,35,1,32,1,10,1,-10,1,5,1
1330,6,1,17,1,11,1,-11,1,-2,1,14,1,61,1,33,1,31,1,8,1,-11,1,3,1
1331,4,1,17,1,13,1,-10,1,-4,1,15,1,60,1,33,1,31,1,8,1,-11,1,3,1
1332,2,1,18,1,16,1,-10,1,-7,1,17,1,61,1,31,1,31,1,8,1,-11,1,3,1
1333,1,1,18,1,17,1,-9,1,-8,1,18,1,61,1,31,1,30,1,8,1,-12,1,3,1
1334,1,1,16,1,15,1,-8,1,-7,1,16,1,60,1,30,1,30,1,6,1,-13,1,3,1
1335,1,1,16,1,15,1,-8,1,-7,1,16,1,61,1,29,1,30,1,6,1,-13,1,3,1
1336,0,1,15,1,15,1,-7,1,-7,1,15,1,61,1,28,1,29,1,5,1,-13,1,4,1
1337,0,1,15,1,15,1,-7,1,-7,1,15,1,60,1,27,1,28,1,5,1,-13,1,3,1
1338,0,1,15,1,15,1,-7,1,-7,1,15,1,61,1,28,1,29,1,5,1,-13,1,3,1
1339,0,1,16,1,16,1,-8,1,-8,1,16,1,62,1,28,1,29,1,5,1,-14,1,3,1
1340,-1,1,15,1,16,1,-7,1,-8,1,15,1,60,1,26,1,29,1,5,1,-14,1,3,1
1341,-2,1,15,1,17,1,-6,1,-9,1,16,1,59,1,24,1,27,1,3,1,-14,1,2,1
1342,-1,1,15,1,16,1,-7,1,-8,1,15,1,59,1,23,1,26,1,2,1,-16,1,2,1
1343,-1,1,14,1,15,1,-6,1,-8,1,14,1,59,1,23,1,26,1,2,1,-16,1,1,1
1344,-2,1,14,1,16,1,-6,1,-9,1,15,1,59,1,23,1,27,1,2,1,-17,1,1,1
1345,-3,1,14,1,17,1,-5,1,-10,1,15,1,61,1,23,1,26,1,1,1,-17,1,1,1
1346,-2,1,15,1,17,1,-6,1,-9,1,16,1,62,1,23,1,27,1,2,1,-17,1,1,1
1347,-3,1,15,1,18,1,-6,1,-10,1,16,1,61,1,23,1,27,1,2,1,-16,1,2,1
1348,-3,1,15,1,18,1,-6,1,-10,1,16,1,61,1,23,1,27,1,2,1,-16,1,1,1
1349,-2,1,15,1,17,1,-6,1,-9,1,16,1,60,1,23,1,27,1,2,1,-16,1,1,1
1350,-2,1,16,1,18,1,-7,1,-10,1,17,1,62,1,23,1,28,1,3,1,-16,1,2,1
1351,0,1,16,1,16,1,-8,1,-8,1,16,1,63,1,23,1,27,1,3,1,-16,1,2,1
1352,0,1,17,1,17,1,-8,1,-8,1,17,1,61,1,23,1,26,1,2,1,-16,1,1,1
1353,-2,1,16,1,18,1,-7,1,-10,1,17,1,63,1,25,1,28,1,4,1,-14,1,2,1
1354,-3,1,15,1,18,1,-6,1,-10,1,16,1,63,1,26,1,29,1,4,1,-14,1,3,1
1355,-3,1,15,1,18,1,-6,1,-10,1,16,1,63,1,26,1,29,1,4,1,-15,1,2,1
1356,-4,1,14,1,18,1,-5,1,-11,1,16,1,64,1,26,1,28,1,4,1,-15,1,2,1
1357,-1,1,14,1,15,1,-6,1,-8,1,14,1,63,1,24,1,26,1,2,1,-16,1,2,1
1358,-1,1,14,1,15,1,-6,1,-8,1,14,1,63,1,25,1,27,1,3,1,-15,1,2,1
1359,-2,1,14,1,16,1,-6,1,-9,1,15,1,64,1,26,1,29,1,5,1,-14,1,2,1
1360,-2,1,14,1,16,1,-6,1,-9,1,15,1,64,1,26,1,29,1,4,1,-13,1,2,1
1361,0,1,15,1,15,1,-7,1,-7,1,15,1,65,1,25,1,30,1,5,1,-14,1,2,1
1362,1,1,16,1,15,1,-8,1,-7,1,16,1,67,1,26,1,31,1,6,1,-14,1,1,1
1363,-1,1,15,1,16,1,-7,1,-8,1,15,1,69,1,26,1,31,1,5,1,-14,1,1,1
1364,-1,1,15,1,16,1,-7,1,-8,1,15,1,71,1,28,1,31,1,5,1,-14,1,3,1
1365,0,1,15,1,15,1,-7,1,-7,1,15,1,70,1,26,1,30,1,4,1,-14,1,3,1
1366,0,1,14,1,14,1,-7,1,-7,1,14,1,70,1,26,1,29,1,3,1,-14,1,2,1
1367,0,1,15,1,15,1,-7,1,-7,1,15,1,71,1,27,1,30,1,5,1,-13,1,2,1
1368,1,1,16,1,15,1,-8,1,-7,1,16,1,71,1,28,1,31,1,6,1,-13,1,3,1
1369,2,1,17,1,15,1,-9,1,-6,1,16,1,71,1,28,1,31,1,6,1,-13,1,4,1
1370,0,1,17,1,17,1,-8,1,-8,1,17,1,73,1,28,1,32,1,6,1,-13,1,4,1
1371,0,1,18,1,18,1,-9,1,-9,1,18,1,73,1,29,1,33,1,7,1,-12,1,4,1
1372,0,1,18,1,18,1,-9,1,-9,1,18,1,74,1,30,1,34,1,8,1,-12,1,5,1
1373,1,1,20,1,19,1,-10,1,-9,1,20,1,75,1,31,1,35,1,10,1,-11,1,5,1
1374,1,1,21,1,20,1,-11,1,-9,1,21,1,78,1,33,1,37,1,12,1,-10,1,5,1
1375,1,1,23,1,22,1,-12,1,-10,1,23,1,79,1,35,1,38,1,13,1,-8,1,5,1
1376,1,1,25,1,24,1,-13,1,-11,1,25,1,81,1,37,1,40,1,14,1,-7,1,6,1
1377,2,1,27,1,25,1,-14,1,-11,1,26,1,83,1,39,1,42,1,16,1,-7,1,8,1
1378,5,1,30,1,25,1,-17,1,-10,1,28,1,84,1,42,1,43,1,17,1,-5,1,8,1
1379,6,1,29,1,23,1,-17,1,-8,1,26,1,86,1,44,1,45,1,19,1,-4,1,9,1
1380,8,1,32,1,24,1,-20,1,-8,1,28,1,86,1,45,1,46,1,20,1,-4,1,10,1
1381,8,1,33,1,25,1,-20,1,-8,1,29,1,87,1,46,1,47,1,20,1,-3,1,11,1
1382,10,1,36,1,26,1,-23,1,-8,1,31,1,88,1,48,1,49,1,22,1,-1,1,11,1
1383,13,1,38,1,25,1,-25,1,-6,1,32,1,87,1,48,1,51,1,23,1,-1,1,12,1
1384,12,1,38,1,26,1,-25,1,-7,1,32,1,88,1,50,1,53,1,25,1,-1,1,12,1
1385,13,1,40,1,27,1,-26,1,-7,1,34,1,90,1,53,1,55,1,27,1,0,1,13,1
1386,14,1,42,1,28,1,-28,1,-7,1,35,1,87,1,54,1,57,1,30,1,3,1,14,1
1387,17,1,43,1,26,1,-30,1,-4,1,35,1,83,1,52,1,55,1,30,1,3,1,15,1
1388,18,1,43,1,25,1,-30,1,-3,1,34,1,79,1,49,1,53,1,29,1,3,1,16,1
1389,17,1,42,1,25,1,-29,1,-4,1,34,1,74,1,46,1,51,1,28,1,3,1,16,1
1390,17,1,42,1,25,1,-29,1,-4,1,34,1,70,1,43,1,50,1,28,1,4,1,17,1
1391,20,1,41,1,21,1,-30,1,0,1,31,1,65,1,39,1,48,1,26,1,5,1,17,1
1392,21,1,41,1,20,1,-31,1,1,1,31,1,62,1,36,1,45,1,25,1,4,1,17,1
1393,23,1,40,1,17,1,-31,1,3,1,29,1,59,1,33,1,43,1,23,1,2,1,16,1
1394,22,1,40,1,18,1,-31,1,2,1,29,1,57,1,33,1,43,1,23,1,2,1,18,1
1395,23,1,40,1,17,1,-31,1,3,1,29,1,53,1,32,1,43,1,24,1,4,1,18,1
1396,22,1,38,1,16,1,-30,1,3,1,27,1,51,1,30,1,42,1,23,1,3,1,18,1
1397,22,1,37,1,15,1,-29,1,4,1,26,1,50,1,29,1,40,1,21,1,1,1,17,1
1398,23,1,38,1,15,1,-30,1,4,1,27,1,48,1,27,1,40,1,21,1,2,1,16,1
1399,21,1,39,1,18,1,-30,1,2,1,29,1,48,1,27,1,39,1,21,1,2,1,17,1
1400,21,1,39,1,18,1,-30,1,2,1,29,1,48,1,26,1,38,1,20,1,1,1,17,1
1401,24,1,40,1,16,1,-32,1,4,1,28,1,46,1,25,1,37,1,20,1,1,1,17,1
1402,27,1,42,1,15,1,-34,1,6,1,29,1,44,1,23,1,36,1,19,1,1,1,18,1
1403,26,1,41,1,15,1,-33,1,6,1,28,1,42,1,22,1,36,1,20,1,1,1,18,1
1404,25,1,40,1,15,1,-32,1,5,1,28,1,41,1,22,1,36,1,19,1,2,1,17,1
1405,22,1,38,1,16,1,-30,1,3,1,27,1,41,1,22,1,36,1,19,1,2,1,17,1
1406,21,1,36,1,15,1,-28,1,3,1,26,1,40,1,22,1,36,1,20,1,2,1,17,1
1407,20,1,34,1,14,1,-27,1,3,1,24,1,38,1,21,1,36,1,18,1,2,1,16,1
1408,20,1,34,1,14,1,-27,1,3,1,24,1,38,1,22,1,34,1,17,1,0,1,15,1
1409,18,1,32,1,14,1,-25,1,2,1,23,1,39,1,22,1,33,1,17,1,0,1,14,1
1410,16,1,30,1,14,1,-23,1,1,1,22,1,38,1,20,1,31,1,15,1,-2,1,14,1
1411,14,1,28,1,14,1,-21,1,0,1,21,1,37,1,16,1,29,1,13,1,-2,1,13,1
1412,15,1,28,1,13,1,-21,1,1,1,21,1,36,1,14,1,28,1,11,1,-4,1,11,1
1413,12,1,25,1,13,1,-18,1,0,1,19,1,36,1,13,1,27,1,10,1,-5,1,9,1
1414,6,1,21,1,15,1,-13,1,-4,1,18,1,39,1,14,1,27,1,9,1,-7,1,8,1
1415,5,1,18,1,13,1,-11,1,-4,1,16,1,40,1,14,1,26,1,7,1,-9,1,6,1
1416,3,1,15,1,12,1,-9,1,-4,1,14,1,41,1,16,1,26,1,7,1,-10,1,6,1
1417,3,1,13,1,10,1,-8,1,-3,1,12,1,41,1,16,1,26,1,6,1,-10,1,4,1
1418,2,1,12,1,10,1,-7,1,-4,1,11,1,39,1,14,1,23,1,4,1,-13,1,2,1
1419,0,1,12,1,12,1,-6,1,-6,1,12,1,38,1,14,1,22,1,3,1,-13,1,3,1
1420,1,1,11,1,10,1,-6,1,-4,1,11,1,38,1,12,1,20,1,1,1,-15,1,2,1
1421,0,1,9,1,9,1,-4,1,-4,1,9,1,37,1,11,1,19,1,1,1,-15,1,2,1
1422,0,1,8,1,8,1,-4,1,-4,1,8,1,37,1,11,1,19,1,1,1,-15,1,2,1
1423,0,1,8,1,8,1,-4,1,-4,1,8,1,38,1,11,1,19,1,2,1,-15,1,2,1
1424,0,1,6,1,6,1,-3,1,-3,1,6,1,37,1,10,1,17,1,0,1,-15,1,1,1
1425,0,1,5,1,5,1,-2,1,-2,1,5,1,34,1,9,1,18,1,1,1,-16,1,1,1
1426,-2,1,5,1,7,1,-1,1,-4,1,6,1,31,1,9,1,19,1,1,1,-16,1,2,1
1427,-3,1,6,1,9,1,-1,1,-6,1,7,1,31,1,9,1,18,1,1,1,-16,1,1,1
1428,-4,1,5,1,9,1,0,1,-6,1,7,1,30,1,8,1,18,1,0,1,-15,1,2,1
1429,-1,1,5,1,6,1,-2,1,-3,1,5,1,29,1,6,1,15,1,-1,1,-16,1,0,1
1430,-2,1,5,1,7,1,-1,1,-4,1,6,1,28,1,7,1,15,1,-1,1,-16,1,0,1
1431,-2,1,6,1,8,1,-2,1,-5,1,7,1,27,1,6,1,15,1,-1,1,-17,1,0,1
1432,0,1,8,1,8,1,-4,1,-4,1,8,1,27,1,6,1,14,1,-1,1,-18,1,0,1
1433,-1,1,7,1,8,1,-3,1,-4,1,7,1,25,1,5,1,15,1,-1,1,-18,1,0,1
1434,-2,1,6,1,8,1,-2,1,-5,1,7,1,26,1,5,1,16,1,-2,1,-18,1,0,1
1435,-2,1,5,1,7,1,-1,1,-4,1,6,1,26,1,5,1,16,1,-2,1,-19,1,0,1
1436,-4,1,4,1,8,1,0,1,-6,1,6,1,26,1,6,1,15,1,-2,1,-18,1,-1,1
1437,-3,1,4,1,7,1,0,1,-5,1,5,1,25,1,4,1,15,1,-3,1,-20,1,-2,1
1438,-3,1,5,1,8,1,-1,1,-5,1,6,1,26,1,5,1,15,1,-4,1,-20,1,-3,1
1439,-3,1,5,1,8,1,-1,1,-5,1,6,1,27,1,3,1,14,1,-4,1,-20,1,-2,1
1440,-2,1,5,1,7,1,-1,1,-4,1,6,1,26,1,1,1,14,1,-4,1,-20,1,-2,1
1441,-3,1,6,1,9,1,-1,1,-6,1,7,1,26,1,3,1,14,1,-4,1,-20,1,-2,1
1442,-5,1,5,1,10,1,0,1,-7,1,7,1,25,1,4,1,15,1,-3,1,-21,1,-2,1
1443,-5,1,5,1,10,1,0,1,-7,1,7,1,23,1,3,1,13,1,-3,1,-19,1,-2,1
1444,-4,1,5,1,9,1,0,1,-6,1,7,1,23,1,2,1,13,1,-4,1,-20,1,-3,1
1445,-2,1,4,1,6,1,-1,1,-4,1,5,1,24,1,2,1,12,1,-4,1,-20,1,-4,1
1446,-1,1,2,1,3,1,0,1,-2,1,2,1,24,1,3,1,12,1,-5,1,-21,1,-4,1
1447,-1,1,0,1,1,1,0,1,-1,1,0,1,26,1,7,1,15,1,-4,1,-22,1,-4,1
1448,-1,1,-1,1,0,1,1,1,-1,1,-1,1,28,1,13,1,19,1,-2,1,-21,1,-4,1
1449,-1,1,-2,1,-1,1,1,1,0,1,-2,1,31,1,20,1,26,1,3,1,-20,1,-5,1
1450,2,1,-4,1,-6,1,1,1,4,1,-5,1,33,1,27,1,32,1,8,1,-18,1,-4,1
1451,5,1,-5,1,-10,1,0,1,7,1,-7,1,34,1,36,1,39,1,11,1,-18,1,-6,1
1452,7,1,-7,1,-14,1,0,1,10,1,-10,1,37,1,50,1,52,1,19,1,-15,1,-5,1
1453,7,1,-6,1,-13,1,0,1,10,1,-9,1,45,1,68,1,67,1,29,1,-12,1,-5,1
1454,10,1,-7,1,-17,1,-1,1,13,1,-12,1,56,1,90,1,86,1,43,1,-7,1,-3,1
1455,13,1,-4,1,-17,1,-4,1,15,1,-10,1,65,1,115,1,109,1,60,1,1,1,0,1
1456,21,1,-1,1,-22,1,-10,1,21,1,-11,1,75,1,149,1,138,1,82,1,10,1,3,1
1457,35,1,6,1,-29,1,-20,1,32,1,-11,1,86,1,186,1,170,1,108,1,26,1,11,1
1458,51,1,15,1,-36,1,-33,1,44,1,-10,1,96,1,222,1,203,1,140,1,46,1,22,1
1459,66,1,23,1,-43,1,-44,1,55,1,-10,1,109,1,263,1,237,1,171,1,69,1,34,1
1460,82,1,30,1,-52,1,-56,1,67,1,-11,1,126,1,299,1,268,1,203,1,91,1,45,1
1461,96,1,44,1,-52,1,-70,1,74,1,-4,1,142,1,317,1,294,1,232,1,113,1,57,1
1462,107,1,60,1,-47,1,-83,1,77,1,7,1,156,1,313,1,307,1,254,1,135,1,71,1
1463,118,1,73,1,-45,1,-95,1,82,1,14,1,167,1,297,1,310,1,269,1,152,1,84,1
1464,116,1,85,1,-31,1,-100,1,74,1,27,1,178,1,262,1,289,1,261,1,157,1,91,1
1465,93,1,102,1,9,1,-97,1,42,1,56,1,184,1,197,1,243,1,228,1,146,1,93,1
1466,53,1,122,1,69,1,-87,1,-8,1,96,1,187,1,110,1,177,1,171,1,118,1,88,1
1467,3,1,147,1,144,1,-75,1,-70,1,146,1,172,1,-1,1,96,1,105,1,85,1,80,1
1468,-38,1,169,1,207,1,-65,1,-122,1,188,1,147,1,-119,1,7,1,38,1,51,1,72,1
1469,-78,1,172,1,250,1,-47,1,-164,1,211,1,129,1,-219,1,-79,1,-28,1,11,1,58,1
1470,-104,1,167,1,271,1,-31,1,-187,1,219,1,100,1,-302,1,-157,1,-86,1,-24,1,42,1
1471,-116,1,156,1,272,1,-20,1,-194,1,214,1,51,1,-390,1,-241,1,-143,1,-53,1,31,1
1472,-124,1,152,1,276,1,-14,1,-200,1,214,1,-4,1,-474,1,-326,1,-195,1,-74,1,24,1
1473,-125,1,141,1,266,1,-8,1,-195,1,203,1,-64,1,-536,1,-387,1,-232,1,-86,1,19,1
1474,-122,1,112,1,234,1,5,1,-178,1,173,1,-126,1,-566,1,-424,1,-258,1,-100,1,10,1
1475,-120,1,82,1,202,1,19,1,-161,1,142,1,-173,1,-575,1,-447,1,-280,1,-115,1,0,1
1476,-118,1,59,1,177,1,29,1,-147,1,118,1,-204,1,-573,1,-462,1,-299,1,-127,1,-11,1
1477,-112,1,41,1,153,1,35,1,-132,1,97,1,-217,1,-556,1,-462,1,-307,1,-135,1,-18,1
1478,-110,1,23,1,133,1,43,1,-121,1,78,1,-219,1,-532,1,-447,1,-304,1,-138,1,-25,1
1479,-110,1,4,1,114,1,53,1,-112,1,59,1,-213,1,-501,1,-419,1,-293,1,-141,1,-33,1
1480,-109,1,-14,1,95,1,61,1,-102,1,40,1,-193,1,-453,1,-381,1,-274,1,-142,1,-40,1
1481,-105,1,-30,1,75,1,67,1,-90,1,22,1,-166,1,-399,1,-338,1,-250,1,-137,1,-44,1
1482,-97,1,-37,1,60,1,67,1,-79,1,11,1,-144,1,-352,1,-297,1,-223,1,-127,1,-43,1
1483,-85,1,-43,1,42,1,64,1,-64,1,-1,1,-121,1,-302,1,-254,1,-195,1,-117,1,-42,1
1484,-70,1,-45,1,25,1,57,1,-48,1,-10,1,-101,1,-252,1,-213,1,-167,1,-104,1,-38,1
1485,-64,1,-45,1,19,1,54,1,-42,1,-13,1,-85,1,-216,1,-183,1,-146,1,-94,1,-35,1
1486,-58,1,-47,1,11,1,52,1,-35,1,-18,1,-71,1,-189,1,-159,1,-130,1,-88,1,-33,1
1487,-49,1,-44,1,5,1,46,1,-27,1,-20,1,-58,1,-165,1,-137,1,-113,1,-79,1,-30,1
1488,-43,1,-40,1,3,1,41,1,-23,1,-19,1,-46,1,-138,1,-113,1,-94,1,-69,1,-26,1
1489,-35,1,-30,1,5,1,32,1,-20,1,-13,1,-36,1,-115,1,-89,1,-76,1,-58,1,-19,1
1490,-24,1,-19,1,5,1,21,1,-15,1,-7,1,-27,1,-89,1,-65,1,-57,1,-48,1,-15,1
1491,-19,1,-8,1,11,1,13,1,-15,1,1,1,-15,1,-64,1,-42,1,-40,1,-39,1,-11,1
1492,-12,1,-2,1,10,1,7,1,-11,1,4,1,-4,1,-45,1,-26,1,-28,1,-32,1,-6,1
1493,-7,1,3,1,10,1,2,1,-8,1,6,1,5,1,-31,1,-15,1,-22,1,-28,1,-3,1
1494,-7,1,5,1,12,1,1,1,-9,1,8,1,10,1,-21,1,-7,1,-17,1,-26,1,-3,1
1495,-6,1,7,1,13,1,0,1,-9,1,10,1,16,1,-12,1,0,1,-12,1,-24,1,-2,1
1496,-4,1,7,1,11,1,-1,1,-7,1,9,1,18,1,-8,1,2,1,-10,1,-23,1,-2,1
1497,-5,1,6,1,11,1,0,1,-8,1,8,1,17,1,-8,1,2,1,-10,1,-23,1,-2,1
1498,-6,1,6,1,12,1,0,1,-9,1,9,1,17,1,-6,1,4,1,-8,1,-22,1,-2,1
1499,-6,1,7,1,13,1,0,1,-9,1,10,1,18,1,-3,1,7,1,-5,1,-21,1,-1,1
1500,-5,1,7,1,12,1,-1,1,-8,1,9,1,19,1,-3,1,7,1,-6,1,-21,1,-2,1
1501,-1,1,7,1,8,1,-3,1,-4,1,7,1,19,1,-2,1,7,1,-7,1,-22,1,-1,1
1502,-1,1,8,1,9,1,-3,1,-5,1,8,1,21,1,-1,1,10,1,-5,1,-22,1,-1,1
1503,-1,1,10,1,11,1,-4,1,-6,1,10,1,21,1,0,1,11,1,-5,1,-21,1,-1,1
1504,-3,1,9,1,12,1,-3,1,-7,1,10,1,22,1,0,1,12,1,-4,1,-19,1,0,1
1505,-2,1,9,1,11,1,-3,1,-6,1,10,1,21,1,1,1,12,1,-3,1,-19,1,0,1
1506,0,1,9,1,9,1,-4,1,-4,1,9,1,19,1,2,1,13,1,-2,1,-19,1,0,1
1507,0,1,9,1,9,1,-4,1,-4,1,9,1,18,1,2,1,13,1,0,1,-19,1,0,1
1508,-1,1,11,1,12,1,-5,1,-6,1,11,1,18,1,4,1,14,1,0,1,-19,1,0,1
1509,0,1,11,1,11,1,-5,1,-5,1,11,1,17,1,3,1,14,1,0,1,-18,1,0,1
1510,2,1,12,1,10,1,-7,1,-4,1,11,1,16,1,1,1,11,1,-3,1,-20,1,0,1
1511,3,1,13,1,10,1,-8,1,-3,1,12,1,18,1,2,1,11,1,-2,1,-20,1,0,1
1512,2,1,13,1,11,1,-7,1,-4,1,12,1,21,1,2,1,11,1,-2,1,-18,1,0,1
1513,4,1,14,1,10,1,-9,1,-3,1,12,1,22,1,2,1,12,1,-1,1,-18,1,2,1
1514,3,1,13,1,10,1,-8,1,-3,1,12,1,20,1,2,1,12,1,-1,1,-17,1,2,1
1515,2,1,12,1,10,1,-7,1,-4,1,11,1,20,1,1,1,12,1,0,1,-17,1,1,1
1516,2,1,14,1,12,1,-8,1,-5,1,13,1,19,1,2,1,13,1,0,1,-17,1,2,1
1517,3,1,14,1,11,1,-8,1,-4,1,13,1,17,1,2,1,13,1,0,1,-17,1,2,1
1518,3,1,15,1,12,1,-9,1,-4,1,14,1,17,1,3,1,14,1,1,1,-16,1,3,1
1519,5,1,15,1,10,1,-10,1,-2,1,13,1,15,1,2,1,13,1,1,1,-16,1,3,1
1520,7,1,13,1,6,1,-10,1,1,1,10,1,13,1,1,1,13,1,0,1,-15,1,3,1
1521,6,1,15,1,9,1,-10,1,-1,1,12,1,13,1,0,1,13,1,1,1,-15,1,3,1
1522,5,1,16,1,11,1,-10,1,-3,1,14,1,14,1,1,1,14,1,1,1,-14,1,5,1
1523,6,1,17,1,11,1,-11,1,-2,1,14,1,13,1,2,1,14,1,2,1,-14,1,5,1
1524,8,1,18,1,10,1,-13,1,-1,1,14,1,12,1,1,1,13,1,2,1,-14,1,5,1
1525,9,1,17,1,8,1,-13,1,1,1,13,1,11,1,0,1,13,1,2,1,-14,1,6,1
1526,7,1,17,1,10,1,-12,1,-1,1,14,1,9,1,0,1,13,1,3,1,-14,1,5,1
1527,6,1,17,1,11,1,-11,1,-2,1,14,1,8,1,-1,1,13,1,3,1,-13,1,5,1
1528,7,1,17,1,10,1,-12,1,-1,1,14,1,6,1,0,1,13,1,3,1,-12,1,6,1
1529,8,1,17,1,9,1,-12,1,0,1,13,1,5,1,0,1,13,1,4,1,-12,1,6,1
1530,9,1,17,1,8,1,-13,1,1,1,13,1,5,1,0,1,13,1,4,1,-11,1,7,1
1531,8,1,17,1,9,1,-12,1,0,1,13,1,7,1,1,1,15,1,4,1,-10,1,8,1
1532,8,1,18,1,10,1,-13,1,-1,1,14,1,5,1,3,1,15,1,5,1,-10,1,9,1
1533,8,1,19,1,11,1,-13,1,-1,1,15,1,4,1,2,1,15,1,4,1,-10,1,8,1
1534,7,1,19,1,12,1,-13,1,-2,1,16,1,3,1,2,1,14,1,4,1,-10,1,8,1
1535,9,1,19,1,10,1,-14,1,0,1,15,1,0,1,1,1,13,1,3,1,-11,1,8,1
1536,12,1,20,1,8,1,-16,1,2,1,14,1,-2,1,0,1,12,1,3,1,-11,1,8,1
1537,13,1,20,1,7,1,-16,1,3,1,14,1,-3,1,-2,1,10,1,3,1,-12,1,8,1
1538,14,1,21,1,7,1,-17,1,4,1,14,1,-4,1,-3,1,11,1,2,1,-11,1,9,1
1539,14,1,20,1,6,1,-17,1,4,1,13,1,-4,1,-3,1,11,1,3,1,-10,1,10,1
1540,15,1,20,1,5,1,-17,1,5,1,13,1,-4,1,-2,1,12,1,4,1,-9,1,10,1
1541,15,1,20,1,5,1,-17,1,5,1,13,1,-5,1,-1,1,13,1,5,1,-9,1,10,1
1542,15,1,22,1,7,1,-18,1,4,1,15,1,-4,1,-1,1,13,1,7,1,-7,1,12,1
1543,15,1,21,1,6,1,-18,1,5,1,14,1,-5,1,-1,1,13,1,7,1,-7,1,11,1
1544,15,1,21,1,6,1,-18,1,5,1,14,1,-8,1,-2,1,11,1,5,1,-9,1,11,1
1545,17,1,21,1,4,1,-19,1,7,1,13,1,-11,1,-4,1,10,1,5,1,-8,1,12,1
1546,16,1,21,1,5,1,-18,1,6,1,13,1,-12,1,-4,1,10,1,4,1,-8,1,12,1
1547,17,1,22,1,5,1,-19,1,6,1,14,1,-13,1,-4,1,11,1,4,1,-7,1,12,1
1548,17,1,23,1,6,1,-20,1,6,1,15,1,-14,1,-6,1,9,1,4,1,-7,1,13,1
1549,19,1,24,1,5,1,-21,1,7,1,15,1,-16,1,-8,1,7,1,2,1,-7,1,13,1
1550,20,1,24,1,4,1,-22,1,8,1,14,1,-17,1,-8,1,6,1,2,1,-7,1,14,1
1551,21,1,25,1,4,1,-23,1,9,1,15,1,-19,1,-9,1,5,1,2,1,-6,1,14,1
1552,21,1,26,1,5,1,-23,1,8,1,16,1,-19,1,-9,1,5,1,3,1,-5,1,15,1
1553,24,1,27,1,3,1,-25,1,11,1,15,1,-21,1,-10,1,4,1,3,1,-4,1,16,1
1554,24,1,26,1,2,1,-25,1,11,1,14,1,-22,1,-11,1,2,1,2,1,-4,1,16,1
1555,25,1,26,1,1,1,-25,1,12,1,14,1,-24,1,-13,1,1,1,1,1,-4,1,16,1
1556,25,1,26,1,1,1,-25,1,12,1,14,1,-26,1,-14,1,1,1,1,1,-3,1,17,1
1557,23,1,25,1,2,1,-24,1,11,1,14,1,-28,1,-15,1,0,1,1,1,-3,1,18,1
1558,26,1,26,1,0,1,-26,1,13,1,13,1,-29,1,-17,1,-1,1,0,1,-3,1,19,1
1559,28,1,27,1,-1,1,-27,1,15,1,13,1,-31,1,-20,1,-4,1,-1,1,-3,1,18,1
1560,28,1,28,1,0,1,-28,1,14,1,14,1,-34,1,-21,1,-6,1,-2,1,-3,1,18,1
1561,28,1,28,1,0,1,-28,1,14,1,14,1,-37,1,-22,1,-8,1,-2,1,-3,1,18,1
1562,29,1,29,1,0,1,-29,1,15,1,15,1,-40,1,-24,1,-10,1,-3,1,-3,1,17,1
1563,30,1,29,1,-1,1,-29,1,16,1,14,1,-41,1,-26,1,-10,1,-3,1,-2,1,18,1
1564,31,1,30,1,-1,1,-30,1,16,1,15,1,-42,1,-27,1,-10,1,-3,1,-1,1,20,1
1565,31,1,30,1,-1,1,-30,1,16,1,15,1,-45,1,-30,1,-13,1,-5,1,-2,1,19,1
1566,31,1,30,1,-1,1,-30,1,16,1,15,1,-47,1,-31,1,-15,1,-6,1,-2,1,20,1
1567,32,1,29,1,-3,1,-30,1,18,1,13,1,-47,1,-34,1,-18,1,-7,1,-2,1,21,1
1568,32,1,29,1,-3,1,-30,1,18,1,13,1,-50,1,-36,1,-20,1,-9,1,-2,1,21,1
1569,32,1,32,1,0,1,-32,1,16,1,16,1,-51,1,-36,1,-21,1,-9,1,-1,1,20,1
1570,31,1,31,1,0,1,-31,1,16,1,16,1,-54,1,-38,1,-22,1,-10,1,-2,1,20,1
1571,33,1,30,1,-3,1,-31,1,18,1,14,1,-55,1,-40,1,-23,1,-10,1,0,1,23,1
1572,35,1,31,1,-4,1,-33,1,20,1,14,1,-58,1,-42,1,-25,1,-11,1,-1,1,22,1
1573,33,1,34,1,1,1,-33,1,16,1,18,1,-58,1,-43,1,-25,1,-11,1,-1,1,22,1
1574,32,1,32,1,0,1,-32,1,16,1,16,1,-62,1,-45,1,-27,1,-13,1,-2,1,22,1
1575,32,1,32,1,0,1,-32,1,16,1,16,1,-65,1,-48,1,-29,1,-14,1,-2,1,22,1
1576,34,1,34,1,0,1,-34,1,17,1,17,1,-66,1,-49,1,-31,1,-15,1,-2,1,22,1
1577,34,1,32,1,-2,1,-33,1,18,1,15,1,-68,1,-51,1,-32,1,-15,1,-1,1,23,1
1578,34,1,33,1,-1,1,-33,1,18,1,16,1,-69,1,-51,1,-32,1,-15,1,-2,1,23,1
1579,33,1,35,1,2,1,-34,1,16,1,19,1,-69,1,-49,1,-31,1,-13,1,0,1,25,1
1580,33,1,35,1,2,1,-34,1,16,1,19,1,-69,1,-50,1,-32,1,-15,1,-1,1,24,1
1581,34,1,35,1,1,1,-34,1,17,1,18,1,-70,1,-50,1,-33,1,-17,1,-3,1,23,1
1582,36,1,35,1,-1,1,-35,1,19,1,17,1,-71,1,-49,1,-31,1,-16,1,-3,1,23,1
1583,36,1,34,1,-2,1,-35,1,19,1,16,1,-71,1,-46,1,-29,1,-14,1,-3,1,22,1
1584,33,1,32,1,-1,1,-32,1,17,1,16,1,-69,1,-44,1,-27,1,-13,1,-3,1,22,1
1585,34,1,32,1,-2,1,-33,1,18,1,15,1,-67,1,-42,1,-26,1,-12,1,-2,1,22,1
1586,32,1,31,1,-1,1,-31,1,17,1,15,1,-64,1,-38,1,-23,1,-11,1,-2,1,21,1
1587,31,1,29,1,-2,1,-30,1,17,1,14,1,-61,1,-34,1,-21,1,-11,1,-3,1,20,1
1588,31,1,30,1,-1,1,-30,1,16,1,15,1,-57,1,-29,1,-18,1,-9,1,-3,1,20,1
1589,29,1,31,1,2,1,-30,1,14,1,17,1,-53,1,-23,1,-13,1,-7,1,-3,1,19,1
1590,27,1,29,1,2,1,-28,1,13,1,16,1,-48,1,-17,1,-9,1,-4,1,-3,1,19,1
1591,27,1,27,1,0,1,-27,1,14,1,14,1,-45,1,-14,1,-6,1,-4,1,-5,1,17,1
1592,26,1,26,1,0,1,-26,1,13,1,13,1,-43,1,-9,1,-3,1,-2,1,-4,1,17,1
1593,25,1,26,1,1,1,-25,1,12,1,14,1,-39,1,-3,1,1,1,0,1,-3,1,17,1
1594,23,1,25,1,2,1,-24,1,11,1,14,1,-37,1,0,1,5,1,1,1,-4,1,15,1
1595,23,1,25,1,2,1,-24,1,11,1,14,1,-33,1,6,1,9,1,3,1,-4,1,15,1
1596,22,1,24,1,2,1,-23,1,10,1,13,1,-28,1,12,1,12,1,6,1,-5,1,14,1
1597,18,1,23,1,5,1,-20,1,7,1,14,1,-25,1,15,1,15,1,6,1,-7,1,13,1
1598,16,1,21,1,5,1,-18,1,6,1,13,1,-19,1,19,1,18,1,7,1,-7,1,13,1
1599,15,1,21,1,6,1,-18,1,5,1,14,1,-13,1,24,1,22,1,8,1,-7,1,12,1
1600,13,1,19,1,6,1,-16,1,4,1,13,1,-9,1,27,1,25,1,10,1,-8,1,12,1
1601,11,1,19,1,8,1,-15,1,2,1,14,1,-6,1,28,1,27,1,11,1,-7,1,11,1
1602,10,1,20,1,10,1,-15,1,0,1,15,1,-5,1,29,1,27,1,10,1,-8,1,9,1
1603,10,1,20,1,10,1,-15,1,0,1,15,1,-3,1,30,1,28,1,10,1,-10,1,9,1
1604,8,1,19,1,11,1,-13,1,-1,1,15,1,-1,1,32,1,30,1,12,1,-9,1,9,1
1605,9,1,19,1,10,1,-14,1,0,1,15,1,0,1,31,1,30,1,11,1,-11,1,7,1
1606,6,1,18,1,12,1,-12,1,-3,1,15,1,2,1,32,1,30,1,11,1,-12,1,7,1
1607,5,1,18,1,13,1,-11,1,-4,1,16,1,2,1,31,1,31,1,11,1,-13,1,6,1
1608,4,1,17,1,13,1,-10,1,-4,1,15,1,3,1,31,1,30,1,10,1,-15,1,5,1
1609,4,1,19,1,15,1,-11,1,-5,1,17,1,5,1,32,1,31,1,10,1,-14,1,5,1
1610,4,1,18,1,14,1,-11,1,-5,1,16,1,3,1,31,1,30,1,9,1,-15,1,5,1
1611,2,1,17,1,15,1,-9,1,-6,1,16,1,2,1,30,1,30,1,7,1,-17,1,4,1
1612,0,1,18,1,18,1,-9,1,-9,1,18,1,4,1,30,1,30,1,8,1,-17,1,4,1
1613,0,1,18,1,18,1,-9,1,-9,1,18,1,5,1,29,1,31,1,9,1,-17,1,4,1
1614,0,1,18,1,18,1,-9,1,-9,1,18,1,5,1,29,1,31,1,8,1,-17,1,4,1
1615,0,1,18,1,18,1,-9,1,-9,1,18,1,6,1,28,1,30,1,8,1,-18,1,3,1
1616,1,1,17,1,16,1,-9,1,-7,1,17,1,5,1,26,1,28,1,6,1,-19,1,2,1
1617,0,1,17,1,17,1,-8,1,-8,1,17,1,5,1,26,1,28,1,5,1,-19,1,2,1
1618,-2,1,18,1,20,1,-8,1,-11,1,19,1,4,1,26,1,28,1,6,1,-19,1,2,1
1619,-2,1,18,1,20,1,-8,1,-11,1,19,1,4,1,25,1,28,1,6,1,-19,1,2,1
1620,-2,1,18,1,20,1,-8,1,-11,1,19,1,4,1,24,1,28,1,5,1,-19,1,1,1
1621,-2,1,18,1,20,1,-8,1,-11,1,19,1,3,1,22,1,28,1,4,1,-20,1,1,1
1622,-2,1,18,1,20,1,-8,1,-11,1,19,1,2,1,22,1,27,1,4,1,-20,1,1,1
1623,-2,1,16,1,18,1,-7,1,-10,1,17,1,2,1,23,1,27,1,4,1,-20,1,1,1
1624,-3,1,17,1,20,1,-7,1,-11,1,18,1,4,1,24,1,29,1,5,1,-20,1,2,1
1625,-4,1,17,1,21,1,-6,1,-12,1,19,1,2,1,22,1,27,1,3,1,-20,1,1,1
1626,-3,1,17,1,20,1,-7,1,-11,1,18,1,1,1,23,1,27,1,3,1,-20,1,1,1
1627,-2,1,18,1,20,1,-8,1,-11,1,19,1,1,1,21,1,26,1,3,1,-20,1,1,1
1628,-4,1,18,1,22,1,-7,1,-13,1,20,1,2,1,21,1,26,1,3,1,-20,1,1,1
1629,-3,1,17,1,20,1,-7,1,-11,1,18,1,2,1,20,1,25,1,2,1,-20,1,1,1
1630,-2,1,17,1,19,1,-7,1,-10,1,18,1,3,1,20,1,25,1,2,1,-21,1,0,1
1631,-4,1,16,1,20,1,-6,1,-12,1,18,1,5,1,23,1,28,1,4,1,-20,1,1,1
1632,-2,1,17,1,19,1,-7,1,-10,1,18,1,7,1,23,1,27,1,3,1,-20,1,1,1
1633,-2,1,17,1,19,1,-7,1,-10,1,18,1,6,1,23,1,27,1,3,1,-20,1,1,1
1634,-4,1,18,1,22,1,-7,1,-13,1,20,1,6,1,24,1,29,1,4,1,-20,1,2,1
1635,-3,1,18,1,21,1,-7,1,-12,1,19,1,5,1,22,1,27,1,3,1,-20,1,1,1
1636,0,1,19,1,19,1,-9,1,-9,1,19,1,5,1,21,1,26,1,2,1,-21,1,1,1
1637,-1,1,18,1,19,1,-8,1,-10,1,18,1,5,1,21,1,26,1,2,1,-20,1,1,1
1638,-2,1,18,1,20,1,-8,1,-11,1,19,1,5,1,22,1,27,1,3,1,-20,1,1,1
1639,-2,1,19,1,21,1,-8,1,-11,1,20,1,7,1,23,1,27,1,4,1,-21,1,1,1
1640,-2,1,19,1,21,1,-8,1,-11,1,20,1,7,1,25,1,29,1,4,1,-21,1,1,1
1641,-1,1,18,1,19,1,-8,1,-10,1,18,1,8,1,25,1,28,1,3,1,-21,1,1,1
1642,-1,1,17,1,18,1,-8,1,-9,1,17,1,7,1,24,1,29,1,5,1,-19,1,3,1
1643,-3,1,17,1,20,1,-7,1,-11,1,18,1,8,1,24,1,29,1,5,1,-19,1,3,1
1644,-2,1,18,1,20,1,-8,1,-11,1,19,1,10,1,26,1,30,1,5,1,-19,1,3,1
1645,-1,1,18,1,19,1,-8,1,-10,1,18,1,12,1,26,1,30,1,6,1,-18,1,3,1
1646,-2,1,17,1,19,1,-7,1,-10,1,18,1,12,1,27,1,31,1,7,1,-18,1,4,1
1647,0,1,18,1,18,1,-9,1,-9,1,18,1,11,1,26,1,30,1,7,1,-19,1,2,1
1648,0,1,19,1,19,1,-9,1,-9,1,19,1,12,1,26,1,31,1,7,1,-19,1,2,1
1649,0,1,21,1,21,1,-10,1,-10,1,21,1,14,1,28,1,31,1,9,1,-17,1,2,1
1650,-1,1,21,1,22,1,-10,1,-11,1,21,1,14,1,28,1,32,1,9,1,-15,1,4,1
1651,1,1,21,1,20,1,-11,1,-9,1,21,1,16,1,29,1,31,1,9,1,-16,1,3,1
1652,2,1,22,1,20,1,-12,1,-9,1,21,1,18,1,29,1,32,1,11,1,-15,1,3,1
1653,2,1,24,1,22,1,-13,1,-10,1,23,1,20,1,30,1,34,1,13,1,-14,1,5,1
1654,2,1,25,1,23,1,-13,1,-10,1,24,1,22,1,33,1,36,1,15,1,-13,1,6,1
1655,2,1,25,1,23,1,-13,1,-10,1,24,1,24,1,35,1,38,1,16,1,-13,1,7,1
1656,2,1,29,1,27,1,-15,1,-12,1,28,1,28,1,38,1,41,1,18,1,-11,1,7,1
1657,4,1,32,1,28,1,-18,1,-12,1,30,1,30,1,40,1,42,1,19,1,-10,1,8,1
1658,7,1,33,1,26,1,-20,1,-9,1,30,1,31,1,41,1,42,1,20,1,-10,1,8,1
1659,7,1,34,1,27,1,-20,1,-10,1,31,1,32,1,41,1,43,1,20,1,-9,1,8,1
1660,7,1,35,1,28,1,-21,1,-10,1,32,1,35,1,44,1,46,1,22,1,-7,1,9,1
1661,9,1,37,1,28,1,-23,1,-9,1,33,1,38,1,47,1,48,1,24,1,-7,1,10,1
1662,11,1,39,1,28,1,-25,1,-8,1,34,1,41,1,49,1,50,1,25,1,-6,1,10,1
1663,10,1,40,1,30,1,-25,1,-10,1,35,1,43,1,52,1,51,1,27,1,-6,1,12,1
1664,10,1,42,1,32,1,-26,1,-11,1,37,1,44,1,54,1,54,1,30,1,-4,1,13,1
1665,14,1,42,1,28,1,-28,1,-7,1,35,1,43,1,51,1,52,1,31,1,-3,1,14,1
1666,15,1,42,1,27,1,-28,1,-6,1,35,1,41,1,50,1,52,1,31,1,-2,1,15,1
1667,16,1,43,1,27,1,-29,1,-5,1,35,1,37,1,47,1,52,1,30,1,-1,1,16,1
1668,19,1,43,1,24,1,-31,1,-2,1,34,1,33,1,43,1,49,1,28,1,-2,1,15,1
1669,21,1,44,1,23,1,-32,1,-1,1,34,1,30,1,40,1,47,1,28,1,-2,1,15,1
1670,22,1,43,1,21,1,-32,1,1,1,32,1,27,1,37,1,46,1,28,1,-2,1,15,1
1671,20,1,42,1,22,1,-31,1,-1,1,32,1,25,1,35,1,44,1,26,1,-3,1,15,1
1672,20,1,43,1,23,1,-31,1,-1,1,33,1,24,1,33,1,43,1,25,1,-3,1,14,1
1673,21,1,43,1,22,1,-32,1,0,1,33,1,24,1,32,1,42,1,25,1,-5,1,14,1
1674,20,1,42,1,22,1,-31,1,-1,1,32,1,23,1,31,1,42,1,24,1,-5,1,15,1
1675,22,1,41,1,19,1,-31,1,2,1,30,1,22,1,29,1,40,1,22,1,-5,1,14,1
1676,23,1,40,1,17,1,-31,1,3,1,29,1,20,1,27,1,38,1,22,1,-5,1,14,1
1677,20,1,40,1,20,1,-30,1,0,1,30,1,19,1,26,1,38,1,21,1,-6,1,14,1
1678,19,1,41,1,22,1,-30,1,-1,1,32,1,19,1,26,1,38,1,23,1,-5,1,14,1
1679,20,1,43,1,23,1,-31,1,-1,1,33,1,20,1,26,1,37,1,23,1,-5,1,14,1
1680,22,1,44,1,22,1,-33,1,0,1,33,1,20,1,25,1,38,1,23,1,-4,1,15,1
1681,23,1,44,1,21,1,-33,1,1,1,33,1,18,1,22,1,35,1,21,1,-4,1,16,1
1682,25,1,45,1,20,1,-35,1,3,1,33,1,18,1,21,1,34,1,21,1,-4,1,15,1
1683,24,1,44,1,20,1,-34,1,2,1,32,1,18,1,21,1,34,1,21,1,-4,1,16,1
1684,22,1,41,1,19,1,-31,1,2,1,30,1,19,1,22,1,34,1,21,1,-3,1,16,1
1685,21,1,37,1,16,1,-29,1,3,1,27,1,17,1,21,1,35,1,21,1,-3,1,15,1
1686,21,1,33,1,12,1,-27,1,5,1,23,1,17,1,21,1,35,1,20,1,-3,1,15,1
1687,18,1,31,1,13,1,-24,1,3,1,22,1,18,1,22,1,34,1,20,1,-4,1,15,1
1688,18,1,31,1,13,1,-24,1,3,1,22,1,19,1,20,1,32,1,18,1,-6,1,13,1
1689,17,1,30,1,13,1,-23,1,2,1,22,1,17,1,17,1,30,1,16,1,-8,1,11,1
1690,14,1,28,1,14,1,-21,1,0,1,21,1,17,1,16,1,29,1,15,1,-9,1,10,1
1691,10,1,26,1,16,1,-18,1,-3,1,21,1,19,1,16,1,29,1,15,1,-10,1,10,1
1692,7,1,24,1,17,1,-15,1,-5,1,21,1,21,1,17,1,28,1,15,1,-9,1,10,1
1693,7,1,22,1,15,1,-14,1,-4,1,19,1,22,1,17,1,26,1,12,1,-10,1,8,1
1694,6,1,19,1,13,1,-12,1,-3,1,16,1,21,1,15,1,22,1,8,1,-14,1,4,1
1695,5,1,17,1,12,1,-11,1,-3,1,15,1,23,1,15,1,23,1,6,1,-16,1,3,1
1696,2,1,15,1,13,1,-8,1,-5,1,14,1,24,1,17,1,23,1,7,1,-16,1,2,1
1697,0,1,13,1,13,1,-6,1,-6,1,13,1,24,1,16,1,21,1,5,1,-18,1,2,1
1698,-1,1,11,1,12,1,-5,1,-6,1,11,1,24,1,15,1,20,1,5,1,-20,1,1,1
1699,0,1,11,1,11,1,-5,1,-5,1,11,1,25,1,16,1,21,1,5,1,-18,1,2,1
1700,-1,1,11,1,12,1,-5,1,-6,1,11,1,26,1,15,1,21,1,4,1,-18,1,2,1
1701,-1,1,11,1,12,1,-5,1,-6,1,11,1,26,1,13,1,19,1,3,1,-19,1,1,1
1702,0,1,10,1,10,1,-5,1,-5,1,10,1,27,1,13,1,19,1,3,1,-18,1,1,1
1703,0,1,9,1,9,1,-4,1,-4,1,9,1,26,1,12,1,18,1,3,1,-19,1,2,1
1704,-1,1,8,1,9,1,-3,1,-5,1,8,1,25,1,12,1,17,1,1,1,-20,1,0,1
1705,0,1,8,1,8,1,-4,1,-4,1,8,1,26,1,13,1,17,1,1,1,-21,1,0,1
1706,-5,1,6,1,11,1,0,1,-8,1,8,1,25,1,13,1,17,1,2,1,-21,1,0,1
1707,-3,1,5,1,8,1,-1,1,-5,1,6,1,22,1,10,1,15,1,0,1,-23,1,-2,1
1708,-2,1,5,1,7,1,-1,1,-4,1,6,1,22,1,10,1,15,1,0,1,-23,1,-1,1
1709,-2,1,7,1,9,1,-2,1,-5,1,8,1,23,1,10,1,14,1,0,1,-22,1,0,1
1710,-2,1,8,1,10,1,-3,1,-6,1,9,1,24,1,11,1,15,1,0,1,-22,1,0,1
1711,-2,1,8,1,10,1,-3,1,-6,1,9,1,22,1,10,1,13,1,-1,1,-23,1,-2,1
1712,-3,1,6,1,9,1,-1,1,-6,1,7,1,21,1,9,1,13,1,-2,1,-25,1,-2,1
1713,-3,1,7,1,10,1,-2,1,-6,1,8,1,21,1,10,1,15,1,-1,1,-24,1,-1,1
1714,-3,1,8,1,11,1,-2,1,-7,1,9,1,22,1,9,1,15,1,0,1,-24,1,-1,1
1715,-3,1,7,1,10,1,-2,1,-6,1,8,1,21,1,9,1,15,1,0,1,-23,1,-1,1
1716,-3,1,7,1,10,1,-2,1,-6,1,8,1,21,1,9,1,15,1,0,1,-23,1,-1,1
1717,-6,1,5,1,11,1,0,1,-8,1,8,1,21,1,10,1,15,1,0,1,-23,1,-1,1
1718,-6,1,5,1,11,1,0,1,-8,1,8,1,21,1,11,1,16,1,1,1,-22,1,-1,1
1719,-4,1,4,1,8,1,0,1,-6,1,6,1,20,1,9,1,14,1,-1,1,-23,1,-2,1
1720,-4,1,4,1,8,1,0,1,-6,1,6,1,19,1,8,1,14,1,-2,1,-23,1,-1,1
1721,-5,1,4,1,9,1,0,1,-7,1,6,1,20,1,9,1,15,1,0,1,-22,1,0,1
1722,-5,1,3,1,8,1,1,1,-6,1,5,1,19,1,8,1,14,1,-1,1,-23,1,0,1
1723,-4,1,2,1,6,1,1,1,-5,1,4,1,19,1,6,1,12,1,-1,1,-23,1,0,1
1724,-3,1,1,1,4,1,1,1,-3,1,2,1,18,1,6,1,12,1,-2,1,-24,1,-1,1
1725,-3,1,0,1,3,1,1,1,-3,1,1,1,19,1,8,1,13,1,-1,1,-24,1,-1,1
1726,-3,1,-1,1,2,1,2,1,-3,1,0,1,21,1,11,1,15,1,0,1,-24,1,-2,1
1727,-3,1,-3,1,0,1,3,1,-2,1,-2,1,23,1,17,1,18,1,1,1,-24,1,-4,1
1728,-3,1,-4,1,-1,1,3,1,-1,1,-3,1,27,1,25,1,26,1,7,1,-21,1,-3,1
1729,0,1,-5,1,-5,1,2,1,2,1,-5,1,28,1,34,1,32,1,10,1,-21,1,-3,1
1730,3,1,-7,1,-10,1,2,1,6,1,-8,1,32,1,45,1,41,1,16,1,-21,1,-4,1
1731,6,1,-8,1,-14,1,1,1,10,1,-11,1,37,1,58,1,54,1,24,1,-18,1,-5,1
1732,9,1,-7,1,-16,1,-1,1,12,1,-11,1,44,1,76,1,68,1,33,1,-16,1,-5,1
1733,12,1,-6,1,-18,1,-3,1,15,1,-12,1,53,1,99,1,88,1,47,1,-12,1,-3,1
1734,14,1,-5,1,-19,1,-4,1,16,1,-12,1,62,1,126,1,112,1,64,1,-4,1,-1,1
1735,24,1,0,1,-24,1,-12,1,24,1,-12,1,72,1,160,1,141,1,87,1,8,1,4,1
1736,37,1,7,1,-30,1,-22,1,34,1,-11,1,80,1,194,1,172,1,113,1,24,1,12,1
1737,47,1,16,1,-31,1,-31,1,39,1,-7,1,92,1,232,1,206,1,145,1,45,1,24,1
1738,65,1,23,1,-42,1,-44,1,54,1,-9,1,107,1,273,1,240,1,178,1,68,1,36,1
1739,85,1,32,1,-53,1,-58,1,69,1,-10,1,125,1,307,1,271,1,209,1,90,1,46,1
1740,94,1,45,1,-49,1,-69,1,72,1,-2,1,142,1,319,1,293,1,236,1,113,1,59,1
1741,109,1,62,1,-47,1,-85,1,78,1,8,1,155,1,310,1,304,1,258,1,136,1,75,1
1742,118,1,74,1,-44,1,-96,1,81,1,15,1,166,1,293,1,305,1,271,1,154,1,88,1
1743,112,1,87,1,-25,1,-99,1,69,1,31,1,178,1,255,1,280,1,257,1,155,1,94,1
1744,85,1,105,1,20,1,-95,1,33,1,63,1,186,1,189,1,231,1,220,1,140,1,93,1
1745,41,1,123,1,82,1,-82,1,-20,1,103,1,187,1,98,1,162,1,158,1,107,1,85,1
1746,-4,1,150,1,154,1,-73,1,-79,1,152,1,170,1,-21,1,75,1,89,1,72,1,78,1
1747,-48,1,168,1,216,1,-60,1,-132,1,192,1,148,1,-135,1,-13,1,23,1,37,1,67,1
1748,-88,1,169,1,257,1,-40,1,-172,1,213,1,132,1,-225,1,-93,1,-41,1,-2,1,51,1
1749,-108,1,163,1,271,1,-27,1,-189,1,217,1,99,1,-306,1,-165,1,-94,1,-32,1,38,1
1750,-119,1,154,1,273,1,-17,1,-196,1,213,1,49,1,-390,1,-247,1,-148,1,-57,1,27,1
1751,-125,1,153,1,278,1,-14,1,-201,1,215,1,-9,1,-473,1,-332,1,-198,1,-77,1,22,1
1752,-126,1,140,1,266,1,-7,1,-196,1,203,1,-70,1,-533,1,-389,1,-234,1,-92,1,15,1
1753,-121,1,110,1,231,1,5,1,-176,1,170,1,-132,1,-562,1,-424,1,-260,1,-106,1,5,1
1754,-119,1,82,1,201,1,18,1,-160,1,141,1,-177,1,-570,1,-449,1,-284,1,-121,1,-6,1
1755,-118,1,60,1,178,1,29,1,-148,1,119,1,-203,1,-564,1,-460,1,-299,1,-131,1,-13,1
1756,-114,1,41,1,155,1,36,1,-134,1,98,1,-213,1,-544,1,-457,1,-304,1,-137,1,-19,1
1757,-112,1,21,1,133,1,45,1,-122,1,77,1,-216,1,-521,1,-441,1,-300,1,-140,1,-27,1
1758,-109,1,1,1,110,1,54,1,-109,1,55,1,-208,1,-489,1,-412,1,-290,1,-143,1,-37,1
1759,-107,1,-16,1,91,1,61,1,-99,1,37,1,-183,1,-437,1,-370,1,-268,1,-141,1,-42,1
1760,-102,1,-27,1,75,1,64,1,-89,1,24,1,-157,1,-385,1,-329,1,-243,1,-135,1,-45,1
1761,-94,1,-35,1,59,1,64,1,-77,1,12,1,-134,1,-339,1,-289,1,-217,1,-126,1,-46,1
1762,-81,1,-40,1,41,1,60,1,-61,1,0,1,-112,1,-289,1,-247,1,-189,1,-115,1,-42,1
1763,-69,1,-42,1,27,1,55,1,-48,1,-8,1,-95,1,-244,1,-210,1,-164,1,-104,1,-39,1
1764,-63,1,-43,1,20,1,53,1,-42,1,-12,1,-82,1,-212,1,-183,1,-144,1,-96,1,-36,1
1765,-57,1,-44,1,13,1,50,1,-35,1,-16,1,-66,1,-183,1,-158,1,-126,1,-87,1,-33,1
1766,-51,1,-42,1,9,1,46,1,-30,1,-17,1,-53,1,-156,1,-135,1,-109,1,-79,1,-30,1
1767,-45,1,-38,1,7,1,41,1,-26,1,-16,1,-39,1,-130,1,-111,1,-93,1,-68,1,-24,1
1768,-35,1,-28,1,7,1,31,1,-21,1,-11,1,-30,1,-108,1,-89,1,-76,1,-59,1,-19,1
1769,-24,1,-17,1,7,1,20,1,-16,1,-5,1,-20,1,-84,1,-66,1,-57,1,-48,1,-14,1
1770,-17,1,-7,1,10,1,12,1,-14,1,1,1,-8,1,-59,1,-44,1,-40,1,-38,1,-8,1
1771,-12,1,-1,1,11,1,6,1,-12,1,5,1,2,1,-37,1,-26,1,-26,1,-31,1,-3,1
1772,-7,1,3,1,10,1,2,1,-8,1,6,1,11,1,-25,1,-16,1,-20,1,-28,1,-2,1
1773,-7,1,4,1,11,1,1,1,-9,1,7,1,17,1,-15,1,-8,1,-14,1,-26,1,-2,1
1774,-7,1,6,1,13,1,0,1,-10,1,9,1,23,1,-7,1,-3,1,-10,1,-25,1,-2,1
1775,-7,1,6,1,13,1,0,1,-10,1,9,1,25,1,-4,1,1,1,-9,1,-24,1,-2,1
1776,-8,1,5,1,13,1,1,1,-10,1,9,1,25,1,-1,1,3,1,-6,1,-23,1,-2,1
1777,-8,1,6,1,14,1,1,1,-11,1,10,1,27,1,1,1,5,1,-4,1,-22,1,0,1
1778,-5,1,8,1,13,1,-1,1,-9,1,10,1,27,1,0,1,5,1,-6,1,-23,1,-1,1
1779,-3,1,9,1,12,1,-3,1,-7,1,10,1,25,1,0,1,5,1,-7,1,-25,1,-3,1
1780,-3,1,8,1,11,1,-2,1,-7,1,9,1,26,1,1,1,5,1,-6,1,-24,1,-2,1
1781,-2,1,7,1,9,1,-2,1,-5,1,8,1,26,1,2,1,7,1,-5,1,-23,1,-1,1
1782,-1,1,8,1,9,1,-3,1,-5,1,8,1,27,1,3,1,8,1,-5,1,-23,1,-1,1
1783,-1,1,8,1,9,1,-3,1,-5,1,8,1,27,1,4,1,8,1,-4,1,-23,1,-1,1
1784,-1,1,10,1,11,1,-4,1,-6,1,10,1,28,1,4,1,10,1,-3,1,-22,1,0,1
1785,0,1,11,1,11,1,-5,1,-5,1,11,1,29,1,4,1,11,1,-2,1,-20,1,0,1
1786,1,1,11,1,10,1,-6,1,-4,1,11,1,30,1,5,1,12,1,-2,1,-20,1,0,1
1787,1,1,9,1,8,1,-5,1,-3,1,9,1,30,1,6,1,12,1,-2,1,-19,1,2,1
1788,0,1,9,1,9,1,-4,1,-4,1,9,1,30,1,5,1,12,1,-2,1,-19,1,2,1
1789,1,1,10,1,9,1,-5,1,-4,1,10,1,30,1,5,1,11,1,-2,1,-19,1,1,1
1790,1,1,10,1,9,1,-5,1,-4,1,10,1,30,1,5,1,11,1,-2,1,-20,1,1,1
1791,0,1,10,1,10,1,-5,1,-5,1,10,1,31,1,5,1,12,1,-2,1,-20,1,2,1
1792,1,1,12,1,11,1,-6,1,-5,1,12,1,31,1,4,1,11,1,-2,1,-21,1,1,1
1793,2,1,14,1,12,1,-8,1,-5,1,13,1,32,1,6,1,12,1,0,1,-19,1,1,1
1794,3,1,13,1,10,1,-8,1,-3,1,12,1,31,1,7,1,13,1,1,1,-18,1,2,1
1795,4,1,13,1,9,1,-8,1,-2,1,11,1,31,1,7,1,13,1,1,1,-18,1,3,1
1796,6,1,12,1,6,1,-9,1,0,1,9,1,31,1,7,1,13,1,2,1,-16,1,4,1
1797,5,1,12,1,7,1,-8,1,-1,1,10,1,32,1,7,1,14,1,3,1,-16,1,5,1
1798,3,1,13,1,10,1,-8,1,-3,1,12,1,31,1,6,1,14,1,3,1,-16,1,5,1
1799,3,1,14,1,11,1,-8,1,-4,1,13,1,30,1,4,1,14,1,3,1,-16,1,5,1
1800,6,1,16,1,10,1,-11,1,-2,1,13,1,29,1,3,1,13,1,2,1,-16,1,5,1
1801,4,1,16,1,12,1,-10,1,-4,1,14,1,29,1,3,1,14,1,3,1,-16,1,6,1
1802,6,1,15,1,9,1,-10,1,-1,1,12,1,28,1,1,1,13,1,3,1,-16,1,6,1
1803,9,1,15,1,6,1,-12,1,2,1,11,1,26,1,0,1,11,1,2,1,-16,1,5,1
1804,6,1,17,1,11,1,-11,1,-2,1,14,1,27,1,1,1,12,1,3,1,-14,1,5,1
1805,8,1,18,1,10,1,-13,1,-1,1,14,1,28,1,1,1,12,1,3,1,-14,1,6,1
1806,8,1,18,1,10,1,-13,1,-1,1,14,1,28,1,1,1,12,1,4,1,-13,1,6,1
1807,7,1,18,1,11,1,-12,1,-2,1,15,1,29,1,2,1,13,1,5,1,-12,1,8,1
1808,7,1,18,1,11,1,-12,1,-2,1,15,1,29,1,2,1,13,1,5,1,-11,1,9,1
1809,9,1,19,1,10,1,-14,1,0,1,15,1,27,1,0,1,12,1,3,1,-12,1,9,1
1810,10,1,19,1,9,1,-14,1,1,1,14,1,27,1,0,1,11,1,3,1,-13,1,7,1
1811,12,1,19,1,7,1,-15,1,3,1,13,1,25,1,-2,1,9,1,2,1,-14,1,7,1
1812,10,1,19,1,9,1,-14,1,1,1,14,1,26,1,-1,1,10,1,4,1,-13,1,8,1
1813,11,1,19,1,8,1,-15,1,2,1,14,1,26,1,-1,1,11,1,5,1,-11,1,9,1
1814,12,1,20,1,8,1,-16,1,2,1,14,1,26,1,0,1,11,1,6,1,-12,1,6,1
1815,12,1,20,1,8,1,-16,1,2,1,14,1,26,1,-1,1,11,1,5,1,-13,1,7,1
1816,12,1,21,1,9,1,-16,1,2,1,15,1,23,1,-1,1,11,1,6,1,-12,1,7,1
1817,13,1,22,1,9,1,-17,1,2,1,16,1,23,1,0,1,12,1,7,1,-11,1,8,1
1818,14,1,21,1,7,1,-17,1,4,1,14,1,23,1,-2,1,12,1,7,1,-11,1,9,1
1819,16,1,22,1,6,1,-19,1,5,1,14,1,23,1,-2,1,12,1,7,1,-11,1,9,1
1820,17,1,23,1,6,1,-20,1,6,1,15,1,22,1,-4,1,12,1,7,1,-10,1,9,1
1821,15,1,23,1,8,1,-19,1,4,1,16,1,24,1,-2,1,13,1,9,1,-8,1,10,1
1822,13,1,22,1,9,1,-17,1,2,1,16,1,23,1,-2,1,13,1,9,1,-6,1,11,1
1823,16,1,22,1,6,1,-19,1,5,1,14,1,22,1,-3,1,11,1,7,1,-8,1,12,1
1824,18,1,22,1,4,1,-20,1,7,1,13,1,22,1,-4,1,11,1,7,1,-7,1,11,1
1825,18,1,23,1,5,1,-20,1,7,1,14,1,22,1,-3,1,10,1,7,1,-7,1,12,1
1826,19,1,23,1,4,1,-21,1,8,1,14,1,19,1,-5,1,9,1,7,1,-8,1,11,1
1827,18,1,23,1,5,1,-20,1,7,1,14,1,18,1,-6,1,8,1,5,1,-8,1,11,1
1828,18,1,25,1,7,1,-21,1,6,1,16,1,15,1,-8,1,6,1,4,1,-8,1,12,1
1829,21,1,27,1,6,1,-24,1,8,1,17,1,11,1,-9,1,6,1,4,1,-8,1,12,1
1830,23,1,27,1,4,1,-25,1,10,1,16,1,12,1,-9,1,6,1,5,1,-7,1,12,1
1831,23,1,27,1,4,1,-25,1,10,1,16,1,10,1,-10,1,5,1,5,1,-6,1,13,1
1832,24,1,28,1,4,1,-26,1,10,1,16,1,8,1,-11,1,5,1,5,1,-5,1,14,1
1833,24,1,29,1,5,1,-26,1,10,1,17,1,6,1,-12,1,2,1,4,1,-5,1,13,1
1834,24,1,29,1,5,1,-26,1,10,1,17,1,6,1,-13,1,2,1,4,1,-3,1,15,1
1835,24,1,28,1,4,1,-26,1,10,1,16,1,6,1,-13,1,3,1,5,1,-3,1,16,1
1836,26,1,27,1,1,1,-26,1,13,1,14,1,4,1,-16,1,1,1,4,1,-3,1,17,1
1837,26,1,26,1,0,1,-26,1,13,1,13,1,2,1,-17,1,0,1,4,1,-3,1,18,1
