TS,I,If,II,IIf,III,IIIf,aVR,aVRf,aVL,aVLf,aVF,aVFf,V1,V1f,V2,V2f,V3,V3f,V4,V4f,V5,V5f,V6,V6f
1,-1,1,-3,1,-2,1,2,1,0,1,-3,1,1,1,-19,1,-223,1,-22,1,-28,1,-18,1
2,0,1,-2,1,-2,1,1,1,1,1,-2,1,1,1,-18,1,-223,1,-23,1,-28,1,-18,1
3,0,1,-2,1,-2,1,1,1,1,1,-2,1,1,1,-18,1,-222,1,-23,1,-28,1,-18,1
4,-1,1,-1,1,0,1,1,1,-1,1,-1,1,2,1,-17,1,-223,1,-24,1,-28,1,-17,1
5,-2,1,-1,1,1,1,1,1,-2,1,0,1,2,1,-17,1,-223,1,-24,1,-28,1,-17,1
6,2,1,0,1,-2,1,-1,1,2,1,-1,1,3,1,-17,1,-224,1,-24,1,-28,1,-17,1
7,2,1,0,1,-2,1,-1,1,2,1,-1,1,3,1,-17,1,-225,1,-24,1,-28,1,-18,1
8,0,1,-1,1,-1,1,0,1,0,1,-1,1,2,1,-17,1,-225,1,-24,1,-28,1,-18,1
9,1,1,-3,1,-4,1,1,1,2,1,-3,1,2,1,-17,1,-225,1,-24,1,-28,1,-18,1
10,3,1,-1,1,-4,1,-1,1,3,1,-2,1,2,1,-17,1,-225,1,-24,1,-28,1,-17,1
11,1,1,-2,1,-3,1,0,1,2,1,-2,1,1,1,-17,1,-226,1,-25,1,-28,1,-18,1
12,0,1,-2,1,-2,1,1,1,1,1,-2,1,2,1,-17,1,-226,1,-25,1,-28,1,-18,1
13,1,1,1,1,0,1,-1,1,1,1,1,1,4,1,-16,1,-226,1,-24,1,-27,1,-17,1
14,0,1,2,1,2,1,-1,1,-1,1,2,1,4,1,-16,1,-226,1,-23,1,-28,1,-17,1
15,-2,1,1,1,3,1,0,1,-2,1,2,1,4,1,-17,1,-227,1,-23,1,-28,1,-17,1
16,-1,1,0,1,1,1,0,1,-1,1,0,1,4,1,-18,1,-228,1,-23,1,-29,1,-17,1
17,-1,1,-2,1,-1,1,1,1,0,1,-2,1,3,1,-18,1,-228,1,-23,1,-30,1,-18,1
18,0,1,-1,1,-1,1,0,1,0,1,-1,1,3,1,-17,1,-228,1,-23,1,-29,1,-17,1
19,2,1,0,1,-2,1,-1,1,2,1,-1,1,4,1,-16,1,-226,1,-22,1,-28,1,-16,1
20,1,1,-1,1,-2,1,0,1,1,1,-1,1,2,1,-17,1,-227,1,-22,1,-29,1,-16,1
21,-1,1,-4,1,-3,1,2,1,1,1,-4,1,2,1,-16,1,-228,1,-23,1,-29,1,-17,1
22,-1,1,-4,1,-3,1,2,1,1,1,-4,1,2,1,-16,1,-229,1,-23,1,-30,1,-16,1
23,-2,1,-3,1,-1,1,2,1,-1,1,-2,1,2,1,-14,1,-229,1,-23,1,-30,1,-15,1
24,-3,1,-3,1,0,1,3,1,-2,1,-2,1,3,1,-14,1,-228,1,-22,1,-29,1,-15,1
25,0,1,-5,1,-5,1,2,1,2,1,-5,1,4,1,-14,1,-228,1,-22,1,-30,1,-15,1
26,2,1,-5,1,-7,1,1,1,4,1,-6,1,5,1,-14,1,-227,1,-21,1,-29,1,-14,1
27,1,1,-5,1,-6,1,2,1,3,1,-5,1,7,1,-14,1,-225,1,-20,1,-28,1,-14,1
28,0,1,-5,1,-5,1,2,1,2,1,-5,1,7,1,-15,1,-226,1,-22,1,-30,1,-15,1
29,0,1,-4,1,-4,1,2,1,2,1,-4,1,6,1,-16,1,-227,1,-23,1,-31,1,-17,1
30,1,1,-7,1,-8,1,3,1,4,1,-7,1,6,1,-14,1,-226,1,-21,1,-30,1,-16,1
31,0,1,-8,1,-8,1,4,1,4,1,-8,1,6,1,-15,1,-227,1,-22,1,-30,1,-16,1
32,0,1,-7,1,-7,1,3,1,3,1,-7,1,6,1,-15,1,-227,1,-22,1,-31,1,-16,1
33,0,1,-7,1,-7,1,3,1,3,1,-7,1,6,1,-14,1,-227,1,-22,1,-30,1,-15,1
34,-1,1,-6,1,-5,1,3,1,2,1,-6,1,6,1,-14,1,-226,1,-21,1,-31,1,-15,1
35,0,1,-7,1,-7,1,3,1,3,1,-7,1,6,1,-14,1,-226,1,-21,1,-31,1,-14,1
36,0,1,-7,1,-7,1,3,1,3,1,-7,1,7,1,-13,1,-225,1,-20,1,-30,1,-13,1
37,0,1,-8,1,-8,1,4,1,4,1,-8,1,8,1,-13,1,-224,1,-20,1,-30,1,-12,1
38,0,1,-6,1,-6,1,3,1,3,1,-6,1,9,1,-12,1,-222,1,-19,1,-29,1,-12,1
39,1,1,-4,1,-5,1,1,1,3,1,-4,1,9,1,-11,1,-220,1,-18,1,-28,1,-11,1
40,3,1,-2,1,-5,1,0,1,4,1,-3,1,11,1,-10,1,-218,1,-17,1,-27,1,-9,1
41,2,1,-3,1,-5,1,0,1,3,1,-4,1,11,1,-10,1,-217,1,-16,1,-26,1,-8,1
42,3,1,-3,1,-6,1,0,1,4,1,-4,1,12,1,-9,1,-216,1,-15,1,-25,1,-7,1
43,4,1,0,1,-4,1,-2,1,4,1,-2,1,12,1,-9,1,-215,1,-15,1,-24,1,-7,1
44,0,1,0,1,0,1,0,1,0,1,0,1,12,1,-10,1,-215,1,-15,1,-24,1,-7,1
45,0,1,0,1,0,1,0,1,0,1,0,1,12,1,-9,1,-213,1,-15,1,-24,1,-8,1
46,0,1,-1,1,-1,1,0,1,0,1,-1,1,13,1,-9,1,-212,1,-14,1,-23,1,-7,1
47,0,1,0,1,0,1,0,1,0,1,0,1,15,1,-9,1,-211,1,-14,1,-23,1,-7,1
48,1,1,1,1,0,1,-1,1,1,1,1,1,15,1,-8,1,-209,1,-13,1,-23,1,-6,1
49,1,1,0,1,-1,1,0,1,1,1,0,1,16,1,-7,1,-206,1,-12,1,-22,1,-5,1
50,1,1,0,1,-1,1,0,1,1,1,0,1,17,1,-5,1,-204,1,-11,1,-21,1,-5,1
51,4,1,3,1,-1,1,-3,1,3,1,1,1,17,1,-3,1,-201,1,-10,1,-20,1,-3,1
52,9,1,6,1,-3,1,-7,1,6,1,2,1,17,1,-2,1,-198,1,-9,1,-19,1,-3,1
53,7,1,4,1,-3,1,-5,1,5,1,1,1,16,1,-1,1,-197,1,-9,1,-20,1,-4,1
54,7,1,2,1,-5,1,-4,1,6,1,-1,1,17,1,0,1,-192,1,-8,1,-19,1,-2,1
55,8,1,3,1,-5,1,-5,1,7,1,-1,1,17,1,2,1,-190,1,-8,1,-19,1,-3,1
56,8,1,3,1,-5,1,-5,1,7,1,-1,1,16,1,2,1,-187,1,-8,1,-18,1,-2,1
57,9,1,5,1,-4,1,-7,1,7,1,1,1,16,1,3,1,-184,1,-6,1,-16,1,-1,1
58,11,1,5,1,-6,1,-8,1,9,1,0,1,17,1,5,1,-180,1,-4,1,-14,1,0,1
59,10,1,5,1,-5,1,-7,1,8,1,0,1,18,1,6,1,-177,1,-3,1,-12,1,1,1
60,11,1,4,1,-7,1,-7,1,9,1,-1,1,16,1,6,1,-174,1,-2,1,-10,1,2,1
61,12,1,3,1,-9,1,-7,1,11,1,-3,1,14,1,5,1,-172,1,-2,1,-10,1,3,1
62,12,1,3,1,-9,1,-7,1,11,1,-3,1,12,1,3,1,-170,1,-2,1,-11,1,2,1
63,14,1,2,1,-12,1,-8,1,13,1,-5,1,9,1,3,1,-168,1,-2,1,-11,1,2,1
64,14,1,2,1,-12,1,-8,1,13,1,-5,1,7,1,2,1,-166,1,-3,1,-13,1,2,1
65,13,1,4,1,-9,1,-8,1,11,1,-2,1,5,1,0,1,-165,1,-4,1,-15,1,0,1
66,13,1,3,1,-10,1,-8,1,12,1,-3,1,3,1,-2,1,-165,1,-7,1,-17,1,-1,1
67,10,1,1,1,-9,1,-5,1,10,1,-4,1,3,1,-4,1,-163,1,-8,1,-18,1,-2,1
68,10,1,1,1,-9,1,-5,1,10,1,-4,1,3,1,-5,1,-161,1,-8,1,-17,1,-3,1
69,9,1,1,1,-8,1,-5,1,9,1,-3,1,3,1,-8,1,-160,1,-10,1,-19,1,-5,1
70,10,1,3,1,-7,1,-6,1,9,1,-2,1,3,1,-10,1,-158,1,-12,1,-20,1,-7,1
71,12,1,4,1,-8,1,-8,1,10,1,-2,1,3,1,-11,1,-157,1,-14,1,-22,1,-9,1
72,11,1,3,1,-8,1,-7,1,10,1,-2,1,3,1,-12,1,-154,1,-15,1,-23,1,-9,1
73,11,1,2,1,-9,1,-6,1,10,1,-3,1,3,1,-12,1,-152,1,-16,1,-23,1,-9,1
74,12,1,4,1,-8,1,-8,1,10,1,-2,1,4,1,-11,1,-147,1,-16,1,-23,1,-8,1
75,11,1,3,1,-8,1,-7,1,10,1,-2,1,3,1,-11,1,-144,1,-17,1,-24,1,-9,1
76,11,1,-1,1,-12,1,-5,1,11,1,-6,1,3,1,-11,1,-141,1,-18,1,-24,1,-11,1
77,10,1,-3,1,-13,1,-3,1,11,1,-8,1,2,1,-12,1,-138,1,-19,1,-25,1,-13,1
78,9,1,-4,1,-13,1,-2,1,11,1,-8,1,2,1,-13,1,-134,1,-20,1,-26,1,-15,1
79,6,1,-4,1,-10,1,-1,1,8,1,-7,1,2,1,-15,1,-131,1,-20,1,-26,1,-15,1
80,6,1,-3,1,-9,1,-1,1,7,1,-6,1,1,1,-16,1,-129,1,-21,1,-26,1,-16,1
81,5,1,-4,1,-9,1,0,1,7,1,-6,1,1,1,-18,1,-125,1,-21,1,-26,1,-17,1
82,5,1,-5,1,-10,1,0,1,7,1,-7,1,3,1,-18,1,-122,1,-20,1,-26,1,-18,1
83,6,1,-4,1,-10,1,-1,1,8,1,-7,1,2,1,-17,1,-118,1,-20,1,-27,1,-18,1
84,6,1,-3,1,-9,1,-1,1,7,1,-6,1,2,1,-15,1,-113,1,-19,1,-26,1,-18,1
85,6,1,-2,1,-8,1,-2,1,7,1,-5,1,2,1,-14,1,-108,1,-19,1,-26,1,-17,1
86,5,1,0,1,-5,1,-2,1,5,1,-2,1,1,1,-14,1,-104,1,-20,1,-26,1,-18,1
87,4,1,2,1,-2,1,-3,1,3,1,0,1,2,1,-14,1,-98,1,-21,1,-26,1,-18,1
88,4,1,2,1,-2,1,-3,1,3,1,0,1,2,1,-14,1,-94,1,-22,1,-27,1,-20,1
89,0,1,-2,1,-2,1,1,1,1,1,-2,1,3,1,-15,1,-91,1,-23,1,-28,1,-20,1
90,-2,1,-7,1,-5,1,4,1,1,1,-6,1,3,1,-15,1,-87,1,-22,1,-30,1,-22,1
91,-4,1,-9,1,-5,1,6,1,0,1,-7,1,4,1,-16,1,-83,1,-22,1,-30,1,-22,1
92,-3,1,-7,1,-4,1,5,1,0,1,-6,1,4,1,-16,1,-79,1,-22,1,-31,1,-23,1
93,0,1,-2,1,-2,1,1,1,1,1,-2,1,6,1,-15,1,-73,1,-22,1,-29,1,-21,1
94,0,1,-3,1,-3,1,1,1,1,1,-3,1,5,1,-16,1,-68,1,-23,1,-29,1,-21,1
95,0,1,-3,1,-3,1,1,1,1,1,-3,1,4,1,-16,1,-62,1,-24,1,-29,1,-21,1
96,0,1,-2,1,-2,1,1,1,1,1,-2,1,3,1,-17,1,-54,1,-24,1,-29,1,-22,1
97,-1,1,-2,1,-1,1,1,1,0,1,-2,1,2,1,-17,1,-48,1,-25,1,-30,1,-22,1
98,-1,1,-2,1,-1,1,1,1,0,1,-2,1,2,1,-16,1,-41,1,-25,1,-30,1,-22,1
99,0,1,-2,1,-2,1,1,1,1,1,-2,1,3,1,-16,1,-35,1,-24,1,-30,1,-21,1
100,0,1,-2,1,-2,1,1,1,1,1,-2,1,3,1,-16,1,-29,1,-23,1,-29,1,-20,1
101,-1,1,-3,1,-2,1,2,1,0,1,-3,1,4,1,-16,1,-22,1,-22,1,-29,1,-19,1
102,-1,1,-3,1,-2,1,2,1,0,1,-3,1,4,1,-16,1,-15,1,-22,1,-29,1,-19,1
103,-2,1,-4,1,-2,1,3,1,0,1,-3,1,5,1,-15,1,-7,1,-21,1,-29,1,-19,1
104,-2,1,-4,1,-2,1,3,1,0,1,-3,1,6,1,-16,1,1,1,-22,1,-29,1,-19,1
105,-4,1,-2,1,2,1,3,1,-3,1,0,1,6,1,-15,1,10,1,-21,1,-28,1,-17,1
106,-6,1,2,1,8,1,2,1,-7,1,5,1,8,1,-13,1,22,1,-19,1,-26,1,-16,1
107,-8,1,6,1,14,1,1,1,-11,1,10,1,11,1,-9,1,34,1,-14,1,-21,1,-13,1
108,-10,1,7,1,17,1,1,1,-13,1,12,1,15,1,-3,1,48,1,-8,1,-15,1,-8,1
109,-11,1,9,1,20,1,1,1,-15,1,14,1,19,1,3,1,64,1,0,1,-5,1,0,1
110,-11,1,10,1,21,1,0,1,-16,1,15,1,21,1,12,1,81,1,14,1,9,1,14,1
111,-7,1,14,1,21,1,-3,1,-14,1,17,1,20,1,25,1,102,1,34,1,29,1,35,1
112,1,1,20,1,19,1,-10,1,-9,1,20,1,19,1,44,1,130,1,62,1,58,1,65,1
113,11,1,24,1,13,1,-17,1,-1,1,19,1,18,1,67,1,163,1,96,1,93,1,103,1
114,23,1,27,1,4,1,-25,1,10,1,16,1,16,1,90,1,195,1,132,1,132,1,144,1
115,39,1,30,1,-9,1,-34,1,24,1,11,1,13,1,106,1,225,1,168,1,174,1,190,1
116,56,1,36,1,-20,1,-46,1,38,1,8,1,8,1,115,1,254,1,205,1,218,1,238,1
117,76,1,42,1,-34,1,-59,1,55,1,4,1,-1,1,120,1,279,1,241,1,261,1,286,1
118,97,1,48,1,-49,1,-72,1,73,1,0,1,-13,1,118,1,299,1,270,1,296,1,326,1
119,117,1,51,1,-66,1,-84,1,92,1,-7,1,-25,1,110,1,311,1,287,1,316,1,351,1
120,134,1,49,1,-85,1,-91,1,110,1,-18,1,-37,1,96,1,313,1,290,1,313,1,352,1
121,148,1,45,1,-103,1,-96,1,126,1,-29,1,-48,1,74,1,304,1,274,1,287,1,328,1
122,158,1,41,1,-117,1,-99,1,138,1,-38,1,-57,1,47,1,288,1,248,1,249,1,287,1
123,159,1,38,1,-121,1,-98,1,140,1,-41,1,-62,1,12,1,263,1,211,1,202,1,236,1
124,158,1,36,1,-122,1,-97,1,140,1,-43,1,-68,1,-28,1,231,1,168,1,150,1,180,1
125,156,1,32,1,-124,1,-94,1,140,1,-46,1,-73,1,-72,1,194,1,117,1,94,1,121,1
126,150,1,28,1,-122,1,-89,1,136,1,-47,1,-76,1,-118,1,148,1,55,1,34,1,60,1
127,141,1,21,1,-120,1,-81,1,131,1,-49,1,-80,1,-162,1,101,1,-8,1,-24,1,5,1
128,131,1,16,1,-115,1,-73,1,123,1,-49,1,-83,1,-202,1,56,1,-68,1,-76,1,-43,1
129,110,1,14,1,-96,1,-62,1,103,1,-41,1,-83,1,-235,1,18,1,-121,1,-121,1,-85,1
130,84,1,12,1,-72,1,-48,1,78,1,-30,1,-78,1,-261,1,-13,1,-167,1,-158,1,-120,1
131,56,1,9,1,-47,1,-32,1,52,1,-19,1,-73,1,-279,1,-36,1,-201,1,-185,1,-145,1
132,33,1,3,1,-30,1,-18,1,32,1,-13,1,-70,1,-291,1,-49,1,-222,1,-200,1,-160,1
133,18,1,-4,1,-22,1,-7,1,20,1,-13,1,-68,1,-295,1,-55,1,-235,1,-210,1,-169,1
134,10,1,-12,1,-22,1,1,1,16,1,-17,1,-64,1,-289,1,-51,1,-236,1,-214,1,-172,1
135,6,1,-19,1,-25,1,6,1,15,1,-22,1,-56,1,-275,1,-39,1,-230,1,-210,1,-169,1
136,5,1,-23,1,-28,1,9,1,16,1,-25,1,-48,1,-257,1,-21,1,-220,1,-204,1,-164,1
137,4,1,-25,1,-29,1,10,1,16,1,-27,1,-43,1,-236,1,2,1,-205,1,-193,1,-154,1
138,1,1,-26,1,-27,1,12,1,14,1,-26,1,-41,1,-213,1,27,1,-188,1,-179,1,-143,1
139,0,1,-24,1,-24,1,12,1,12,1,-24,1,-39,1,-188,1,53,1,-169,1,-163,1,-130,1
140,-1,1,-19,1,-18,1,10,1,8,1,-19,1,-35,1,-161,1,80,1,-148,1,-144,1,-115,1
141,-2,1,-15,1,-13,1,8,1,5,1,-14,1,-30,1,-134,1,106,1,-126,1,-126,1,-99,1
142,-2,1,-9,1,-7,1,5,1,2,1,-8,1,-25,1,-109,1,132,1,-106,1,-108,1,-83,1
143,-2,1,-5,1,-3,1,3,1,0,1,-4,1,-21,1,-86,1,156,1,-87,1,-92,1,-69,1
144,-1,1,-1,1,0,1,1,1,-1,1,-1,1,-18,1,-69,1,176,1,-72,1,-79,1,-57,1
145,0,1,0,1,0,1,0,1,0,1,0,1,-14,1,-56,1,193,1,-61,1,-69,1,-48,1
146,0,1,-1,1,-1,1,0,1,0,1,-1,1,-9,1,-47,1,206,1,-53,1,-64,1,-42,1
147,1,1,0,1,-1,1,0,1,1,1,0,1,-4,1,-39,1,217,1,-49,1,-59,1,-39,1
148,2,1,-2,1,-4,1,0,1,3,1,-3,1,0,1,-33,1,224,1,-45,1,-57,1,-38,1
149,2,1,-3,1,-5,1,0,1,3,1,-4,1,4,1,-27,1,232,1,-42,1,-55,1,-36,1
150,0,1,-4,1,-4,1,2,1,2,1,-4,1,7,1,-21,1,238,1,-38,1,-53,1,-34,1
151,0,1,-6,1,-6,1,3,1,3,1,-6,1,9,1,-16,1,246,1,-34,1,-50,1,-31,1
152,0,1,-8,1,-8,1,4,1,4,1,-8,1,10,1,-10,1,254,1,-29,1,-46,1,-28,1
153,0,1,-8,1,-8,1,4,1,4,1,-8,1,11,1,-6,1,263,1,-25,1,-43,1,-26,1
154,0,1,-6,1,-6,1,3,1,3,1,-6,1,11,1,-4,1,270,1,-22,1,-41,1,-24,1
155,0,1,-4,1,-4,1,2,1,2,1,-4,1,11,1,-4,1,276,1,-22,1,-39,1,-23,1
156,0,1,-3,1,-3,1,1,1,1,1,-3,1,10,1,-4,1,280,1,-22,1,-39,1,-22,1
157,0,1,-3,1,-3,1,1,1,1,1,-3,1,10,1,-4,1,283,1,-22,1,-39,1,-21,1
158,0,1,-4,1,-4,1,2,1,2,1,-4,1,12,1,-3,1,286,1,-21,1,-39,1,-21,1
159,0,1,-4,1,-4,1,2,1,2,1,-4,1,13,1,-2,1,290,1,-21,1,-38,1,-21,1
160,0,1,-5,1,-5,1,2,1,2,1,-5,1,14,1,0,1,295,1,-20,1,-37,1,-21,1
161,2,1,-4,1,-6,1,1,1,4,1,-5,1,15,1,0,1,301,1,-19,1,-36,1,-20,1
162,0,1,-4,1,-4,1,2,1,2,1,-4,1,14,1,2,1,306,1,-19,1,-36,1,-21,1
163,-2,1,-5,1,-3,1,3,1,0,1,-4,1,14,1,2,1,312,1,-19,1,-36,1,-21,1
164,-2,1,-5,1,-3,1,3,1,0,1,-4,1,14,1,2,1,316,1,-18,1,-35,1,-22,1
165,-2,1,-6,1,-4,1,4,1,1,1,-5,1,14,1,3,1,319,1,-17,1,-35,1,-21,1
166,-1,1,-2,1,-1,1,1,1,0,1,-2,1,14,1,3,1,322,1,-16,1,-35,1,-21,1
167,-1,1,-2,1,-1,1,1,1,0,1,-2,1,15,1,4,1,324,1,-16,1,-34,1,-20,1
168,-2,1,-1,1,1,1,1,1,-2,1,0,1,16,1,4,1,326,1,-16,1,-34,1,-20,1
169,0,1,-2,1,-2,1,1,1,1,1,-2,1,16,1,5,1,328,1,-16,1,-33,1,-19,1
170,1,1,-4,1,-5,1,1,1,3,1,-4,1,16,1,6,1,331,1,-14,1,-33,1,-18,1
171,0,1,-3,1,-3,1,1,1,1,1,-3,1,15,1,7,1,333,1,-14,1,-32,1,-17,1
172,3,1,0,1,-3,1,-1,1,3,1,-1,1,14,1,7,1,335,1,-13,1,-32,1,-17,1
173,3,1,0,1,-3,1,-1,1,3,1,-1,1,14,1,8,1,338,1,-12,1,-31,1,-15,1
174,2,1,0,1,-2,1,-1,1,2,1,-1,1,14,1,9,1,341,1,-10,1,-30,1,-15,1
175,2,1,-1,1,-3,1,0,1,2,1,-2,1,14,1,10,1,343,1,-10,1,-30,1,-14,1
176,2,1,-1,1,-3,1,0,1,2,1,-2,1,15,1,10,1,344,1,-10,1,-30,1,-15,1
177,1,1,-1,1,-2,1,0,1,1,1,-1,1,15,1,11,1,345,1,-10,1,-30,1,-15,1
178,0,1,-1,1,-1,1,0,1,0,1,-1,1,15,1,12,1,346,1,-10,1,-29,1,-15,1
179,2,1,0,1,-2,1,-1,1,2,1,-1,1,15,1,13,1,346,1,-10,1,-29,1,-15,1
180,1,1,-3,1,-4,1,1,1,2,1,-3,1,15,1,13,1,346,1,-9,1,-28,1,-15,1
181,-1,1,-5,1,-4,1,3,1,1,1,-5,1,15,1,13,1,346,1,-9,1,-28,1,-15,1
182,-2,1,-5,1,-3,1,3,1,0,1,-4,1,15,1,13,1,345,1,-8,1,-28,1,-14,1
183,-2,1,-4,1,-2,1,3,1,0,1,-3,1,16,1,14,1,347,1,-7,1,-27,1,-13,1
184,0,1,-5,1,-5,1,2,1,2,1,-5,1,17,1,15,1,347,1,-6,1,-27,1,-13,1
185,0,1,-5,1,-5,1,2,1,2,1,-5,1,16,1,13,1,346,1,-6,1,-28,1,-13,1
186,1,1,-2,1,-3,1,0,1,2,1,-2,1,15,1,13,1,347,1,-7,1,-28,1,-15,1
187,1,1,-1,1,-2,1,0,1,1,1,-1,1,15,1,13,1,347,1,-7,1,-28,1,-15,1
188,2,1,0,1,-2,1,-1,1,2,1,-1,1,16,1,14,1,347,1,-7,1,-27,1,-14,1
189,5,1,2,1,-3,1,-3,1,4,1,0,1,17,1,15,1,348,1,-5,1,-25,1,-13,1
190,4,1,1,1,-3,1,-2,1,4,1,-1,1,16,1,17,1,349,1,-4,1,-24,1,-12,1
191,2,1,0,1,-2,1,-1,1,2,1,-1,1,15,1,16,1,348,1,-3,1,-24,1,-13,1
192,1,1,-1,1,-2,1,0,1,1,1,-1,1,15,1,17,1,349,1,-1,1,-24,1,-11,1
193,1,1,-2,1,-3,1,0,1,2,1,-2,1,15,1,19,1,350,1,0,1,-23,1,-10,1
194,3,1,-1,1,-4,1,-1,1,3,1,-2,1,16,1,20,1,352,1,1,1,-23,1,-10,1
195,5,1,0,1,-5,1,-2,1,5,1,-2,1,16,1,21,1,352,1,1,1,-23,1,-10,1
196,5,1,-1,1,-6,1,-2,1,5,1,-3,1,16,1,21,1,353,1,1,1,-22,1,-10,1
197,5,1,-1,1,-6,1,-2,1,5,1,-3,1,15,1,22,1,353,1,2,1,-21,1,-9,1
198,5,1,0,1,-5,1,-2,1,5,1,-2,1,15,1,23,1,354,1,3,1,-19,1,-8,1
199,6,1,0,1,-6,1,-3,1,6,1,-3,1,15,1,23,1,353,1,3,1,-19,1,-8,1
200,7,1,0,1,-7,1,-3,1,7,1,-3,1,15,1,23,1,353,1,3,1,-19,1,-8,1
201,6,1,0,1,-6,1,-3,1,6,1,-3,1,15,1,24,1,352,1,4,1,-19,1,-8,1
202,6,1,1,1,-5,1,-3,1,6,1,-2,1,14,1,25,1,353,1,4,1,-19,1,-8,1
203,6,1,1,1,-5,1,-3,1,6,1,-2,1,13,1,25,1,353,1,4,1,-19,1,-9,1
204,6,1,0,1,-6,1,-3,1,6,1,-3,1,14,1,27,1,355,1,6,1,-16,1,-7,1
205,8,1,2,1,-6,1,-5,1,7,1,-2,1,15,1,30,1,357,1,9,1,-14,1,-6,1
206,9,1,4,1,-5,1,-6,1,7,1,0,1,14,1,31,1,358,1,11,1,-13,1,-6,1
207,7,1,2,1,-5,1,-4,1,6,1,-1,1,14,1,31,1,358,1,11,1,-12,1,-5,1
208,7,1,2,1,-5,1,-4,1,6,1,-1,1,14,1,32,1,358,1,12,1,-12,1,-4,1
209,7,1,2,1,-5,1,-4,1,6,1,-1,1,14,1,35,1,359,1,13,1,-11,1,-3,1
210,7,1,3,1,-4,1,-5,1,6,1,0,1,15,1,37,1,359,1,14,1,-10,1,-2,1
211,6,1,3,1,-3,1,-4,1,5,1,0,1,14,1,38,1,359,1,15,1,-9,1,0,1
212,9,1,3,1,-6,1,-6,1,8,1,-1,1,14,1,40,1,358,1,17,1,-8,1,0,1
213,11,1,4,1,-7,1,-7,1,9,1,-1,1,12,1,40,1,358,1,18,1,-8,1,0,1
214,12,1,5,1,-7,1,-8,1,10,1,-1,1,12,1,41,1,358,1,19,1,-6,1,0,1
215,12,1,5,1,-7,1,-8,1,10,1,-1,1,11,1,42,1,358,1,21,1,-5,1,2,1
216,14,1,9,1,-5,1,-11,1,10,1,2,1,12,1,43,1,360,1,25,1,-3,1,4,1
217,14,1,7,1,-7,1,-10,1,11,1,0,1,13,1,46,1,361,1,27,1,0,1,6,1
218,14,1,6,1,-8,1,-10,1,11,1,-1,1,13,1,48,1,362,1,29,1,1,1,7,1
219,14,1,5,1,-9,1,-9,1,12,1,-2,1,12,1,51,1,364,1,30,1,4,1,8,1
220,14,1,5,1,-9,1,-9,1,12,1,-2,1,11,1,53,1,364,1,31,1,5,1,9,1
221,17,1,6,1,-11,1,-11,1,14,1,-2,1,10,1,55,1,364,1,32,1,6,1,9,1
222,18,1,7,1,-11,1,-12,1,15,1,-2,1,10,1,57,1,365,1,34,1,7,1,10,1
223,18,1,6,1,-12,1,-12,1,15,1,-3,1,10,1,60,1,367,1,38,1,9,1,13,1
224,18,1,5,1,-13,1,-11,1,16,1,-4,1,10,1,62,1,369,1,40,1,10,1,14,1
225,19,1,4,1,-15,1,-11,1,17,1,-5,1,9,1,64,1,370,1,42,1,11,1,16,1
226,22,1,7,1,-15,1,-14,1,19,1,-4,1,9,1,68,1,372,1,46,1,14,1,19,1
227,23,1,9,1,-14,1,-16,1,19,1,-2,1,9,1,71,1,375,1,48,1,16,1,21,1
228,25,1,9,1,-16,1,-17,1,21,1,-3,1,9,1,73,1,376,1,50,1,18,1,22,1
229,26,1,8,1,-18,1,-17,1,22,1,-5,1,9,1,77,1,379,1,53,1,22,1,24,1
230,27,1,7,1,-20,1,-17,1,24,1,-6,1,10,1,81,1,382,1,57,1,26,1,26,1
231,29,1,9,1,-20,1,-19,1,25,1,-5,1,9,1,84,1,384,1,60,1,27,1,28,1
232,31,1,11,1,-20,1,-21,1,26,1,-4,1,9,1,86,1,385,1,63,1,28,1,28,1
233,30,1,9,1,-21,1,-19,1,26,1,-6,1,8,1,90,1,388,1,66,1,30,1,31,1
234,31,1,10,1,-21,1,-20,1,26,1,-5,1,8,1,92,1,390,1,69,1,33,1,33,1
235,34,1,10,1,-24,1,-22,1,29,1,-7,1,8,1,94,1,391,1,72,1,34,1,35,1
236,36,1,11,1,-25,1,-23,1,31,1,-7,1,8,1,97,1,393,1,74,1,37,1,38,1
237,36,1,12,1,-24,1,-24,1,30,1,-6,1,7,1,99,1,395,1,76,1,38,1,40,1
238,37,1,12,1,-25,1,-24,1,31,1,-6,1,6,1,101,1,397,1,78,1,41,1,42,1
239,40,1,14,1,-26,1,-27,1,33,1,-6,1,7,1,104,1,398,1,80,1,41,1,42,1
240,40,1,15,1,-25,1,-27,1,33,1,-5,1,7,1,106,1,400,1,83,1,44,1,43,1
241,38,1,15,1,-23,1,-26,1,31,1,-4,1,7,1,107,1,401,1,84,1,44,1,43,1
242,38,1,12,1,-26,1,-25,1,32,1,-7,1,6,1,109,1,401,1,86,1,45,1,43,1
243,40,1,13,1,-27,1,-26,1,34,1,-7,1,6,1,110,1,401,1,88,1,45,1,44,1
244,41,1,14,1,-27,1,-27,1,34,1,-6,1,6,1,112,1,401,1,89,1,46,1,45,1
245,41,1,15,1,-26,1,-28,1,34,1,-5,1,5,1,113,1,401,1,91,1,48,1,46,1
246,42,1,15,1,-27,1,-28,1,35,1,-6,1,6,1,115,1,401,1,93,1,49,1,47,1
247,43,1,16,1,-27,1,-29,1,35,1,-5,1,6,1,116,1,401,1,94,1,50,1,48,1
248,42,1,14,1,-28,1,-28,1,35,1,-7,1,5,1,117,1,401,1,94,1,50,1,47,1
249,42,1,14,1,-28,1,-28,1,35,1,-7,1,5,1,117,1,401,1,94,1,51,1,47,1
250,42,1,15,1,-27,1,-28,1,35,1,-6,1,5,1,118,1,401,1,95,1,52,1,47,1
251,45,1,16,1,-29,1,-30,1,37,1,-6,1,7,1,117,1,400,1,94,1,53,1,48,1
252,43,1,17,1,-26,1,-30,1,35,1,-4,1,7,1,117,1,399,1,94,1,53,1,48,1
253,42,1,16,1,-26,1,-29,1,34,1,-5,1,7,1,115,1,397,1,93,1,52,1,47,1
254,41,1,15,1,-26,1,-28,1,34,1,-5,1,7,1,114,1,395,1,93,1,51,1,47,1
255,39,1,15,1,-24,1,-27,1,32,1,-4,1,8,1,112,1,393,1,93,1,52,1,47,1
256,40,1,17,1,-23,1,-28,1,32,1,-3,1,9,1,110,1,390,1,92,1,50,1,47,1
257,40,1,17,1,-23,1,-28,1,32,1,-3,1,10,1,108,1,386,1,90,1,50,1,45,1
258,37,1,14,1,-23,1,-25,1,30,1,-4,1,9,1,105,1,382,1,87,1,48,1,42,1
259,33,1,13,1,-20,1,-23,1,27,1,-3,1,9,1,102,1,379,1,85,1,47,1,41,1
260,31,1,10,1,-21,1,-20,1,26,1,-5,1,9,1,98,1,375,1,82,1,45,1,38,1
261,28,1,10,1,-18,1,-19,1,23,1,-4,1,9,1,94,1,371,1,78,1,43,1,36,1
262,26,1,11,1,-15,1,-18,1,21,1,-2,1,9,1,89,1,367,1,75,1,42,1,34,1
263,27,1,13,1,-14,1,-20,1,21,1,0,1,9,1,85,1,363,1,73,1,40,1,34,1
264,26,1,15,1,-11,1,-20,1,19,1,2,1,10,1,82,1,357,1,71,1,39,1,33,1
265,23,1,14,1,-9,1,-18,1,16,1,3,1,9,1,76,1,352,1,67,1,36,1,30,1
266,21,1,13,1,-8,1,-17,1,15,1,3,1,9,1,71,1,346,1,62,1,32,1,26,1
267,18,1,11,1,-7,1,-14,1,13,1,2,1,10,1,67,1,342,1,58,1,30,1,23,1
268,16,1,10,1,-6,1,-13,1,11,1,2,1,11,1,62,1,336,1,53,1,27,1,21,1
269,15,1,13,1,-2,1,-14,1,9,1,6,1,11,1,57,1,329,1,49,1,24,1,17,1
270,14,1,15,1,1,1,-14,1,7,1,8,1,12,1,54,1,325,1,45,1,22,1,16,1
271,12,1,14,1,2,1,-13,1,5,1,8,1,12,1,50,1,319,1,42,1,19,1,14,1
272,8,1,11,1,3,1,-9,1,3,1,7,1,12,1,46,1,314,1,39,1,17,1,12,1
273,5,1,10,1,5,1,-7,1,0,1,8,1,13,1,43,1,309,1,36,1,16,1,11,1
274,4,1,9,1,5,1,-6,1,0,1,7,1,13,1,40,1,305,1,34,1,15,1,10,1
275,5,1,9,1,4,1,-7,1,1,1,7,1,13,1,36,1,301,1,31,1,12,1,8,1
276,3,1,7,1,4,1,-5,1,0,1,6,1,13,1,33,1,296,1,28,1,10,1,7,1
277,-1,1,6,1,7,1,-2,1,-4,1,6,1,13,1,30,1,292,1,25,1,7,1,5,1
278,-4,1,5,1,9,1,0,1,-6,1,7,1,14,1,28,1,289,1,23,1,7,1,4,1
279,-3,1,6,1,9,1,-1,1,-6,1,7,1,16,1,25,1,285,1,20,1,4,1,2,1
280,-4,1,4,1,8,1,0,1,-6,1,6,1,17,1,23,1,281,1,19,1,4,1,2,1
281,-6,1,3,1,9,1,1,1,-7,1,6,1,17,1,21,1,277,1,16,1,1,1,0,1
282,-6,1,4,1,10,1,1,1,-8,1,7,1,16,1,18,1,273,1,15,1,-1,1,-2,1
283,-6,1,4,1,10,1,1,1,-8,1,7,1,16,1,16,1,269,1,13,1,-3,1,-4,1
284,-6,1,6,1,12,1,0,1,-9,1,9,1,17,1,15,1,267,1,14,1,-3,1,-4,1
285,-7,1,5,1,12,1,1,1,-9,1,8,1,17,1,14,1,265,1,12,1,-3,1,-4,1
286,-7,1,4,1,11,1,1,1,-9,1,7,1,16,1,11,1,261,1,10,1,-5,1,-6,1
287,-7,1,3,1,10,1,2,1,-8,1,6,1,16,1,11,1,259,1,8,1,-6,1,-7,1
288,-9,1,3,1,12,1,3,1,-10,1,7,1,15,1,11,1,257,1,7,1,-6,1,-6,1
289,-11,1,2,1,13,1,4,1,-12,1,7,1,15,1,9,1,254,1,6,1,-7,1,-6,1
290,-10,1,2,1,12,1,4,1,-11,1,7,1,16,1,9,1,251,1,6,1,-8,1,-7,1
291,-11,1,0,1,11,1,5,1,-11,1,5,1,17,1,8,1,248,1,5,1,-9,1,-7,1
292,-13,1,1,1,14,1,6,1,-13,1,7,1,17,1,7,1,245,1,4,1,-10,1,-8,1
293,-13,1,0,1,13,1,6,1,-13,1,6,1,17,1,7,1,243,1,3,1,-11,1,-9,1
294,-13,1,0,1,13,1,6,1,-13,1,6,1,18,1,6,1,241,1,3,1,-11,1,-9,1
295,-13,1,-1,1,12,1,7,1,-13,1,5,1,19,1,6,1,241,1,4,1,-10,1,-8,1
296,-14,1,0,1,14,1,7,1,-14,1,7,1,18,1,5,1,239,1,3,1,-10,1,-8,1
297,-14,1,1,1,15,1,6,1,-14,1,8,1,17,1,6,1,236,1,3,1,-10,1,-9,1
298,-14,1,0,1,14,1,7,1,-14,1,7,1,16,1,5,1,234,1,2,1,-11,1,-9,1
299,-12,1,1,1,13,1,5,1,-12,1,7,1,16,1,5,1,232,1,2,1,-11,1,-10,1
300,-11,1,2,1,13,1,4,1,-12,1,7,1,16,1,5,1,229,1,1,1,-12,1,-10,1
301,-13,1,0,1,13,1,6,1,-13,1,6,1,17,1,4,1,227,1,1,1,-12,1,-10,1
302,-14,1,-1,1,13,1,7,1,-14,1,6,1,17,1,4,1,224,1,1,1,-13,1,-11,1
303,-15,1,0,1,15,1,7,1,-15,1,7,1,17,1,4,1,223,1,1,1,-13,1,-11,1
304,-16,1,0,1,16,1,8,1,-16,1,8,1,17,1,4,1,222,1,0,1,-13,1,-11,1
305,-15,1,1,1,16,1,7,1,-15,1,8,1,17,1,3,1,220,1,0,1,-13,1,-12,1
306,-14,1,2,1,16,1,6,1,-15,1,9,1,17,1,3,1,219,1,0,1,-15,1,-12,1
307,-12,1,1,1,13,1,5,1,-12,1,7,1,17,1,3,1,217,1,0,1,-13,1,-12,1
308,-11,1,3,1,14,1,4,1,-12,1,8,1,15,1,2,1,215,1,-1,1,-15,1,-14,1
309,-14,1,0,1,14,1,7,1,-14,1,7,1,15,1,3,1,213,1,0,1,-15,1,-15,1
310,-15,1,-2,1,13,1,8,1,-14,1,5,1,15,1,3,1,212,1,0,1,-15,1,-15,1
311,-15,1,-3,1,12,1,9,1,-14,1,4,1,15,1,3,1,210,1,0,1,-15,1,-14,1
312,-15,1,-2,1,13,1,8,1,-14,1,5,1,16,1,3,1,209,1,-1,1,-16,1,-14,1
313,-16,1,-1,1,15,1,8,1,-16,1,7,1,16,1,3,1,207,1,-2,1,-17,1,-15,1
314,-17,1,0,1,17,1,8,1,-17,1,8,1,15,1,3,1,205,1,-2,1,-18,1,-15,1
315,-17,1,1,1,18,1,8,1,-17,1,9,1,15,1,2,1,202,1,-3,1,-18,1,-15,1
316,-15,1,3,1,18,1,6,1,-16,1,10,1,15,1,2,1,199,1,-4,1,-19,1,-15,1
317,-15,1,1,1,16,1,7,1,-15,1,8,1,17,1,3,1,199,1,-2,1,-18,1,-14,1
318,-15,1,0,1,15,1,7,1,-15,1,7,1,18,1,4,1,198,1,-2,1,-18,1,-14,1
319,-13,1,2,1,15,1,5,1,-14,1,8,1,18,1,4,1,197,1,-2,1,-18,1,-14,1
320,-14,1,3,1,17,1,5,1,-15,1,10,1,17,1,3,1,195,1,-3,1,-18,1,-13,1
321,-18,1,0,1,18,1,9,1,-18,1,9,1,15,1,3,1,192,1,-4,1,-19,1,-13,1
322,-20,1,0,1,20,1,10,1,-20,1,10,1,14,1,2,1,190,1,-4,1,-21,1,-14,1
323,-18,1,2,1,20,1,8,1,-19,1,11,1,16,1,2,1,191,1,-2,1,-19,1,-13,1
324,-19,1,1,1,20,1,9,1,-19,1,10,1,17,1,2,1,189,1,-1,1,-19,1,-13,1
325,-19,1,1,1,20,1,9,1,-19,1,10,1,17,1,2,1,187,1,0,1,-19,1,-14,1
326,-19,1,-1,1,18,1,10,1,-19,1,8,1,18,1,3,1,186,1,0,1,-18,1,-14,1
327,-17,1,0,1,17,1,8,1,-17,1,8,1,17,1,3,1,184,1,0,1,-17,1,-14,1
328,-16,1,2,1,18,1,7,1,-17,1,10,1,15,1,2,1,181,1,-2,1,-20,1,-15,1
329,-17,1,0,1,17,1,8,1,-17,1,8,1,15,1,3,1,181,1,-3,1,-19,1,-14,1
330,-18,1,0,1,18,1,9,1,-18,1,9,1,15,1,4,1,180,1,-3,1,-20,1,-14,1
331,-17,1,0,1,17,1,8,1,-17,1,8,1,15,1,4,1,179,1,-3,1,-19,1,-14,1
332,-18,1,0,1,18,1,9,1,-18,1,9,1,15,1,4,1,178,1,-3,1,-19,1,-14,1
333,-19,1,0,1,19,1,9,1,-19,1,9,1,15,1,3,1,177,1,-3,1,-19,1,-14,1
334,-20,1,1,1,21,1,9,1,-20,1,11,1,15,1,3,1,176,1,-3,1,-20,1,-14,1
335,-19,1,2,1,21,1,8,1,-20,1,11,1,15,1,3,1,175,1,-3,1,-19,1,-14,1
336,-18,1,2,1,20,1,8,1,-19,1,11,1,15,1,2,1,173,1,-3,1,-20,1,-14,1
337,-20,1,0,1,20,1,10,1,-20,1,10,1,15,1,2,1,172,1,-3,1,-19,1,-14,1
338,-22,1,0,1,22,1,11,1,-22,1,11,1,15,1,3,1,171,1,-3,1,-19,1,-14,1
339,-20,1,1,1,21,1,9,1,-20,1,11,1,15,1,3,1,170,1,-3,1,-19,1,-14,1
340,-19,1,1,1,20,1,9,1,-19,1,10,1,14,1,3,1,168,1,-3,1,-19,1,-13,1
341,-20,1,0,1,20,1,10,1,-20,1,10,1,13,1,2,1,167,1,-2,1,-19,1,-13,1
342,-21,1,0,1,21,1,10,1,-21,1,10,1,13,1,2,1,165,1,-2,1,-20,1,-14,1
343,-20,1,0,1,20,1,10,1,-20,1,10,1,13,1,3,1,164,1,-2,1,-20,1,-13,1
344,-17,1,0,1,17,1,8,1,-17,1,8,1,14,1,3,1,162,1,-2,1,-21,1,-12,1
345,-17,1,0,1,17,1,8,1,-17,1,8,1,14,1,4,1,160,1,-1,1,-20,1,-11,1
346,-18,1,1,1,19,1,8,1,-18,1,10,1,14,1,5,1,159,1,0,1,-20,1,-10,1
347,-18,1,2,1,20,1,8,1,-19,1,11,1,13,1,5,1,157,1,-1,1,-20,1,-10,1
348,-18,1,1,1,19,1,8,1,-18,1,10,1,12,1,5,1,156,1,0,1,-20,1,-10,1
349,-20,1,2,1,22,1,9,1,-21,1,12,1,13,1,5,1,154,1,0,1,-18,1,-9,1
350,-21,1,0,1,21,1,10,1,-21,1,10,1,13,1,5,1,154,1,2,1,-17,1,-8,1
351,-21,1,2,1,23,1,9,1,-22,1,12,1,12,1,5,1,153,1,1,1,-18,1,-9,1
352,-19,1,2,1,21,1,8,1,-20,1,11,1,11,1,4,1,151,1,0,1,-19,1,-10,1
353,-18,1,1,1,19,1,8,1,-18,1,10,1,11,1,4,1,150,1,0,1,-19,1,-9,1
354,-17,1,0,1,17,1,8,1,-17,1,8,1,12,1,5,1,150,1,1,1,-19,1,-9,1
355,-17,1,0,1,17,1,8,1,-17,1,8,1,11,1,3,1,148,1,0,1,-20,1,-10,1
356,-19,1,1,1,20,1,9,1,-19,1,10,1,10,1,1,1,145,1,-2,1,-21,1,-12,1
357,-21,1,1,1,22,1,10,1,-21,1,11,1,9,1,1,1,143,1,-1,1,-20,1,-12,1
358,-22,1,1,1,23,1,10,1,-22,1,12,1,9,1,1,1,142,1,-1,1,-19,1,-10,1
359,-21,1,2,1,23,1,9,1,-22,1,12,1,10,1,1,1,141,1,-1,1,-18,1,-9,1
360,-20,1,1,1,21,1,9,1,-20,1,11,1,10,1,1,1,140,1,0,1,-18,1,-9,1
361,-20,1,0,1,20,1,10,1,-20,1,10,1,9,1,2,1,139,1,0,1,-18,1,-9,1
362,-20,1,-1,1,19,1,10,1,-20,1,9,1,9,1,2,1,139,1,0,1,-18,1,-9,1
363,-17,1,0,1,17,1,8,1,-17,1,8,1,10,1,3,1,139,1,0,1,-17,1,-8,1
364,-18,1,-2,1,16,1,10,1,-17,1,7,1,11,1,3,1,138,1,0,1,-17,1,-8,1
365,-20,1,-3,1,17,1,11,1,-19,1,7,1,10,1,2,1,136,1,-1,1,-19,1,-9,1
366,-20,1,-2,1,18,1,11,1,-19,1,8,1,10,1,3,1,134,1,-1,1,-18,1,-9,1
367,-21,1,-3,1,18,1,12,1,-20,1,7,1,10,1,2,1,131,1,-2,1,-19,1,-9,1
368,-19,1,-1,1,18,1,10,1,-19,1,8,1,10,1,2,1,128,1,-3,1,-20,1,-9,1
369,-19,1,-1,1,18,1,10,1,-19,1,8,1,11,1,2,1,127,1,-2,1,-19,1,-8,1
370,-23,1,-3,1,20,1,13,1,-22,1,8,1,10,1,1,1,125,1,-3,1,-19,1,-8,1
371,-23,1,-2,1,21,1,12,1,-22,1,9,1,8,1,-1,1,123,1,-4,1,-22,1,-10,1
372,-21,1,-2,1,19,1,11,1,-20,1,8,1,7,1,-2,1,120,1,-5,1,-22,1,-10,1
373,-21,1,-2,1,19,1,11,1,-20,1,8,1,7,1,-3,1,120,1,-5,1,-23,1,-9,1
374,-23,1,-3,1,20,1,13,1,-22,1,8,1,8,1,-3,1,119,1,-5,1,-22,1,-9,1
375,-24,1,-5,1,19,1,14,1,-22,1,7,1,8,1,-3,1,117,1,-5,1,-21,1,-8,1
376,-24,1,-5,1,19,1,14,1,-22,1,7,1,7,1,-4,1,116,1,-6,1,-23,1,-8,1
377,-25,1,-5,1,20,1,15,1,-23,1,7,1,7,1,-4,1,113,1,-6,1,-23,1,-7,1
378,-25,1,-5,1,20,1,15,1,-23,1,7,1,8,1,-3,1,112,1,-6,1,-24,1,-7,1
379,-26,1,-6,1,20,1,16,1,-23,1,7,1,8,1,-3,1,110,1,-6,1,-24,1,-8,1
380,-24,1,-6,1,18,1,15,1,-21,1,6,1,8,1,-2,1,108,1,-6,1,-25,1,-8,1
381,-22,1,-6,1,16,1,14,1,-19,1,5,1,8,1,-1,1,108,1,-5,1,-25,1,-7,1
382,-21,1,-7,1,14,1,14,1,-18,1,3,1,9,1,-1,1,107,1,-5,1,-24,1,-7,1
383,-23,1,-8,1,15,1,15,1,-19,1,3,1,8,1,-2,1,106,1,-6,1,-24,1,-7,1
384,-21,1,-7,1,14,1,14,1,-18,1,3,1,8,1,-3,1,103,1,-7,1,-25,1,-7,1
385,-22,1,-8,1,14,1,15,1,-18,1,3,1,7,1,-3,1,101,1,-7,1,-25,1,-8,1
386,-24,1,-7,1,17,1,15,1,-21,1,5,1,7,1,-4,1,100,1,-7,1,-26,1,-8,1
387,-24,1,-6,1,18,1,15,1,-21,1,6,1,7,1,-3,1,98,1,-7,1,-25,1,-6,1
388,-27,1,-7,1,20,1,17,1,-24,1,6,1,6,1,-4,1,97,1,-8,1,-27,1,-7,1
389,-25,1,-5,1,20,1,15,1,-23,1,7,1,5,1,-6,1,94,1,-10,1,-28,1,-9,1
390,-23,1,-3,1,20,1,13,1,-22,1,8,1,5,1,-6,1,93,1,-11,1,-29,1,-9,1
391,-23,1,-5,1,18,1,14,1,-21,1,6,1,6,1,-6,1,92,1,-11,1,-29,1,-9,1
392,-24,1,-8,1,16,1,16,1,-20,1,4,1,7,1,-6,1,91,1,-10,1,-29,1,-9,1
393,-24,1,-11,1,13,1,17,1,-19,1,1,1,8,1,-5,1,90,1,-10,1,-28,1,-9,1
394,-25,1,-11,1,14,1,18,1,-20,1,1,1,7,1,-6,1,88,1,-10,1,-29,1,-9,1
395,-25,1,-10,1,15,1,17,1,-20,1,2,1,6,1,-6,1,86,1,-11,1,-29,1,-10,1
396,-25,1,-10,1,15,1,17,1,-20,1,2,1,6,1,-6,1,84,1,-11,1,-29,1,-10,1
397,-26,1,-9,1,17,1,17,1,-22,1,4,1,5,1,-7,1,83,1,-11,1,-29,1,-10,1
398,-26,1,-7,1,19,1,16,1,-23,1,6,1,5,1,-6,1,82,1,-12,1,-28,1,-9,1
399,-27,1,-8,1,19,1,17,1,-23,1,5,1,5,1,-6,1,81,1,-12,1,-28,1,-9,1
400,-27,1,-10,1,17,1,18,1,-22,1,3,1,5,1,-5,1,80,1,-12,1,-28,1,-9,1
401,-27,1,-8,1,19,1,17,1,-23,1,5,1,6,1,-6,1,79,1,-12,1,-28,1,-9,1
402,-28,1,-7,1,21,1,17,1,-25,1,7,1,5,1,-7,1,77,1,-13,1,-29,1,-8,1
403,-28,1,-7,1,21,1,17,1,-25,1,7,1,5,1,-8,1,74,1,-14,1,-31,1,-9,1
404,-28,1,-9,1,19,1,18,1,-24,1,5,1,6,1,-8,1,73,1,-13,1,-31,1,-9,1
405,-29,1,-11,1,18,1,20,1,-24,1,3,1,7,1,-7,1,72,1,-12,1,-31,1,-9,1
406,-26,1,-10,1,16,1,18,1,-21,1,3,1,7,1,-5,1,72,1,-11,1,-29,1,-7,1
407,-25,1,-9,1,16,1,17,1,-21,1,3,1,7,1,-5,1,72,1,-11,1,-29,1,-7,1
408,-30,1,-13,1,17,1,21,1,-24,1,2,1,6,1,-7,1,71,1,-13,1,-29,1,-7,1
409,-31,1,-14,1,17,1,22,1,-24,1,1,1,6,1,-7,1,70,1,-13,1,-30,1,-7,1
410,-28,1,-12,1,16,1,20,1,-22,1,2,1,6,1,-9,1,68,1,-14,1,-31,1,-9,1
411,-28,1,-11,1,17,1,19,1,-23,1,3,1,6,1,-10,1,67,1,-14,1,-32,1,-9,1
412,-31,1,-11,1,20,1,21,1,-26,1,4,1,5,1,-11,1,65,1,-14,1,-32,1,-10,1
413,-30,1,-9,1,21,1,19,1,-26,1,6,1,5,1,-10,1,64,1,-13,1,-30,1,-10,1
414,-28,1,-8,1,20,1,18,1,-24,1,6,1,7,1,-9,1,63,1,-13,1,-29,1,-10,1
415,-28,1,-10,1,18,1,19,1,-23,1,4,1,6,1,-8,1,62,1,-13,1,-29,1,-10,1
416,-29,1,-11,1,18,1,20,1,-24,1,3,1,5,1,-8,1,61,1,-14,1,-29,1,-10,1
417,-31,1,-14,1,17,1,22,1,-24,1,1,1,4,1,-8,1,60,1,-15,1,-30,1,-11,1
418,-32,1,-15,1,17,1,23,1,-25,1,1,1,4,1,-9,1,59,1,-16,1,-32,1,-12,1
419,-32,1,-14,1,18,1,23,1,-25,1,2,1,4,1,-8,1,58,1,-17,1,-32,1,-12,1
420,-32,1,-13,1,19,1,22,1,-26,1,3,1,5,1,-9,1,57,1,-17,1,-32,1,-12,1
421,-31,1,-13,1,18,1,22,1,-25,1,2,1,5,1,-10,1,56,1,-17,1,-31,1,-12,1
422,-29,1,-11,1,18,1,20,1,-24,1,3,1,5,1,-10,1,56,1,-17,1,-30,1,-12,1
423,-30,1,-10,1,20,1,20,1,-25,1,5,1,4,1,-11,1,54,1,-17,1,-28,1,-12,1
424,-32,1,-14,1,18,1,23,1,-25,1,2,1,5,1,-11,1,52,1,-17,1,-28,1,-12,1
425,-33,1,-12,1,21,1,22,1,-27,1,4,1,4,1,-11,1,50,1,-18,1,-27,1,-12,1
426,-30,1,-8,1,22,1,19,1,-26,1,7,1,5,1,-10,1,49,1,-18,1,-27,1,-12,1
427,-30,1,-8,1,22,1,19,1,-26,1,7,1,5,1,-10,1,48,1,-18,1,-26,1,-11,1
428,-29,1,-10,1,19,1,19,1,-24,1,4,1,4,1,-9,1,46,1,-17,1,-27,1,-10,1
429,-30,1,-13,1,17,1,21,1,-24,1,2,1,4,1,-9,1,45,1,-18,1,-28,1,-10,1
430,-32,1,-14,1,18,1,23,1,-25,1,2,1,4,1,-9,1,44,1,-17,1,-28,1,-9,1
431,-33,1,-16,1,17,1,24,1,-25,1,0,1,4,1,-10,1,44,1,-16,1,-28,1,-8,1
432,-32,1,-15,1,17,1,23,1,-25,1,1,1,4,1,-9,1,44,1,-15,1,-27,1,-8,1
433,-30,1,-15,1,15,1,22,1,-23,1,0,1,5,1,-10,1,44,1,-15,1,-27,1,-8,1
434,-30,1,-15,1,15,1,22,1,-23,1,0,1,6,1,-10,1,43,1,-16,1,-27,1,-9,1
435,-30,1,-13,1,17,1,21,1,-24,1,2,1,6,1,-10,1,42,1,-17,1,-26,1,-9,1
436,-30,1,-12,1,18,1,21,1,-24,1,3,1,6,1,-10,1,41,1,-17,1,-25,1,-9,1
437,-29,1,-10,1,19,1,19,1,-24,1,4,1,6,1,-9,1,40,1,-17,1,-25,1,-8,1
438,-31,1,-11,1,20,1,21,1,-26,1,4,1,7,1,-9,1,39,1,-17,1,-24,1,-7,1
439,-33,1,-13,1,20,1,23,1,-27,1,3,1,7,1,-9,1,37,1,-18,1,-24,1,-7,1
440,-33,1,-13,1,20,1,23,1,-27,1,3,1,6,1,-10,1,37,1,-18,1,-25,1,-7,1
441,-34,1,-13,1,21,1,23,1,-28,1,4,1,6,1,-10,1,35,1,-18,1,-24,1,-7,1
442,-34,1,-14,1,20,1,24,1,-27,1,3,1,6,1,-11,1,35,1,-18,1,-24,1,-8,1
443,-32,1,-13,1,19,1,22,1,-26,1,3,1,6,1,-11,1,33,1,-18,1,-24,1,-9,1
444,-32,1,-13,1,19,1,22,1,-26,1,3,1,7,1,-12,1,33,1,-18,1,-24,1,-8,1
445,-34,1,-13,1,21,1,23,1,-28,1,4,1,7,1,-12,1,33,1,-17,1,-23,1,-8,1
446,-34,1,-12,1,22,1,23,1,-28,1,5,1,5,1,-12,1,31,1,-18,1,-25,1,-9,1
447,-32,1,-11,1,21,1,21,1,-27,1,5,1,4,1,-12,1,30,1,-19,1,-24,1,-10,1
448,-32,1,-12,1,20,1,22,1,-26,1,4,1,4,1,-11,1,29,1,-19,1,-25,1,-10,1
449,-34,1,-14,1,20,1,24,1,-27,1,3,1,4,1,-10,1,28,1,-19,1,-24,1,-9,1
450,-34,1,-14,1,20,1,24,1,-27,1,3,1,4,1,-10,1,27,1,-19,1,-23,1,-8,1
451,-33,1,-13,1,20,1,23,1,-27,1,3,1,3,1,-11,1,26,1,-19,1,-23,1,-8,1
452,-31,1,-12,1,19,1,21,1,-25,1,3,1,2,1,-12,1,23,1,-20,1,-23,1,-9,1
453,-31,1,-14,1,17,1,22,1,-24,1,1,1,3,1,-12,1,24,1,-20,1,-23,1,-9,1
454,-33,1,-15,1,18,1,24,1,-26,1,1,1,4,1,-12,1,23,1,-20,1,-22,1,-9,1
455,-33,1,-13,1,20,1,23,1,-27,1,3,1,5,1,-11,1,22,1,-20,1,-23,1,-10,1
456,-31,1,-11,1,20,1,21,1,-26,1,4,1,5,1,-10,1,22,1,-20,1,-22,1,-9,1
457,-33,1,-12,1,21,1,22,1,-27,1,4,1,5,1,-10,1,21,1,-19,1,-22,1,-8,1
458,-34,1,-14,1,20,1,24,1,-27,1,3,1,5,1,-9,1,19,1,-19,1,-21,1,-7,1
459,-34,1,-14,1,20,1,24,1,-27,1,3,1,6,1,-9,1,19,1,-18,1,-21,1,-5,1
460,-34,1,-14,1,20,1,24,1,-27,1,3,1,5,1,-10,1,18,1,-18,1,-22,1,-5,1
461,-32,1,-14,1,18,1,23,1,-25,1,2,1,5,1,-11,1,17,1,-18,1,-22,1,-6,1
462,-32,1,-14,1,18,1,23,1,-25,1,2,1,6,1,-11,1,17,1,-16,1,-21,1,-5,1
463,-32,1,-15,1,17,1,23,1,-25,1,1,1,6,1,-11,1,16,1,-16,1,-21,1,-5,1
464,-32,1,-17,1,15,1,24,1,-24,1,-1,1,6,1,-12,1,15,1,-18,1,-21,1,-6,1
465,-33,1,-17,1,16,1,25,1,-25,1,-1,1,5,1,-11,1,12,1,-19,1,-20,1,-6,1
466,-31,1,-15,1,16,1,23,1,-24,1,0,1,4,1,-11,1,11,1,-19,1,-20,1,-6,1
467,-31,1,-14,1,17,1,22,1,-24,1,1,1,4,1,-10,1,10,1,-19,1,-20,1,-6,1
468,-33,1,-13,1,20,1,23,1,-27,1,3,1,4,1,-10,1,10,1,-19,1,-20,1,-6,1
469,-35,1,-14,1,21,1,24,1,-28,1,3,1,4,1,-10,1,9,1,-18,1,-20,1,-5,1
470,-34,1,-16,1,18,1,25,1,-26,1,1,1,5,1,-10,1,9,1,-18,1,-20,1,-4,1
471,-34,1,-16,1,18,1,25,1,-26,1,1,1,5,1,-10,1,8,1,-18,1,-19,1,-5,1
472,-32,1,-14,1,18,1,23,1,-25,1,2,1,5,1,-11,1,7,1,-18,1,-18,1,-4,1
473,-27,1,-9,1,18,1,18,1,-23,1,4,1,7,1,-11,1,7,1,-17,1,-17,1,-5,1
474,-30,1,-12,1,18,1,21,1,-24,1,3,1,5,1,-12,1,6,1,-18,1,-17,1,-5,1
475,-31,1,-13,1,18,1,22,1,-25,1,2,1,3,1,-13,1,4,1,-20,1,-18,1,-7,1
476,-32,1,-15,1,17,1,23,1,-25,1,1,1,4,1,-12,1,4,1,-20,1,-16,1,-7,1
477,-33,1,-14,1,19,1,23,1,-26,1,2,1,5,1,-12,1,3,1,-19,1,-15,1,-5,1
478,-34,1,-14,1,20,1,24,1,-27,1,3,1,6,1,-11,1,2,1,-19,1,-14,1,-5,1
479,-36,1,-15,1,21,1,25,1,-29,1,3,1,6,1,-10,1,2,1,-19,1,-14,1,-5,1
480,-34,1,-15,1,19,1,24,1,-27,1,2,1,6,1,-10,1,2,1,-18,1,-13,1,-4,1
481,-32,1,-14,1,18,1,23,1,-25,1,2,1,5,1,-9,1,0,1,-18,1,-14,1,-5,1
482,-31,1,-14,1,17,1,22,1,-24,1,1,1,4,1,-10,1,0,1,-18,1,-14,1,-6,1
483,-31,1,-14,1,17,1,22,1,-24,1,1,1,5,1,-9,1,-1,1,-17,1,-14,1,-7,1
484,-31,1,-14,1,17,1,22,1,-24,1,1,1,4,1,-11,1,-2,1,-18,1,-16,1,-9,1
485,-30,1,-15,1,15,1,22,1,-23,1,0,1,4,1,-10,1,-2,1,-18,1,-15,1,-8,1
486,-30,1,-16,1,14,1,23,1,-22,1,-1,1,5,1,-10,1,-2,1,-17,1,-14,1,-8,1
487,-31,1,-16,1,15,1,23,1,-23,1,-1,1,5,1,-10,1,-4,1,-17,1,-13,1,-8,1
488,-32,1,-17,1,15,1,24,1,-24,1,-1,1,5,1,-12,1,-6,1,-19,1,-14,1,-8,1
489,-31,1,-13,1,18,1,22,1,-25,1,2,1,5,1,-11,1,-5,1,-20,1,-13,1,-8,1
490,-30,1,-11,1,19,1,20,1,-25,1,4,1,4,1,-11,1,-6,1,-20,1,-13,1,-7,1
491,-32,1,-13,1,19,1,22,1,-26,1,3,1,4,1,-10,1,-7,1,-20,1,-13,1,-8,1
492,-33,1,-12,1,21,1,22,1,-27,1,4,1,5,1,-10,1,-7,1,-19,1,-13,1,-7,1
493,-33,1,-12,1,21,1,22,1,-27,1,4,1,6,1,-9,1,-8,1,-18,1,-13,1,-8,1
494,-31,1,-10,1,21,1,20,1,-26,1,5,1,5,1,-9,1,-8,1,-17,1,-12,1,-8,1
495,-31,1,-10,1,21,1,20,1,-26,1,5,1,6,1,-9,1,-8,1,-16,1,-11,1,-7,1
496,-31,1,-12,1,19,1,21,1,-25,1,3,1,7,1,-9,1,-8,1,-16,1,-11,1,-7,1
497,-30,1,-11,1,19,1,20,1,-25,1,4,1,6,1,-9,1,-9,1,-17,1,-12,1,-8,1
498,-29,1,-9,1,20,1,19,1,-25,1,5,1,7,1,-8,1,-10,1,-17,1,-11,1,-7,1
499,-30,1,-9,1,21,1,19,1,-26,1,6,1,7,1,-8,1,-9,1,-16,1,-10,1,-5,1
500,-31,1,-8,1,23,1,19,1,-27,1,7,1,8,1,-8,1,-10,1,-16,1,-9,1,-5,1
501,-30,1,-7,1,23,1,18,1,-27,1,8,1,9,1,-7,1,-10,1,-15,1,-9,1,-5,1
502,-29,1,-5,1,24,1,17,1,-27,1,9,1,10,1,-6,1,-11,1,-15,1,-8,1,-5,1
503,-27,1,-5,1,22,1,16,1,-25,1,8,1,11,1,-4,1,-10,1,-13,1,-6,1,-3,1
504,-24,1,-3,1,21,1,13,1,-23,1,9,1,11,1,-4,1,-11,1,-13,1,-5,1,-3,1
505,-23,1,-2,1,21,1,12,1,-22,1,9,1,10,1,-4,1,-12,1,-13,1,-4,1,-3,1
506,-24,1,-2,1,22,1,13,1,-23,1,10,1,10,1,-3,1,-11,1,-12,1,-4,1,-2,1
507,-24,1,-2,1,22,1,13,1,-23,1,10,1,11,1,-2,1,-11,1,-11,1,-3,1,-1,1
508,-23,1,-1,1,22,1,12,1,-23,1,10,1,11,1,-1,1,-11,1,-11,1,-3,1,0,1
509,-24,1,-2,1,22,1,13,1,-23,1,10,1,12,1,0,1,-10,1,-10,1,-2,1,0,1
510,-22,1,-1,1,21,1,11,1,-22,1,10,1,13,1,1,1,-10,1,-8,1,-1,1,1,1
511,-20,1,0,1,20,1,10,1,-20,1,10,1,14,1,2,1,-10,1,-7,1,-1,1,2,1
512,-20,1,0,1,20,1,10,1,-20,1,10,1,15,1,3,1,-9,1,-7,1,0,1,3,1
513,-20,1,-1,1,19,1,10,1,-20,1,9,1,16,1,4,1,-10,1,-7,1,0,1,3,1
514,-20,1,0,1,20,1,10,1,-20,1,10,1,15,1,4,1,-11,1,-8,1,0,1,3,1
515,-20,1,0,1,20,1,10,1,-20,1,10,1,15,1,5,1,-10,1,-6,1,1,1,4,1
516,-16,1,2,1,18,1,7,1,-17,1,10,1,16,1,7,1,-8,1,-4,1,3,1,6,1
517,-17,1,1,1,18,1,8,1,-17,1,9,1,14,1,9,1,-8,1,-4,1,4,1,6,1
518,-17,1,1,1,18,1,8,1,-17,1,9,1,14,1,10,1,-7,1,-3,1,5,1,7,1
519,-17,1,0,1,17,1,8,1,-17,1,8,1,14,1,12,1,-6,1,0,1,7,1,9,1
520,-17,1,0,1,17,1,8,1,-17,1,8,1,12,1,13,1,-5,1,0,1,7,1,9,1
521,-17,1,0,1,17,1,8,1,-17,1,8,1,11,1,12,1,-6,1,1,1,8,1,9,1
522,-15,1,0,1,15,1,7,1,-15,1,7,1,10,1,12,1,-7,1,1,1,7,1,9,1
523,-15,1,-1,1,14,1,8,1,-15,1,6,1,9,1,11,1,-8,1,2,1,8,1,9,1
524,-15,1,-3,1,12,1,9,1,-14,1,4,1,7,1,8,1,-10,1,0,1,6,1,8,1
525,-14,1,-2,1,12,1,8,1,-13,1,5,1,5,1,5,1,-14,1,-3,1,4,1,7,1
526,-14,1,-3,1,11,1,8,1,-13,1,4,1,3,1,2,1,-17,1,-5,1,2,1,5,1
527,-14,1,-3,1,11,1,8,1,-13,1,4,1,1,1,0,1,-19,1,-7,1,1,1,3,1
528,-16,1,-3,1,13,1,9,1,-15,1,5,1,0,1,-1,1,-21,1,-9,1,0,1,2,1
529,-18,1,-2,1,16,1,10,1,-17,1,7,1,0,1,-1,1,-21,1,-9,1,0,1,2,1
530,-16,1,-2,1,14,1,9,1,-15,1,6,1,0,1,-4,1,-23,1,-11,1,-1,1,0,1
531,-15,1,-3,1,12,1,9,1,-14,1,4,1,0,1,-5,1,-23,1,-11,1,-2,1,-1,1
532,-14,1,-4,1,10,1,9,1,-12,1,3,1,1,1,-6,1,-24,1,-11,1,-2,1,-1,1
533,-14,1,-6,1,8,1,10,1,-11,1,1,1,2,1,-7,1,-26,1,-12,1,-3,1,-2,1
534,-13,1,-8,1,5,1,10,1,-9,1,-2,1,3,1,-7,1,-27,1,-13,1,-3,1,-2,1
535,-15,1,-9,1,6,1,12,1,-11,1,-2,1,3,1,-8,1,-29,1,-14,1,-3,1,-2,1
536,-15,1,-8,1,7,1,11,1,-11,1,-1,1,2,1,-8,1,-30,1,-16,1,-4,1,-3,1
537,-16,1,-9,1,7,1,12,1,-12,1,-1,1,1,1,-8,1,-30,1,-17,1,-4,1,-4,1
538,-18,1,-8,1,10,1,13,1,-14,1,1,1,-1,1,-10,1,-31,1,-19,1,-5,1,-6,1
539,-18,1,-9,1,9,1,13,1,-14,1,0,1,-2,1,-10,1,-32,1,-19,1,-6,1,-7,1
540,-17,1,-11,1,6,1,14,1,-12,1,-3,1,-1,1,-10,1,-31,1,-18,1,-5,1,-7,1
541,-18,1,-13,1,5,1,15,1,-12,1,-4,1,-1,1,-11,1,-32,1,-18,1,-5,1,-7,1
542,-18,1,-11,1,7,1,14,1,-13,1,-2,1,-1,1,-12,1,-33,1,-19,1,-6,1,-7,1
543,-20,1,-12,1,8,1,16,1,-14,1,-2,1,0,1,-12,1,-34,1,-19,1,-7,1,-8,1
544,-22,1,-13,1,9,1,17,1,-16,1,-2,1,0,1,-12,1,-35,1,-20,1,-6,1,-9,1
545,-21,1,-13,1,8,1,17,1,-15,1,-3,1,0,1,-12,1,-35,1,-21,1,-7,1,-10,1
546,-19,1,-12,1,7,1,15,1,-13,1,-3,1,0,1,-12,1,-34,1,-21,1,-6,1,-10,1
547,-19,1,-10,1,9,1,14,1,-14,1,-1,1,-1,1,-11,1,-34,1,-21,1,-6,1,-10,1
548,-20,1,-10,1,10,1,15,1,-15,1,0,1,0,1,-11,1,-35,1,-20,1,-6,1,-10,1
549,-21,1,-11,1,10,1,16,1,-16,1,-1,1,0,1,-11,1,-35,1,-20,1,-6,1,-9,1
550,-23,1,-13,1,10,1,18,1,-17,1,-2,1,1,1,-11,1,-34,1,-19,1,-4,1,-7,1
551,-24,1,-12,1,12,1,18,1,-18,1,0,1,1,1,-11,1,-35,1,-20,1,-5,1,-8,1
552,-24,1,-11,1,13,1,17,1,-19,1,1,1,1,1,-12,1,-36,1,-21,1,-7,1,-9,1
553,-24,1,-12,1,12,1,18,1,-18,1,0,1,0,1,-13,1,-37,1,-22,1,-7,1,-10,1
554,-24,1,-13,1,11,1,18,1,-18,1,-1,1,0,1,-13,1,-38,1,-23,1,-8,1,-11,1
555,-24,1,-14,1,10,1,19,1,-17,1,-2,1,0,1,-13,1,-38,1,-23,1,-8,1,-12,1
556,-25,1,-16,1,9,1,20,1,-17,1,-4,1,0,1,-11,1,-38,1,-21,1,-7,1,-12,1
557,-25,1,-17,1,8,1,21,1,-17,1,-5,1,2,1,-10,1,-38,1,-20,1,-6,1,-12,1
558,-25,1,-15,1,10,1,20,1,-18,1,-3,1,1,1,-10,1,-37,1,-20,1,-6,1,-12,1
559,-26,1,-14,1,12,1,20,1,-19,1,-1,1,1,1,-10,1,-37,1,-20,1,-6,1,-11,1
560,-26,1,-13,1,13,1,19,1,-20,1,0,1,2,1,-10,1,-37,1,-19,1,-4,1,-10,1
561,-23,1,-11,1,12,1,17,1,-18,1,0,1,3,1,-10,1,-36,1,-19,1,-4,1,-10,1
562,-21,1,-9,1,12,1,15,1,-17,1,1,1,4,1,-11,1,-36,1,-19,1,-3,1,-10,1
563,-22,1,-9,1,13,1,15,1,-18,1,2,1,4,1,-11,1,-37,1,-20,1,-3,1,-10,1
564,-24,1,-10,1,14,1,17,1,-19,1,2,1,4,1,-11,1,-37,1,-21,1,-3,1,-10,1
565,-27,1,-9,1,18,1,18,1,-23,1,4,1,5,1,-10,1,-36,1,-20,1,-1,1,-10,1
566,-30,1,-8,1,22,1,19,1,-26,1,7,1,8,1,-8,1,-34,1,-19,1,0,1,-9,1
567,-30,1,-5,1,25,1,17,1,-28,1,10,1,9,1,-6,1,-32,1,-17,1,3,1,-8,1
568,-34,1,-3,1,31,1,18,1,-33,1,14,1,12,1,0,1,-26,1,-11,1,8,1,-4,1
569,-37,1,-1,1,36,1,19,1,-37,1,17,1,16,1,7,1,-19,1,-3,1,15,1,2,1
570,-37,1,2,1,39,1,17,1,-38,1,20,1,18,1,16,1,-11,1,8,1,26,1,14,1
571,-33,1,6,1,39,1,13,1,-36,1,22,1,18,1,26,1,1,1,23,1,41,1,29,1
572,-25,1,9,1,34,1,8,1,-29,1,21,1,19,1,43,1,18,1,46,1,64,1,51,1
573,-16,1,12,1,28,1,2,1,-22,1,20,1,19,1,64,1,42,1,75,1,94,1,81,1
574,-6,1,17,1,23,1,-5,1,-14,1,20,1,19,1,86,1,67,1,107,1,129,1,117,1
575,8,1,24,1,16,1,-16,1,-4,1,20,1,15,1,103,1,90,1,140,1,165,1,156,1
576,22,1,31,1,9,1,-26,1,7,1,20,1,10,1,113,1,112,1,174,1,206,1,199,1
577,40,1,36,1,-4,1,-38,1,22,1,16,1,2,1,121,1,133,1,210,1,247,1,244,1
578,62,1,41,1,-21,1,-51,1,42,1,10,1,-8,1,123,1,149,1,243,1,286,1,287,1
579,84,1,46,1,-38,1,-65,1,61,1,4,1,-21,1,120,1,159,1,270,1,316,1,323,1
580,103,1,46,1,-57,1,-74,1,80,1,-5,1,-35,1,108,1,160,1,283,1,329,1,340,1
581,122,1,45,1,-77,1,-83,1,100,1,-16,1,-48,1,86,1,149,1,279,1,319,1,333,1
582,138,1,42,1,-96,1,-90,1,117,1,-27,1,-59,1,57,1,128,1,260,1,290,1,304,1
583,147,1,42,1,-105,1,-94,1,126,1,-31,1,-66,1,19,1,99,1,228,1,249,1,261,1
584,144,1,37,1,-107,1,-90,1,126,1,-35,1,-75,1,-28,1,61,1,186,1,201,1,209,1
585,140,1,31,1,-109,1,-85,1,125,1,-39,1,-83,1,-75,1,19,1,139,1,148,1,155,1
586,138,1,23,1,-115,1,-80,1,127,1,-46,1,-89,1,-120,1,-27,1,85,1,93,1,99,1
587,134,1,14,1,-120,1,-74,1,127,1,-53,1,-96,1,-164,1,-79,1,26,1,37,1,46,1
588,127,1,8,1,-119,1,-67,1,123,1,-55,1,-103,1,-204,1,-129,1,-32,1,-15,1,-2,1
589,114,1,2,1,-112,1,-58,1,113,1,-55,1,-106,1,-238,1,-175,1,-88,1,-62,1,-45,1
590,94,1,-3,1,-97,1,-45,1,95,1,-50,1,-104,1,-268,1,-216,1,-138,1,-103,1,-84,1
591,68,1,-5,1,-73,1,-31,1,70,1,-39,1,-100,1,-292,1,-251,1,-181,1,-137,1,-119,1
592,44,1,-8,1,-52,1,-18,1,48,1,-30,1,-96,1,-310,1,-275,1,-213,1,-162,1,-144,1
593,24,1,-12,1,-36,1,-6,1,30,1,-24,1,-93,1,-316,1,-288,1,-232,1,-176,1,-159,1
594,9,1,-19,1,-28,1,5,1,18,1,-23,1,-87,1,-312,1,-291,1,-239,1,-183,1,-166,1
595,0,1,-27,1,-27,1,13,1,13,1,-27,1,-79,1,-297,1,-284,1,-236,1,-183,1,-166,1
596,-5,1,-31,1,-26,1,18,1,10,1,-29,1,-71,1,-276,1,-270,1,-227,1,-177,1,-162,1
597,-10,1,-34,1,-24,1,22,1,7,1,-29,1,-65,1,-251,1,-254,1,-212,1,-169,1,-155,1
598,-13,1,-38,1,-25,1,25,1,6,1,-32,1,-59,1,-221,1,-233,1,-193,1,-154,1,-143,1
599,-13,1,-38,1,-25,1,25,1,6,1,-32,1,-53,1,-191,1,-210,1,-171,1,-136,1,-128,1
600,-11,1,-32,1,-21,1,21,1,5,1,-27,1,-46,1,-161,1,-185,1,-147,1,-115,1,-112,1
601,-11,1,-25,1,-14,1,18,1,1,1,-20,1,-41,1,-134,1,-163,1,-126,1,-98,1,-97,1
602,-10,1,-20,1,-10,1,15,1,0,1,-15,1,-35,1,-110,1,-141,1,-106,1,-80,1,-83,1
603,-11,1,-15,1,-4,1,13,1,-4,1,-10,1,-31,1,-90,1,-122,1,-89,1,-65,1,-70,1
604,-11,1,-10,1,1,1,10,1,-6,1,-5,1,-26,1,-73,1,-105,1,-74,1,-52,1,-57,1
605,-13,1,-7,1,6,1,10,1,-10,1,-1,1,-21,1,-58,1,-92,1,-62,1,-43,1,-49,1
606,-16,1,-8,1,8,1,12,1,-12,1,0,1,-15,1,-47,1,-83,1,-54,1,-36,1,-43,1
607,-17,1,-8,1,9,1,12,1,-13,1,0,1,-10,1,-39,1,-78,1,-50,1,-33,1,-40,1
608,-16,1,-7,1,9,1,11,1,-13,1,1,1,-4,1,-32,1,-74,1,-46,1,-30,1,-38,1
609,-16,1,-7,1,9,1,11,1,-13,1,1,1,1,1,-24,1,-69,1,-41,1,-26,1,-35,1
610,-17,1,-9,1,8,1,13,1,-13,1,-1,1,4,1,-18,1,-66,1,-38,1,-24,1,-33,1
611,-18,1,-11,1,7,1,14,1,-13,1,-2,1,5,1,-13,1,-62,1,-34,1,-21,1,-31,1
612,-18,1,-13,1,5,1,15,1,-12,1,-4,1,6,1,-8,1,-58,1,-29,1,-17,1,-28,1
613,-20,1,-11,1,9,1,15,1,-15,1,-1,1,5,1,-5,1,-53,1,-25,1,-14,1,-25,1
614,-21,1,-9,1,12,1,15,1,-17,1,1,1,5,1,-4,1,-51,1,-22,1,-12,1,-24,1
615,-21,1,-7,1,14,1,14,1,-18,1,3,1,4,1,-4,1,-49,1,-23,1,-11,1,-24,1
616,-20,1,-5,1,15,1,12,1,-18,1,5,1,4,1,-4,1,-49,1,-23,1,-12,1,-24,1
617,-19,1,-5,1,14,1,12,1,-17,1,4,1,5,1,-3,1,-49,1,-24,1,-12,1,-24,1
618,-18,1,-6,1,12,1,12,1,-15,1,3,1,6,1,-2,1,-49,1,-24,1,-12,1,-24,1
619,-18,1,-7,1,11,1,12,1,-15,1,2,1,8,1,-1,1,-49,1,-23,1,-12,1,-24,1
620,-18,1,-9,1,9,1,13,1,-14,1,0,1,8,1,0,1,-48,1,-22,1,-11,1,-24,1
621,-17,1,-8,1,9,1,12,1,-13,1,0,1,10,1,2,1,-47,1,-20,1,-10,1,-23,1
622,-18,1,-7,1,11,1,12,1,-15,1,2,1,11,1,3,1,-44,1,-18,1,-8,1,-21,1
623,-19,1,-8,1,11,1,13,1,-15,1,1,1,11,1,6,1,-42,1,-16,1,-6,1,-19,1
624,-19,1,-8,1,11,1,13,1,-15,1,1,1,10,1,6,1,-41,1,-15,1,-6,1,-20,1
625,-19,1,-5,1,14,1,12,1,-17,1,4,1,9,1,6,1,-41,1,-15,1,-7,1,-20,1
626,-19,1,-3,1,16,1,11,1,-18,1,6,1,10,1,7,1,-38,1,-13,1,-6,1,-20,1
627,-18,1,-5,1,13,1,11,1,-16,1,4,1,10,1,8,1,-39,1,-13,1,-6,1,-20,1
628,-19,1,-5,1,14,1,12,1,-17,1,4,1,9,1,7,1,-39,1,-14,1,-8,1,-22,1
629,-17,1,-4,1,13,1,10,1,-15,1,4,1,9,1,8,1,-39,1,-14,1,-8,1,-23,1
630,-16,1,-4,1,12,1,10,1,-14,1,4,1,10,1,8,1,-39,1,-13,1,-9,1,-22,1
631,-17,1,-7,1,10,1,12,1,-14,1,1,1,11,1,8,1,-38,1,-12,1,-9,1,-21,1
632,-19,1,-8,1,11,1,13,1,-15,1,1,1,12,1,9,1,-36,1,-11,1,-8,1,-19,1
633,-17,1,-5,1,12,1,11,1,-15,1,3,1,12,1,9,1,-35,1,-11,1,-8,1,-19,1
634,-17,1,-6,1,11,1,11,1,-14,1,2,1,10,1,8,1,-35,1,-11,1,-9,1,-19,1
635,-18,1,-6,1,12,1,12,1,-15,1,3,1,11,1,8,1,-35,1,-12,1,-9,1,-20,1
636,-16,1,-6,1,10,1,11,1,-13,1,2,1,11,1,9,1,-33,1,-11,1,-8,1,-19,1
637,-15,1,-5,1,10,1,10,1,-13,1,2,1,12,1,10,1,-33,1,-11,1,-8,1,-20,1
638,-16,1,-4,1,12,1,10,1,-14,1,4,1,12,1,11,1,-33,1,-10,1,-7,1,-20,1
639,-17,1,-6,1,11,1,11,1,-14,1,2,1,12,1,11,1,-33,1,-9,1,-8,1,-21,1
640,-16,1,-4,1,12,1,10,1,-14,1,4,1,11,1,11,1,-33,1,-9,1,-7,1,-22,1
641,-13,1,-1,1,12,1,7,1,-13,1,5,1,11,1,11,1,-32,1,-8,1,-7,1,-21,1
642,-14,1,-2,1,12,1,8,1,-13,1,5,1,11,1,11,1,-31,1,-7,1,-7,1,-20,1
643,-12,1,-1,1,11,1,6,1,-12,1,5,1,11,1,12,1,-30,1,-6,1,-4,1,-17,1
644,-14,1,-3,1,11,1,8,1,-13,1,4,1,11,1,13,1,-29,1,-6,1,-4,1,-17,1
645,-17,1,-5,1,12,1,11,1,-15,1,3,1,10,1,14,1,-31,1,-7,1,-4,1,-18,1
646,-16,1,-3,1,13,1,9,1,-15,1,5,1,10,1,14,1,-31,1,-7,1,-5,1,-17,1
647,-14,1,-2,1,12,1,8,1,-13,1,5,1,10,1,14,1,-31,1,-6,1,-4,1,-16,1
648,-13,1,-2,1,11,1,7,1,-12,1,4,1,9,1,15,1,-30,1,-5,1,-4,1,-15,1
649,-11,1,-3,1,8,1,7,1,-10,1,2,1,10,1,16,1,-29,1,-4,1,-4,1,-13,1
650,-10,1,-4,1,6,1,7,1,-8,1,1,1,12,1,18,1,-28,1,-2,1,-1,1,-12,1
651,-11,1,-3,1,8,1,7,1,-10,1,2,1,12,1,19,1,-26,1,-1,1,-1,1,-12,1
652,-14,1,-4,1,10,1,9,1,-12,1,3,1,11,1,18,1,-26,1,-2,1,0,1,-12,1
653,-12,1,-5,1,7,1,8,1,-10,1,1,1,10,1,19,1,-26,1,-1,1,-1,1,-12,1
654,-10,1,-4,1,6,1,7,1,-8,1,1,1,9,1,19,1,-26,1,0,1,0,1,-11,1
655,-8,1,-3,1,5,1,5,1,-7,1,1,1,8,1,19,1,-25,1,1,1,1,1,-11,1
656,-8,1,-3,1,5,1,5,1,-7,1,1,1,8,1,20,1,-24,1,1,1,1,1,-10,1
657,-7,1,-1,1,6,1,4,1,-7,1,2,1,8,1,21,1,-23,1,2,1,1,1,-9,1
658,-8,1,-1,1,7,1,4,1,-8,1,3,1,9,1,22,1,-21,1,3,1,1,1,-8,1
659,-9,1,-2,1,7,1,5,1,-8,1,2,1,10,1,23,1,-20,1,4,1,1,1,-7,1
660,-7,1,0,1,7,1,3,1,-7,1,3,1,10,1,24,1,-20,1,5,1,1,1,-8,1
661,-7,1,1,1,8,1,3,1,-7,1,4,1,10,1,25,1,-19,1,5,1,2,1,-7,1
662,-8,1,2,1,10,1,3,1,-9,1,6,1,10,1,25,1,-19,1,5,1,1,1,-7,1
663,-8,1,2,1,10,1,3,1,-9,1,6,1,10,1,26,1,-18,1,5,1,1,1,-8,1
664,-8,1,1,1,9,1,3,1,-8,1,5,1,10,1,27,1,-17,1,6,1,2,1,-6,1
665,-8,1,-1,1,7,1,4,1,-8,1,3,1,10,1,29,1,-17,1,8,1,3,1,-6,1
666,-5,1,1,1,6,1,2,1,-5,1,3,1,9,1,29,1,-17,1,8,1,4,1,-6,1
667,-4,1,0,1,4,1,2,1,-4,1,2,1,10,1,32,1,-15,1,10,1,4,1,-4,1
668,-6,1,0,1,6,1,3,1,-6,1,3,1,10,1,34,1,-13,1,11,1,6,1,-3,1
669,-3,1,2,1,5,1,0,1,-4,1,3,1,10,1,35,1,-13,1,12,1,5,1,-3,1
670,-1,1,2,1,3,1,0,1,-2,1,2,1,9,1,35,1,-12,1,13,1,5,1,-3,1
671,0,1,2,1,2,1,-1,1,-1,1,2,1,9,1,37,1,-11,1,14,1,6,1,-2,1
672,0,1,3,1,3,1,-1,1,-1,1,3,1,10,1,38,1,-9,1,15,1,8,1,0,1
673,1,1,4,1,3,1,-2,1,-1,1,4,1,10,1,39,1,-7,1,17,1,9,1,1,1
674,1,1,4,1,3,1,-2,1,-1,1,4,1,10,1,42,1,-4,1,20,1,12,1,4,1
675,1,1,4,1,3,1,-2,1,-1,1,4,1,9,1,43,1,-4,1,21,1,12,1,5,1
676,1,1,5,1,4,1,-3,1,-1,1,5,1,8,1,44,1,-3,1,21,1,12,1,5,1
677,2,1,5,1,3,1,-3,1,0,1,4,1,7,1,45,1,-2,1,23,1,12,1,6,1
678,4,1,6,1,2,1,-5,1,1,1,4,1,7,1,48,1,-1,1,24,1,12,1,7,1
679,6,1,7,1,1,1,-6,1,3,1,4,1,7,1,51,1,0,1,26,1,14,1,8,1
680,5,1,5,1,0,1,-5,1,3,1,3,1,7,1,53,1,1,1,28,1,16,1,10,1
681,2,1,3,1,1,1,-2,1,1,1,2,1,6,1,55,1,2,1,31,1,16,1,10,1
682,4,1,3,1,-1,1,-3,1,3,1,1,1,6,1,58,1,4,1,33,1,18,1,13,1
683,5,1,4,1,-1,1,-4,1,3,1,2,1,7,1,61,1,7,1,35,1,20,1,15,1
684,6,1,4,1,-2,1,-5,1,4,1,1,1,6,1,63,1,8,1,37,1,22,1,16,1
685,8,1,4,1,-4,1,-6,1,6,1,0,1,6,1,65,1,10,1,39,1,23,1,17,1
686,10,1,4,1,-6,1,-7,1,8,1,-1,1,6,1,68,1,13,1,42,1,26,1,20,1
687,10,1,4,1,-6,1,-7,1,8,1,-1,1,6,1,71,1,16,1,45,1,28,1,22,1
688,12,1,4,1,-8,1,-8,1,10,1,-2,1,5,1,73,1,18,1,47,1,30,1,23,1
689,13,1,6,1,-7,1,-9,1,10,1,0,1,4,1,75,1,20,1,49,1,31,1,24,1
690,15,1,8,1,-7,1,-11,1,11,1,1,1,3,1,78,1,22,1,51,1,31,1,25,1
691,18,1,9,1,-9,1,-13,1,14,1,0,1,4,1,82,1,25,1,55,1,34,1,28,1
692,20,1,10,1,-10,1,-15,1,15,1,0,1,4,1,85,1,28,1,58,1,36,1,31,1
693,21,1,11,1,-10,1,-16,1,16,1,1,1,3,1,88,1,32,1,60,1,38,1,32,1
694,21,1,11,1,-10,1,-16,1,16,1,1,1,4,1,90,1,35,1,63,1,40,1,34,1
695,23,1,10,1,-13,1,-16,1,18,1,-1,1,5,1,95,1,38,1,66,1,43,1,37,1
696,25,1,11,1,-14,1,-18,1,20,1,-1,1,5,1,97,1,40,1,69,1,44,1,39,1
697,26,1,13,1,-13,1,-19,1,20,1,0,1,5,1,99,1,42,1,71,1,46,1,40,1
698,28,1,13,1,-15,1,-20,1,22,1,-1,1,5,1,102,1,45,1,75,1,49,1,43,1
699,28,1,12,1,-16,1,-20,1,22,1,-2,1,3,1,104,1,46,1,77,1,51,1,44,1
700,28,1,13,1,-15,1,-20,1,22,1,-1,1,2,1,105,1,48,1,78,1,52,1,45,1
701,31,1,14,1,-17,1,-22,1,24,1,-1,1,2,1,108,1,51,1,80,1,54,1,48,1
702,34,1,15,1,-19,1,-24,1,27,1,-2,1,1,1,110,1,53,1,81,1,56,1,49,1
703,37,1,16,1,-21,1,-26,1,29,1,-2,1,2,1,113,1,55,1,84,1,57,1,52,1
704,35,1,16,1,-19,1,-25,1,27,1,-1,1,2,1,115,1,58,1,87,1,58,1,54,1
705,32,1,15,1,-17,1,-23,1,25,1,-1,1,2,1,116,1,59,1,88,1,60,1,56,1
706,32,1,15,1,-17,1,-23,1,25,1,-1,1,3,1,118,1,60,1,90,1,60,1,58,1
707,33,1,16,1,-17,1,-24,1,25,1,0,1,3,1,119,1,61,1,91,1,60,1,59,1
708,35,1,15,1,-20,1,-25,1,28,1,-2,1,3,1,118,1,62,1,92,1,60,1,60,1
709,35,1,13,1,-22,1,-24,1,29,1,-4,1,2,1,118,1,63,1,92,1,61,1,60,1
710,36,1,15,1,-21,1,-25,1,29,1,-3,1,1,1,117,1,63,1,93,1,60,1,59,1
711,37,1,18,1,-19,1,-27,1,28,1,0,1,2,1,117,1,63,1,92,1,61,1,59,1
712,38,1,16,1,-22,1,-27,1,30,1,-3,1,2,1,117,1,64,1,94,1,61,1,60,1
713,37,1,15,1,-22,1,-26,1,30,1,-3,1,3,1,118,1,65,1,95,1,62,1,61,1
714,34,1,14,1,-20,1,-24,1,27,1,-3,1,2,1,117,1,64,1,94,1,61,1,61,1
715,33,1,13,1,-20,1,-23,1,27,1,-3,1,3,1,116,1,64,1,94,1,61,1,61,1
716,32,1,14,1,-18,1,-23,1,25,1,-2,1,4,1,114,1,63,1,92,1,61,1,60,1
717,33,1,15,1,-18,1,-24,1,26,1,-1,1,3,1,111,1,61,1,90,1,61,1,59,1
718,31,1,14,1,-17,1,-22,1,24,1,-1,1,2,1,109,1,58,1,88,1,59,1,58,1
719,29,1,12,1,-17,1,-20,1,23,1,-2,1,2,1,106,1,56,1,86,1,58,1,58,1
720,30,1,13,1,-17,1,-21,1,24,1,-2,1,5,1,104,1,55,1,85,1,58,1,58,1
721,29,1,14,1,-15,1,-21,1,22,1,0,1,3,1,99,1,51,1,82,1,55,1,56,1
722,26,1,13,1,-13,1,-19,1,20,1,0,1,3,1,93,1,47,1,78,1,52,1,53,1
723,22,1,14,1,-8,1,-18,1,15,1,3,1,3,1,89,1,44,1,75,1,48,1,51,1
724,20,1,15,1,-5,1,-17,1,13,1,5,1,3,1,84,1,41,1,71,1,46,1,49,1
725,17,1,15,1,-2,1,-16,1,10,1,7,1,4,1,79,1,38,1,67,1,43,1,46,1
726,15,1,15,1,0,1,-15,1,8,1,8,1,5,1,74,1,33,1,64,1,41,1,42,1
727,15,1,15,1,0,1,-15,1,8,1,8,1,5,1,69,1,29,1,60,1,39,1,40,1
728,13,1,15,1,2,1,-14,1,6,1,9,1,6,1,66,1,25,1,57,1,37,1,38,1
729,11,1,14,1,3,1,-12,1,4,1,9,1,6,1,61,1,22,1,54,1,35,1,36,1
730,9,1,14,1,5,1,-11,1,2,1,10,1,6,1,56,1,18,1,51,1,32,1,35,1
731,9,1,15,1,6,1,-12,1,2,1,11,1,6,1,53,1,14,1,48,1,30,1,34,1
732,5,1,13,1,8,1,-9,1,-1,1,11,1,6,1,47,1,11,1,43,1,26,1,31,1
733,1,1,10,1,9,1,-5,1,-4,1,10,1,6,1,42,1,6,1,38,1,23,1,28,1
734,-1,1,8,1,9,1,-3,1,-5,1,8,1,7,1,38,1,1,1,33,1,20,1,25,1
735,-5,1,7,1,12,1,-1,1,-8,1,9,1,9,1,34,1,-1,1,30,1,19,1,23,1
736,-7,1,7,1,14,1,0,1,-10,1,10,1,9,1,31,1,-4,1,29,1,17,1,22,1
737,-7,1,7,1,14,1,0,1,-10,1,10,1,9,1,30,1,-6,1,26,1,15,1,20,1
738,-8,1,6,1,14,1,1,1,-11,1,10,1,9,1,27,1,-9,1,24,1,13,1,19,1
739,-11,1,7,1,18,1,2,1,-14,1,12,1,10,1,24,1,-11,1,22,1,12,1,18,1
740,-10,1,8,1,18,1,1,1,-14,1,13,1,10,1,22,1,-13,1,20,1,10,1,18,1
741,-11,1,7,1,18,1,2,1,-14,1,12,1,11,1,19,1,-15,1,18,1,10,1,17,1
742,-13,1,6,1,19,1,3,1,-16,1,12,1,10,1,17,1,-17,1,15,1,8,1,15,1
743,-13,1,6,1,19,1,3,1,-16,1,12,1,9,1,14,1,-20,1,12,1,6,1,13,1
744,-14,1,6,1,20,1,4,1,-17,1,13,1,9,1,11,1,-21,1,9,1,5,1,12,1
745,-13,1,7,1,20,1,3,1,-16,1,13,1,9,1,9,1,-23,1,8,1,3,1,10,1
746,-14,1,5,1,19,1,4,1,-16,1,12,1,11,1,8,1,-24,1,7,1,4,1,10,1
747,-16,1,4,1,20,1,6,1,-18,1,12,1,12,1,9,1,-24,1,7,1,3,1,11,1
748,-14,1,5,1,19,1,4,1,-16,1,12,1,12,1,7,1,-26,1,5,1,1,1,9,1
749,-16,1,5,1,21,1,5,1,-18,1,13,1,12,1,6,1,-28,1,4,1,-2,1,8,1
750,-16,1,3,1,19,1,6,1,-17,1,11,1,11,1,5,1,-29,1,5,1,-3,1,8,1
751,-16,1,2,1,18,1,7,1,-17,1,10,1,12,1,5,1,-29,1,4,1,-4,1,8,1
752,-16,1,5,1,21,1,5,1,-18,1,13,1,11,1,4,1,-29,1,4,1,-4,1,7,1
753,-17,1,4,1,21,1,6,1,-19,1,12,1,11,1,2,1,-30,1,3,1,-5,1,6,1
754,-20,1,2,1,22,1,9,1,-21,1,12,1,10,1,2,1,-31,1,2,1,-6,1,6,1
755,-21,1,0,1,21,1,10,1,-21,1,10,1,10,1,1,1,-32,1,1,1,-6,1,5,1
756,-19,1,0,1,19,1,9,1,-19,1,9,1,10,1,1,1,-31,1,2,1,-5,1,6,1
757,-16,1,3,1,19,1,6,1,-17,1,11,1,12,1,1,1,-32,1,1,1,-6,1,4,1
758,-15,1,4,1,19,1,5,1,-17,1,11,1,12,1,0,1,-31,1,1,1,-7,1,4,1
759,-15,1,3,1,18,1,6,1,-16,1,10,1,13,1,0,1,-30,1,3,1,-6,1,4,1
760,-16,1,2,1,18,1,7,1,-17,1,10,1,12,1,0,1,-31,1,2,1,-8,1,2,1
761,-17,1,4,1,21,1,6,1,-19,1,12,1,12,1,-1,1,-31,1,2,1,-9,1,2,1
762,-15,1,4,1,19,1,5,1,-17,1,11,1,12,1,-1,1,-31,1,2,1,-9,1,3,1
763,-18,1,3,1,21,1,7,1,-19,1,12,1,11,1,-1,1,-31,1,2,1,-8,1,2,1
764,-19,1,2,1,21,1,8,1,-20,1,11,1,11,1,-1,1,-32,1,2,1,-8,1,0,1
765,-19,1,1,1,20,1,9,1,-19,1,10,1,11,1,-2,1,-33,1,0,1,-9,1,0,1
766,-20,1,1,1,21,1,9,1,-20,1,11,1,11,1,-1,1,-33,1,0,1,-9,1,-1,1
767,-21,1,1,1,22,1,10,1,-21,1,11,1,12,1,-1,1,-33,1,0,1,-9,1,-1,1
768,-21,1,2,1,23,1,9,1,-22,1,12,1,12,1,0,1,-32,1,0,1,-9,1,-1,1
769,-19,1,3,1,22,1,8,1,-20,1,12,1,11,1,0,1,-33,1,0,1,-10,1,-1,1
770,-19,1,5,1,24,1,7,1,-21,1,14,1,10,1,-1,1,-33,1,-1,1,-11,1,-2,1
771,-22,1,1,1,23,1,10,1,-22,1,12,1,11,1,-1,1,-33,1,0,1,-11,1,-3,1
772,-23,1,0,1,23,1,11,1,-23,1,11,1,13,1,-1,1,-32,1,0,1,-10,1,-3,1
773,-23,1,1,1,24,1,11,1,-23,1,12,1,13,1,-2,1,-32,1,0,1,-11,1,-3,1
774,-21,1,1,1,22,1,10,1,-21,1,11,1,12,1,-3,1,-33,1,-2,1,-11,1,-4,1
775,-22,1,2,1,24,1,10,1,-23,1,13,1,12,1,-2,1,-33,1,-1,1,-11,1,-3,1
776,-21,1,4,1,25,1,8,1,-23,1,14,1,12,1,-2,1,-33,1,-1,1,-11,1,-3,1
777,-21,1,4,1,25,1,8,1,-23,1,14,1,12,1,0,1,-32,1,-1,1,-11,1,-2,1
778,-23,1,6,1,29,1,8,1,-26,1,17,1,12,1,0,1,-32,1,0,1,-11,1,-2,1
779,-21,1,5,1,26,1,8,1,-23,1,15,1,10,1,0,1,-33,1,-1,1,-12,1,-3,1
780,-18,1,3,1,21,1,7,1,-19,1,12,1,10,1,0,1,-33,1,-1,1,-12,1,-4,1
781,-17,1,1,1,18,1,8,1,-17,1,9,1,12,1,0,1,-32,1,-1,1,-11,1,-4,1
782,-20,1,0,1,20,1,10,1,-20,1,10,1,12,1,0,1,-32,1,-2,1,-12,1,-4,1
783,-20,1,0,1,20,1,10,1,-20,1,10,1,12,1,0,1,-31,1,-1,1,-11,1,-4,1
784,-22,1,0,1,22,1,11,1,-22,1,11,1,13,1,0,1,-31,1,-1,1,-11,1,-4,1
785,-21,1,1,1,22,1,10,1,-21,1,11,1,13,1,-1,1,-31,1,-1,1,-10,1,-4,1
786,-20,1,2,1,22,1,9,1,-21,1,12,1,13,1,-1,1,-31,1,0,1,-11,1,-4,1
787,-22,1,2,1,24,1,10,1,-23,1,13,1,13,1,0,1,-31,1,0,1,-9,1,-3,1
788,-22,1,1,1,23,1,10,1,-22,1,12,1,13,1,2,1,-30,1,1,1,-10,1,-3,1
789,-20,1,1,1,21,1,9,1,-20,1,11,1,13,1,2,1,-31,1,1,1,-11,1,-3,1
790,-18,1,4,1,22,1,7,1,-20,1,13,1,12,1,2,1,-31,1,0,1,-12,1,-4,1
791,-20,1,3,1,23,1,8,1,-21,1,13,1,12,1,1,1,-31,1,0,1,-12,1,-5,1
792,-22,1,0,1,22,1,11,1,-22,1,11,1,12,1,1,1,-31,1,1,1,-12,1,-4,1
793,-20,1,2,1,22,1,9,1,-21,1,12,1,12,1,1,1,-30,1,2,1,-12,1,-5,1
794,-17,1,5,1,22,1,6,1,-19,1,13,1,13,1,2,1,-28,1,3,1,-11,1,-4,1
795,-21,1,3,1,24,1,9,1,-22,1,13,1,13,1,2,1,-28,1,3,1,-12,1,-5,1
796,-25,1,1,1,26,1,12,1,-25,1,13,1,13,1,2,1,-28,1,3,1,-11,1,-5,1
797,-25,1,0,1,25,1,12,1,-25,1,12,1,14,1,3,1,-27,1,4,1,-10,1,-5,1
798,-26,1,1,1,27,1,12,1,-26,1,14,1,14,1,3,1,-27,1,3,1,-11,1,-6,1
799,-26,1,2,1,28,1,12,1,-27,1,15,1,14,1,4,1,-27,1,3,1,-13,1,-6,1
800,-25,1,1,1,26,1,12,1,-25,1,13,1,14,1,5,1,-27,1,3,1,-12,1,-4,1
801,-23,1,1,1,24,1,11,1,-23,1,12,1,13,1,5,1,-26,1,3,1,-11,1,-4,1
802,-21,1,3,1,24,1,9,1,-22,1,13,1,13,1,5,1,-26,1,3,1,-10,1,-3,1
803,-19,1,4,1,23,1,7,1,-21,1,13,1,15,1,6,1,-24,1,5,1,-8,1,-1,1
804,-21,1,3,1,24,1,9,1,-22,1,13,1,16,1,5,1,-24,1,6,1,-8,1,-1,1
805,-27,1,2,1,29,1,12,1,-28,1,15,1,14,1,4,1,-26,1,5,1,-9,1,-2,1
806,-29,1,3,1,32,1,13,1,-30,1,17,1,14,1,3,1,-26,1,5,1,-10,1,-3,1
807,-27,1,5,1,32,1,11,1,-29,1,18,1,15,1,4,1,-26,1,7,1,-9,1,-2,1
808,-26,1,4,1,30,1,11,1,-28,1,17,1,14,1,5,1,-26,1,7,1,-10,1,-2,1
809,-24,1,4,1,28,1,10,1,-26,1,16,1,15,1,7,1,-25,1,7,1,-8,1,-1,1
810,-25,1,3,1,28,1,11,1,-26,1,15,1,14,1,7,1,-24,1,7,1,-9,1,-1,1
811,-26,1,1,1,27,1,12,1,-26,1,14,1,13,1,5,1,-25,1,4,1,-10,1,-3,1
812,-27,1,1,1,28,1,13,1,-27,1,14,1,13,1,4,1,-24,1,4,1,-10,1,-3,1
813,-26,1,1,1,27,1,12,1,-26,1,14,1,13,1,4,1,-23,1,5,1,-9,1,-2,1
814,-25,1,2,1,27,1,11,1,-26,1,14,1,13,1,3,1,-24,1,4,1,-10,1,-1,1
815,-25,1,3,1,28,1,11,1,-26,1,15,1,14,1,4,1,-23,1,6,1,-9,1,0,1
816,-24,1,5,1,29,1,9,1,-26,1,17,1,13,1,4,1,-23,1,7,1,-9,1,0,1
817,-25,1,5,1,30,1,10,1,-27,1,17,1,14,1,6,1,-23,1,8,1,-9,1,1,1
818,-26,1,3,1,29,1,11,1,-27,1,16,1,14,1,6,1,-23,1,8,1,-7,1,1,1
819,-26,1,4,1,30,1,11,1,-28,1,17,1,13,1,5,1,-24,1,7,1,-8,1,-1,1
820,-24,1,5,1,29,1,9,1,-26,1,17,1,12,1,6,1,-25,1,7,1,-8,1,-2,1
821,-22,1,4,1,26,1,9,1,-24,1,15,1,14,1,6,1,-24,1,8,1,-8,1,-2,1
822,-22,1,2,1,24,1,10,1,-23,1,13,1,13,1,5,1,-24,1,6,1,-7,1,-2,1
823,-21,1,1,1,22,1,10,1,-21,1,11,1,14,1,4,1,-25,1,6,1,-9,1,-2,1
824,-19,1,3,1,22,1,8,1,-20,1,12,1,14,1,4,1,-25,1,6,1,-8,1,-1,1
825,-19,1,5,1,24,1,7,1,-21,1,14,1,13,1,4,1,-26,1,6,1,-8,1,0,1
826,-18,1,4,1,22,1,7,1,-20,1,13,1,12,1,3,1,-27,1,6,1,-10,1,0,1
827,-17,1,4,1,21,1,6,1,-19,1,12,1,11,1,3,1,-27,1,6,1,-10,1,0,1
828,-17,1,6,1,23,1,5,1,-20,1,14,1,13,1,4,1,-26,1,7,1,-10,1,1,1
829,-17,1,5,1,22,1,6,1,-19,1,13,1,14,1,4,1,-27,1,7,1,-10,1,2,1
830,-19,1,2,1,21,1,8,1,-20,1,11,1,14,1,4,1,-26,1,7,1,-9,1,2,1
831,-19,1,1,1,20,1,9,1,-19,1,10,1,14,1,3,1,-27,1,6,1,-9,1,1,1
832,-18,1,0,1,18,1,9,1,-18,1,9,1,14,1,2,1,-27,1,5,1,-10,1,1,1
833,-18,1,0,1,18,1,9,1,-18,1,9,1,12,1,1,1,-29,1,4,1,-10,1,0,1
834,-18,1,2,1,20,1,8,1,-19,1,11,1,12,1,1,1,-29,1,4,1,-12,1,0,1
835,-16,1,3,1,19,1,6,1,-17,1,11,1,12,1,2,1,-27,1,6,1,-11,1,0,1
836,-17,1,3,1,20,1,7,1,-18,1,11,1,12,1,1,1,-28,1,6,1,-11,1,1,1
837,-20,1,2,1,22,1,9,1,-21,1,12,1,12,1,0,1,-28,1,6,1,-12,1,0,1
838,-21,1,2,1,23,1,9,1,-22,1,12,1,13,1,0,1,-28,1,5,1,-12,1,1,1
839,-23,1,1,1,24,1,11,1,-23,1,12,1,13,1,0,1,-28,1,4,1,-12,1,1,1
840,-22,1,-1,1,21,1,11,1,-22,1,10,1,14,1,0,1,-28,1,4,1,-11,1,1,1
841,-20,1,-3,1,17,1,11,1,-19,1,7,1,14,1,0,1,-28,1,5,1,-11,1,1,1
842,-20,1,-2,1,18,1,11,1,-19,1,8,1,13,1,0,1,-29,1,3,1,-11,1,0,1
843,-19,1,-2,1,17,1,10,1,-18,1,7,1,13,1,0,1,-31,1,3,1,-12,1,0,1
844,-19,1,-1,1,18,1,10,1,-19,1,8,1,12,1,-1,1,-32,1,2,1,-12,1,0,1
845,-20,1,-1,1,19,1,10,1,-20,1,9,1,11,1,-2,1,-32,1,3,1,-12,1,0,1
846,-20,1,-1,1,19,1,10,1,-20,1,9,1,11,1,-2,1,-32,1,4,1,-11,1,-1,1
847,-21,1,0,1,21,1,10,1,-21,1,10,1,11,1,-2,1,-31,1,4,1,-12,1,-1,1
848,-20,1,-1,1,19,1,10,1,-20,1,9,1,11,1,-2,1,-31,1,3,1,-13,1,-1,1
849,-18,1,0,1,18,1,9,1,-18,1,9,1,12,1,-1,1,-31,1,3,1,-13,1,-1,1
850,-16,1,0,1,16,1,8,1,-16,1,8,1,13,1,-1,1,-30,1,2,1,-12,1,0,1
851,-17,1,1,1,18,1,8,1,-17,1,9,1,12,1,-1,1,-31,1,2,1,-12,1,-1,1
852,-17,1,1,1,18,1,8,1,-17,1,9,1,11,1,-1,1,-31,1,1,1,-11,1,-1,1
853,-18,1,1,1,19,1,8,1,-18,1,10,1,10,1,-3,1,-32,1,1,1,-12,1,-2,1
854,-17,1,2,1,19,1,7,1,-18,1,10,1,10,1,-4,1,-32,1,1,1,-13,1,-3,1
855,-18,1,3,1,21,1,7,1,-19,1,12,1,10,1,-4,1,-32,1,1,1,-12,1,-3,1
856,-20,1,1,1,21,1,9,1,-20,1,11,1,12,1,-3,1,-32,1,2,1,-13,1,-3,1
857,-21,1,0,1,21,1,10,1,-21,1,10,1,13,1,-3,1,-32,1,2,1,-13,1,-3,1
858,-21,1,0,1,21,1,10,1,-21,1,10,1,13,1,-4,1,-32,1,1,1,-15,1,-4,1
859,-20,1,1,1,21,1,9,1,-20,1,11,1,12,1,-5,1,-33,1,0,1,-16,1,-6,1
860,-20,1,0,1,20,1,10,1,-20,1,10,1,12,1,-5,1,-33,1,0,1,-17,1,-6,1
861,-19,1,0,1,19,1,9,1,-19,1,9,1,12,1,-5,1,-33,1,0,1,-16,1,-5,1
862,-19,1,1,1,20,1,9,1,-19,1,10,1,12,1,-4,1,-33,1,0,1,-17,1,-5,1
863,-18,1,2,1,20,1,8,1,-19,1,11,1,10,1,-5,1,-33,1,-1,1,-17,1,-5,1
864,-15,1,4,1,19,1,5,1,-17,1,11,1,10,1,-5,1,-33,1,-1,1,-17,1,-4,1
865,-17,1,1,1,18,1,8,1,-17,1,9,1,11,1,-5,1,-32,1,0,1,-16,1,-3,1
866,-19,1,-2,1,17,1,10,1,-18,1,7,1,12,1,-4,1,-32,1,0,1,-16,1,-3,1
867,-18,1,-2,1,16,1,10,1,-17,1,7,1,11,1,-4,1,-33,1,0,1,-18,1,-4,1
868,-18,1,-1,1,17,1,9,1,-18,1,8,1,12,1,-4,1,-33,1,0,1,-18,1,-4,1
869,-19,1,-2,1,17,1,10,1,-18,1,7,1,12,1,-4,1,-33,1,1,1,-19,1,-5,1
870,-19,1,-2,1,17,1,10,1,-18,1,7,1,12,1,-4,1,-34,1,1,1,-18,1,-3,1
871,-18,1,-1,1,17,1,9,1,-18,1,8,1,11,1,-6,1,-34,1,1,1,-20,1,-3,1
872,-17,1,0,1,17,1,8,1,-17,1,8,1,10,1,-6,1,-34,1,1,1,-19,1,-2,1
873,-15,1,2,1,17,1,6,1,-16,1,9,1,11,1,-6,1,-33,1,1,1,-19,1,-2,1
874,-18,1,0,1,18,1,9,1,-18,1,9,1,10,1,-6,1,-35,1,0,1,-21,1,-4,1
875,-21,1,0,1,21,1,10,1,-21,1,10,1,10,1,-7,1,-36,1,-1,1,-22,1,-5,1
876,-23,1,-2,1,21,1,12,1,-22,1,9,1,10,1,-7,1,-36,1,-1,1,-23,1,-5,1
877,-21,1,-1,1,20,1,11,1,-21,1,9,1,10,1,-7,1,-38,1,-1,1,-24,1,-5,1
878,-19,1,-2,1,17,1,10,1,-18,1,7,1,11,1,-6,1,-37,1,-1,1,-23,1,-3,1
879,-17,1,-2,1,15,1,9,1,-16,1,6,1,11,1,-5,1,-37,1,0,1,-22,1,-2,1
880,-16,1,-2,1,14,1,9,1,-15,1,6,1,11,1,-5,1,-37,1,-1,1,-22,1,-2,1
881,-17,1,-2,1,15,1,9,1,-16,1,6,1,10,1,-6,1,-38,1,-1,1,-22,1,-2,1
882,-17,1,-1,1,16,1,9,1,-17,1,7,1,12,1,-5,1,-37,1,-1,1,-22,1,-1,1
883,-17,1,0,1,17,1,8,1,-17,1,8,1,11,1,-4,1,-37,1,-1,1,-21,1,-1,1
884,-19,1,-1,1,18,1,10,1,-19,1,8,1,11,1,-4,1,-37,1,-1,1,-22,1,0,1
885,-17,1,0,1,17,1,8,1,-17,1,8,1,11,1,-4,1,-37,1,-1,1,-23,1,-1,1
886,-15,1,0,1,15,1,7,1,-15,1,7,1,10,1,-5,1,-37,1,0,1,-23,1,-1,1
887,-15,1,-2,1,13,1,8,1,-14,1,5,1,10,1,-5,1,-38,1,0,1,-22,1,-1,1
888,-15,1,-2,1,13,1,8,1,-14,1,5,1,9,1,-6,1,-39,1,-1,1,-23,1,-2,1
889,-15,1,0,1,15,1,7,1,-15,1,7,1,9,1,-7,1,-40,1,-2,1,-23,1,-3,1
890,-15,1,-1,1,14,1,8,1,-15,1,6,1,9,1,-7,1,-41,1,-3,1,-23,1,-2,1
891,-16,1,-1,1,15,1,8,1,-16,1,7,1,9,1,-7,1,-42,1,-2,1,-23,1,-2,1
892,-18,1,-2,1,16,1,10,1,-17,1,7,1,10,1,-6,1,-42,1,-2,1,-22,1,-2,1
893,-18,1,-3,1,15,1,10,1,-17,1,6,1,10,1,-5,1,-42,1,-1,1,-22,1,-2,1
894,-16,1,-2,1,14,1,9,1,-15,1,6,1,12,1,-5,1,-42,1,0,1,-21,1,-1,1
895,-16,1,-2,1,14,1,9,1,-15,1,6,1,11,1,-6,1,-41,1,0,1,-22,1,-2,1
896,-16,1,-2,1,14,1,9,1,-15,1,6,1,10,1,-6,1,-41,1,0,1,-21,1,-2,1
897,-16,1,-3,1,13,1,9,1,-15,1,5,1,9,1,-6,1,-42,1,-1,1,-21,1,-2,1
898,-16,1,-3,1,13,1,9,1,-15,1,5,1,9,1,-7,1,-43,1,-2,1,-22,1,-3,1
899,-16,1,-1,1,15,1,8,1,-16,1,7,1,7,1,-7,1,-43,1,-3,1,-23,1,-4,1
900,-16,1,-1,1,15,1,8,1,-16,1,7,1,7,1,-7,1,-42,1,-3,1,-22,1,-4,1
901,-17,1,-1,1,16,1,9,1,-17,1,7,1,8,1,-7,1,-42,1,-3,1,-21,1,-4,1
902,-15,1,0,1,15,1,7,1,-15,1,7,1,8,1,-8,1,-42,1,-3,1,-21,1,-4,1
903,-14,1,0,1,14,1,7,1,-14,1,7,1,7,1,-8,1,-43,1,-3,1,-22,1,-6,1
904,-15,1,0,1,15,1,7,1,-15,1,7,1,7,1,-7,1,-44,1,-2,1,-22,1,-5,1
905,-16,1,0,1,16,1,8,1,-16,1,8,1,7,1,-7,1,-44,1,-2,1,-20,1,-6,1
906,-15,1,-1,1,14,1,8,1,-15,1,6,1,7,1,-7,1,-44,1,-1,1,-19,1,-5,1
907,-12,1,-1,1,11,1,6,1,-12,1,5,1,9,1,-7,1,-44,1,0,1,-18,1,-5,1
908,-12,1,-2,1,10,1,7,1,-11,1,4,1,9,1,-8,1,-44,1,-1,1,-18,1,-5,1
909,-14,1,-2,1,12,1,8,1,-13,1,5,1,9,1,-8,1,-44,1,-2,1,-16,1,-6,1
910,-11,1,0,1,11,1,5,1,-11,1,5,1,9,1,-8,1,-44,1,-3,1,-16,1,-6,1
911,-11,1,0,1,11,1,5,1,-11,1,5,1,9,1,-8,1,-44,1,-3,1,-16,1,-6,1
912,-13,1,0,1,13,1,6,1,-13,1,6,1,8,1,-9,1,-45,1,-4,1,-16,1,-7,1
913,-14,1,-1,1,13,1,7,1,-14,1,6,1,7,1,-9,1,-46,1,-3,1,-16,1,-7,1
914,-13,1,0,1,13,1,6,1,-13,1,6,1,7,1,-8,1,-46,1,-3,1,-16,1,-7,1
915,-13,1,0,1,13,1,6,1,-13,1,6,1,7,1,-7,1,-45,1,-3,1,-15,1,-6,1
916,-13,1,-1,1,12,1,7,1,-13,1,5,1,7,1,-7,1,-45,1,-3,1,-14,1,-6,1
917,-12,1,-1,1,11,1,6,1,-12,1,5,1,7,1,-6,1,-46,1,-3,1,-13,1,-4,1
918,-13,1,0,1,13,1,6,1,-13,1,6,1,8,1,-6,1,-45,1,-3,1,-12,1,-4,1
919,-15,1,0,1,15,1,7,1,-15,1,7,1,9,1,-7,1,-46,1,-3,1,-13,1,-4,1
920,-13,1,1,1,14,1,6,1,-13,1,7,1,8,1,-8,1,-46,1,-3,1,-13,1,-5,1
921,-14,1,0,1,14,1,7,1,-14,1,7,1,8,1,-8,1,-46,1,-2,1,-12,1,-5,1
922,-13,1,-2,1,11,1,7,1,-12,1,4,1,9,1,-8,1,-45,1,-1,1,-11,1,-4,1
923,-12,1,-2,1,10,1,7,1,-11,1,4,1,9,1,-8,1,-45,1,0,1,-11,1,-3,1
924,-12,1,-3,1,9,1,7,1,-11,1,3,1,9,1,-8,1,-46,1,-1,1,-11,1,-2,1
925,-12,1,-3,1,9,1,7,1,-11,1,3,1,9,1,-7,1,-46,1,-1,1,-11,1,-3,1
926,-13,1,-5,1,8,1,9,1,-11,1,1,1,9,1,-7,1,-46,1,-2,1,-11,1,-2,1
927,-14,1,-4,1,10,1,9,1,-12,1,3,1,8,1,-7,1,-47,1,-2,1,-11,1,-2,1
928,-12,1,-3,1,9,1,7,1,-11,1,3,1,8,1,-7,1,-47,1,-2,1,-12,1,-3,1
929,-12,1,-2,1,10,1,7,1,-11,1,4,1,8,1,-8,1,-47,1,-2,1,-11,1,-3,1
930,-13,1,-2,1,11,1,7,1,-12,1,4,1,8,1,-8,1,-47,1,-2,1,-11,1,-2,1
931,-14,1,-2,1,12,1,8,1,-13,1,5,1,8,1,-8,1,-47,1,-3,1,-10,1,-3,1
932,-14,1,-3,1,11,1,8,1,-13,1,4,1,9,1,-8,1,-47,1,-3,1,-10,1,-3,1
933,-13,1,-3,1,10,1,8,1,-12,1,3,1,10,1,-8,1,-48,1,-2,1,-10,1,-3,1
934,-13,1,-3,1,10,1,8,1,-12,1,3,1,10,1,-9,1,-49,1,-2,1,-11,1,-3,1
935,-14,1,-5,1,9,1,9,1,-12,1,2,1,10,1,-8,1,-49,1,-2,1,-10,1,-3,1
936,-13,1,-4,1,9,1,8,1,-11,1,2,1,9,1,-9,1,-49,1,-2,1,-10,1,-3,1
937,-13,1,-2,1,11,1,7,1,-12,1,4,1,8,1,-9,1,-50,1,-3,1,-10,1,-4,1
938,-14,1,-1,1,13,1,7,1,-14,1,6,1,7,1,-8,1,-50,1,-3,1,-10,1,-5,1
939,-13,1,0,1,13,1,6,1,-13,1,6,1,8,1,-7,1,-48,1,-3,1,-9,1,-5,1
940,-14,1,0,1,14,1,7,1,-14,1,7,1,8,1,-7,1,-48,1,-3,1,-9,1,-6,1
941,-13,1,-2,1,11,1,7,1,-12,1,4,1,8,1,-8,1,-49,1,-6,1,-12,1,-7,1
942,-11,1,0,1,11,1,5,1,-11,1,5,1,7,1,-10,1,-51,1,-7,1,-12,1,-7,1
943,-9,1,2,1,11,1,3,1,-10,1,6,1,7,1,-10,1,-51,1,-7,1,-12,1,-6,1
944,-10,1,-1,1,9,1,5,1,-10,1,4,1,8,1,-11,1,-51,1,-6,1,-12,1,-5,1
945,-10,1,-3,1,7,1,6,1,-9,1,2,1,7,1,-10,1,-51,1,-6,1,-12,1,-4,1
946,-12,1,-3,1,9,1,7,1,-11,1,3,1,7,1,-9,1,-51,1,-5,1,-11,1,-3,1
947,-12,1,-3,1,9,1,7,1,-11,1,3,1,6,1,-9,1,-50,1,-5,1,-11,1,-4,1
948,-12,1,-4,1,8,1,8,1,-10,1,2,1,6,1,-10,1,-52,1,-6,1,-12,1,-5,1
949,-11,1,-3,1,8,1,7,1,-10,1,2,1,6,1,-10,1,-53,1,-6,1,-12,1,-4,1
950,-12,1,-3,1,9,1,7,1,-11,1,3,1,7,1,-10,1,-52,1,-6,1,-11,1,-4,1
951,-10,1,-5,1,5,1,7,1,-8,1,0,1,8,1,-9,1,-52,1,-5,1,-11,1,-4,1
952,-7,1,-2,1,5,1,4,1,-6,1,1,1,9,1,-9,1,-51,1,-5,1,-11,1,-4,1
953,-7,1,0,1,7,1,3,1,-7,1,3,1,8,1,-9,1,-51,1,-4,1,-11,1,-5,1
954,-9,1,-1,1,8,1,5,1,-9,1,3,1,8,1,-11,1,-52,1,-4,1,-12,1,-6,1
955,-11,1,-4,1,7,1,7,1,-9,1,1,1,7,1,-11,1,-52,1,-4,1,-12,1,-5,1
956,-12,1,-5,1,7,1,8,1,-10,1,1,1,7,1,-10,1,-52,1,-5,1,-12,1,-6,1
957,-11,1,-3,1,8,1,7,1,-10,1,2,1,6,1,-11,1,-53,1,-5,1,-12,1,-6,1
958,-10,1,-3,1,7,1,6,1,-9,1,2,1,8,1,-11,1,-52,1,-4,1,-12,1,-6,1
959,-8,1,-2,1,6,1,5,1,-7,1,2,1,8,1,-11,1,-53,1,-5,1,-13,1,-6,1
960,-4,1,0,1,4,1,2,1,-4,1,2,1,8,1,-10,1,-53,1,-5,1,-12,1,-5,1
961,-3,1,0,1,3,1,1,1,-3,1,1,1,9,1,-10,1,-53,1,-5,1,-12,1,-4,1
962,-6,1,-1,1,5,1,3,1,-6,1,2,1,7,1,-11,1,-54,1,-7,1,-13,1,-5,1
963,-7,1,0,1,7,1,3,1,-7,1,3,1,7,1,-11,1,-54,1,-7,1,-13,1,-5,1
964,-6,1,0,1,6,1,3,1,-6,1,3,1,6,1,-10,1,-53,1,-7,1,-14,1,-5,1
965,-6,1,-1,1,5,1,3,1,-6,1,2,1,6,1,-10,1,-53,1,-6,1,-14,1,-5,1
966,-7,1,-2,1,5,1,4,1,-6,1,1,1,8,1,-8,1,-52,1,-4,1,-12,1,-4,1
967,-8,1,0,1,8,1,4,1,-8,1,4,1,9,1,-7,1,-52,1,-3,1,-12,1,-4,1
968,-6,1,1,1,7,1,2,1,-6,1,4,1,11,1,-6,1,-51,1,-3,1,-11,1,-3,1
969,-6,1,1,1,7,1,2,1,-6,1,4,1,13,1,-5,1,-50,1,-2,1,-11,1,-2,1
970,-5,1,2,1,7,1,1,1,-6,1,4,1,14,1,-5,1,-49,1,-2,1,-10,1,-2,1
971,-4,1,4,1,8,1,0,1,-6,1,6,1,13,1,-5,1,-49,1,-2,1,-12,1,-3,1
972,-3,1,4,1,7,1,0,1,-5,1,5,1,13,1,-5,1,-49,1,-1,1,-12,1,-4,1
973,-3,1,4,1,7,1,0,1,-5,1,5,1,14,1,-4,1,-48,1,-1,1,-11,1,-4,1
974,-2,1,5,1,7,1,-1,1,-4,1,6,1,14,1,-3,1,-47,1,-1,1,-10,1,-2,1
975,-2,1,6,1,8,1,-2,1,-5,1,7,1,15,1,-3,1,-47,1,-1,1,-10,1,-2,1
976,-1,1,8,1,9,1,-3,1,-5,1,8,1,15,1,-2,1,-47,1,-1,1,-10,1,-2,1
977,0,1,9,1,9,1,-4,1,-4,1,9,1,15,1,0,1,-46,1,0,1,-8,1,0,1
978,-1,1,7,1,8,1,-3,1,-4,1,7,1,16,1,1,1,-44,1,1,1,-7,1,0,1
979,-1,1,6,1,7,1,-2,1,-4,1,6,1,16,1,4,1,-43,1,3,1,-5,1,1,1
980,0,1,6,1,6,1,-3,1,-3,1,6,1,17,1,5,1,-42,1,4,1,-5,1,1,1
981,0,1,5,1,5,1,-2,1,-2,1,5,1,17,1,6,1,-42,1,6,1,-4,1,2,1
982,1,1,5,1,4,1,-3,1,-1,1,5,1,17,1,6,1,-41,1,7,1,-4,1,2,1
983,2,1,3,1,1,1,-2,1,1,1,2,1,18,1,8,1,-39,1,9,1,-2,1,2,1
984,4,1,3,1,-1,1,-3,1,3,1,1,1,17,1,10,1,-38,1,9,1,-1,1,1,1
985,5,1,6,1,1,1,-5,1,2,1,4,1,15,1,11,1,-38,1,9,1,-1,1,1,1
986,4,1,7,1,3,1,-5,1,1,1,5,1,14,1,12,1,-36,1,9,1,1,1,3,1
987,7,1,10,1,3,1,-8,1,2,1,7,1,12,1,12,1,-37,1,9,1,2,1,4,1
988,9,1,11,1,2,1,-10,1,4,1,7,1,9,1,10,1,-37,1,7,1,2,1,4,1
989,9,1,10,1,1,1,-9,1,4,1,6,1,6,1,6,1,-40,1,6,1,1,1,3,1
990,6,1,9,1,3,1,-7,1,2,1,6,1,4,1,4,1,-42,1,5,1,1,1,2,1
991,6,1,9,1,3,1,-7,1,2,1,6,1,2,1,0,1,-46,1,3,1,-2,1,-1,1
992,6,1,7,1,1,1,-6,1,3,1,4,1,2,1,-3,1,-47,1,2,1,-3,1,-3,1
993,6,1,4,1,-2,1,-5,1,4,1,1,1,2,1,-4,1,-48,1,0,1,-5,1,-3,1
994,6,1,2,1,-4,1,-4,1,5,1,-1,1,3,1,-5,1,-49,1,-1,1,-7,1,-4,1
995,5,1,0,1,-5,1,-2,1,5,1,-2,1,4,1,-7,1,-51,1,-3,1,-7,1,-5,1
996,5,1,-1,1,-6,1,-2,1,5,1,-3,1,4,1,-8,1,-52,1,-5,1,-8,1,-6,1
997,6,1,0,1,-6,1,-3,1,6,1,-3,1,3,1,-9,1,-54,1,-6,1,-8,1,-7,1
998,7,1,2,1,-5,1,-4,1,6,1,-1,1,2,1,-8,1,-54,1,-7,1,-8,1,-7,1
999,7,1,1,1,-6,1,-4,1,7,1,-2,1,2,1,-9,1,-55,1,-7,1,-7,1,-7,1
1000,6,1,1,1,-5,1,-3,1,6,1,-2,1,2,1,-9,1,-56,1,-7,1,-8,1,-7,1
1001,5,1,0,1,-5,1,-2,1,5,1,-2,1,0,1,-10,1,-58,1,-7,1,-8,1,-8,1
1002,6,1,0,1,-6,1,-3,1,6,1,-3,1,0,1,-11,1,-59,1,-8,1,-11,1,-9,1
1003,6,1,-4,1,-10,1,-1,1,8,1,-7,1,0,1,-12,1,-60,1,-9,1,-11,1,-10,1
1004,4,1,-7,1,-11,1,1,1,7,1,-9,1,0,1,-12,1,-60,1,-9,1,-11,1,-11,1
1005,3,1,-8,1,-11,1,2,1,7,1,-9,1,-1,1,-14,1,-61,1,-11,1,-12,1,-12,1
1006,4,1,-6,1,-10,1,1,1,7,1,-8,1,-1,1,-13,1,-62,1,-11,1,-12,1,-12,1
1007,5,1,-4,1,-9,1,0,1,7,1,-6,1,1,1,-11,1,-61,1,-11,1,-11,1,-11,1
1008,2,1,-5,1,-7,1,1,1,4,1,-6,1,2,1,-10,1,-61,1,-12,1,-10,1,-11,1
1009,0,1,-7,1,-7,1,3,1,3,1,-7,1,4,1,-11,1,-62,1,-12,1,-11,1,-11,1
1010,0,1,-6,1,-6,1,3,1,3,1,-6,1,3,1,-11,1,-63,1,-12,1,-11,1,-11,1
1011,-2,1,-6,1,-4,1,4,1,1,1,-5,1,3,1,-11,1,-62,1,-12,1,-12,1,-12,1
1012,-2,1,-6,1,-4,1,4,1,1,1,-5,1,2,1,-11,1,-62,1,-12,1,-12,1,-13,1
1013,-2,1,-6,1,-4,1,4,1,1,1,-5,1,2,1,-12,1,-63,1,-12,1,-13,1,-14,1
1014,-4,1,-7,1,-3,1,5,1,-1,1,-5,1,2,1,-12,1,-63,1,-12,1,-12,1,-15,1
1015,-5,1,-8,1,-3,1,6,1,-1,1,-6,1,2,1,-13,1,-64,1,-13,1,-13,1,-15,1
1016,-5,1,-8,1,-3,1,6,1,-1,1,-6,1,1,1,-13,1,-64,1,-13,1,-12,1,-15,1
1017,-8,1,-8,1,0,1,8,1,-4,1,-4,1,1,1,-12,1,-64,1,-14,1,-12,1,-16,1
1018,-8,1,-9,1,-1,1,8,1,-4,1,-5,1,1,1,-13,1,-67,1,-16,1,-14,1,-17,1
1019,-6,1,-8,1,-2,1,7,1,-2,1,-5,1,0,1,-14,1,-68,1,-16,1,-14,1,-17,1
1020,-6,1,-7,1,-1,1,6,1,-3,1,-4,1,1,1,-13,1,-68,1,-15,1,-14,1,-16,1
1021,-4,1,-9,1,-5,1,6,1,0,1,-7,1,0,1,-13,1,-68,1,-14,1,-13,1,-16,1
1022,-3,1,-11,1,-8,1,7,1,2,1,-10,1,0,1,-14,1,-68,1,-15,1,-14,1,-17,1
1023,-3,1,-11,1,-8,1,7,1,2,1,-10,1,1,1,-13,1,-68,1,-14,1,-13,1,-16,1
1024,-3,1,-10,1,-7,1,6,1,2,1,-9,1,1,1,-14,1,-67,1,-13,1,-12,1,-16,1
1025,-4,1,-10,1,-6,1,7,1,1,1,-8,1,0,1,-15,1,-68,1,-14,1,-12,1,-18,1
1026,-5,1,-10,1,-5,1,7,1,0,1,-8,1,1,1,-16,1,-69,1,-15,1,-12,1,-19,1
1027,-5,1,-8,1,-3,1,6,1,-1,1,-6,1,2,1,-15,1,-68,1,-14,1,-11,1,-19,1
1028,-6,1,-9,1,-3,1,7,1,-2,1,-6,1,2,1,-14,1,-69,1,-14,1,-10,1,-18,1
1029,-7,1,-7,1,0,1,7,1,-4,1,-4,1,1,1,-14,1,-70,1,-15,1,-11,1,-18,1
1030,-11,1,-7,1,4,1,9,1,-8,1,-2,1,2,1,-14,1,-68,1,-14,1,-9,1,-17,1
1031,-14,1,-6,1,8,1,10,1,-11,1,1,1,3,1,-12,1,-67,1,-12,1,-7,1,-15,1
1032,-13,1,0,1,13,1,6,1,-13,1,6,1,7,1,-8,1,-62,1,-8,1,-1,1,-10,1
1033,-14,1,3,1,17,1,5,1,-15,1,10,1,11,1,-2,1,-54,1,-1,1,4,1,-4,1
1034,-17,1,5,1,22,1,6,1,-19,1,13,1,14,1,2,1,-49,1,5,1,13,1,2,1
1035,-16,1,9,1,25,1,3,1,-20,1,17,1,16,1,10,1,-39,1,18,1,26,1,15,1
1036,-11,1,12,1,23,1,0,1,-17,1,17,1,18,1,23,1,-25,1,36,1,45,1,33,1
1037,-3,1,15,1,18,1,-6,1,-10,1,16,1,18,1,42,1,-5,1,62,1,72,1,58,1
1038,6,1,19,1,13,1,-12,1,-3,1,16,1,17,1,65,1,18,1,94,1,104,1,90,1
1039,17,1,22,1,5,1,-19,1,6,1,14,1,15,1,87,1,43,1,129,1,141,1,127,1
1040,31,1,26,1,-5,1,-28,1,18,1,11,1,12,1,104,1,66,1,163,1,179,1,168,1
1041,47,1,30,1,-17,1,-38,1,32,1,7,1,6,1,116,1,88,1,199,1,219,1,212,1
1042,65,1,35,1,-30,1,-50,1,48,1,3,1,-3,1,124,1,109,1,234,1,259,1,256,1
1043,88,1,40,1,-48,1,-64,1,68,1,-4,1,-13,1,126,1,125,1,265,1,295,1,296,1
1044,112,1,43,1,-69,1,-77,1,91,1,-13,1,-25,1,122,1,134,1,287,1,319,1,325,1
1045,133,1,44,1,-89,1,-88,1,111,1,-22,1,-37,1,110,1,132,1,291,1,321,1,329,1
1046,149,1,38,1,-111,1,-93,1,130,1,-36,1,-50,1,89,1,117,1,277,1,296,1,305,1
1047,160,1,34,1,-126,1,-97,1,143,1,-46,1,-60,1,60,1,94,1,250,1,259,1,264,1
1048,166,1,35,1,-131,1,-100,1,149,1,-48,1,-67,1,24,1,64,1,214,1,215,1,217,1
1049,167,1,35,1,-132,1,-101,1,150,1,-48,1,-75,1,-19,1,27,1,173,1,167,1,166,1
1050,164,1,30,1,-134,1,-97,1,149,1,-52,1,-85,1,-66,1,-15,1,125,1,116,1,113,1
1051,158,1,24,1,-134,1,-91,1,146,1,-55,1,-91,1,-113,1,-64,1,70,1,64,1,62,1
1052,152,1,15,1,-137,1,-83,1,145,1,-61,1,-96,1,-159,1,-116,1,12,1,13,1,15,1
1053,145,1,8,1,-137,1,-76,1,141,1,-64,1,-102,1,-201,1,-166,1,-43,1,-34,1,-26,1
1054,127,1,5,1,-122,1,-66,1,125,1,-58,1,-102,1,-237,1,-209,1,-93,1,-76,1,-63,1
1055,105,1,7,1,-98,1,-56,1,102,1,-45,1,-99,1,-266,1,-247,1,-141,1,-114,1,-100,1
1056,77,1,4,1,-73,1,-40,1,75,1,-34,1,-95,1,-290,1,-277,1,-179,1,-142,1,-130,1
1057,51,1,-3,1,-54,1,-24,1,52,1,-28,1,-91,1,-305,1,-297,1,-204,1,-161,1,-149,1
1058,33,1,-11,1,-44,1,-11,1,38,1,-27,1,-89,1,-312,1,-311,1,-220,1,-172,1,-162,1
1059,18,1,-22,1,-40,1,2,1,29,1,-31,1,-84,1,-308,1,-314,1,-226,1,-178,1,-168,1
1060,8,1,-32,1,-40,1,12,1,24,1,-36,1,-76,1,-292,1,-310,1,-223,1,-177,1,-168,1
1061,3,1,-40,1,-43,1,18,1,23,1,-41,1,-67,1,-272,1,-301,1,-214,1,-174,1,-165,1
1062,0,1,-44,1,-44,1,22,1,22,1,-44,1,-61,1,-250,1,-288,1,-202,1,-166,1,-158,1
1063,-1,1,-41,1,-40,1,21,1,19,1,-41,1,-58,1,-224,1,-270,1,-185,1,-153,1,-147,1
1064,0,1,-37,1,-37,1,18,1,18,1,-37,1,-54,1,-196,1,-247,1,-165,1,-137,1,-132,1
1065,1,1,-30,1,-31,1,14,1,16,1,-30,1,-48,1,-168,1,-224,1,-143,1,-118,1,-117,1
1066,3,1,-24,1,-27,1,10,1,15,1,-25,1,-42,1,-141,1,-200,1,-121,1,-99,1,-99,1
1067,3,1,-19,1,-22,1,8,1,12,1,-20,1,-37,1,-117,1,-179,1,-101,1,-81,1,-83,1
1068,2,1,-15,1,-17,1,6,1,9,1,-16,1,-33,1,-97,1,-161,1,-84,1,-65,1,-71,1
1069,0,1,-13,1,-13,1,6,1,6,1,-13,1,-28,1,-80,1,-146,1,-69,1,-52,1,-60,1
1070,0,1,-10,1,-10,1,5,1,5,1,-10,1,-23,1,-66,1,-134,1,-58,1,-44,1,-53,1
1071,2,1,-8,1,-10,1,3,1,6,1,-9,1,-18,1,-56,1,-128,1,-51,1,-39,1,-49,1
1072,0,1,-9,1,-9,1,4,1,4,1,-9,1,-13,1,-47,1,-124,1,-47,1,-36,1,-46,1
1073,1,1,-11,1,-12,1,5,1,6,1,-11,1,-9,1,-41,1,-120,1,-44,1,-34,1,-43,1
1074,3,1,-11,1,-14,1,4,1,8,1,-12,1,-5,1,-35,1,-117,1,-40,1,-32,1,-41,1
1075,3,1,-13,1,-16,1,5,1,9,1,-14,1,-2,1,-29,1,-112,1,-37,1,-29,1,-38,1
1076,1,1,-15,1,-16,1,7,1,8,1,-15,1,0,1,-24,1,-107,1,-32,1,-25,1,-35,1
1077,0,1,-15,1,-15,1,7,1,7,1,-15,1,0,1,-19,1,-103,1,-29,1,-22,1,-33,1
1078,-1,1,-16,1,-15,1,8,1,7,1,-16,1,0,1,-15,1,-99,1,-24,1,-19,1,-31,1
1079,-1,1,-15,1,-14,1,8,1,6,1,-15,1,0,1,-12,1,-97,1,-22,1,-18,1,-29,1
1080,-1,1,-15,1,-14,1,8,1,6,1,-15,1,0,1,-11,1,-97,1,-20,1,-17,1,-29,1
1081,-1,1,-14,1,-13,1,7,1,6,1,-14,1,1,1,-10,1,-96,1,-19,1,-17,1,-29,1
1082,-1,1,-15,1,-14,1,8,1,6,1,-15,1,2,1,-10,1,-97,1,-20,1,-16,1,-29,1
1083,-1,1,-15,1,-14,1,8,1,6,1,-15,1,2,1,-10,1,-97,1,-20,1,-17,1,-29,1
1084,-1,1,-14,1,-13,1,7,1,6,1,-14,1,3,1,-10,1,-96,1,-20,1,-16,1,-29,1
1085,0,1,-15,1,-15,1,7,1,7,1,-15,1,4,1,-9,1,-95,1,-19,1,-14,1,-27,1
1086,1,1,-13,1,-14,1,6,1,7,1,-13,1,5,1,-7,1,-93,1,-18,1,-13,1,-25,1
1087,0,1,-12,1,-12,1,6,1,6,1,-12,1,5,1,-6,1,-91,1,-16,1,-11,1,-25,1
1088,-1,1,-12,1,-11,1,6,1,5,1,-12,1,5,1,-4,1,-89,1,-15,1,-11,1,-24,1
1089,-2,1,-12,1,-10,1,7,1,4,1,-11,1,4,1,-4,1,-89,1,-15,1,-10,1,-26,1
1090,0,1,-11,1,-11,1,5,1,5,1,-11,1,3,1,-4,1,-89,1,-15,1,-11,1,-28,1
1091,1,1,-9,1,-10,1,4,1,5,1,-9,1,4,1,-4,1,-89,1,-15,1,-10,1,-28,1
1092,-1,1,-8,1,-7,1,4,1,3,1,-8,1,5,1,-3,1,-87,1,-14,1,-10,1,-27,1
1093,0,1,-9,1,-9,1,4,1,4,1,-9,1,5,1,-2,1,-87,1,-14,1,-11,1,-26,1
1094,1,1,-11,1,-12,1,5,1,6,1,-11,1,4,1,-2,1,-89,1,-16,1,-11,1,-26,1
1095,0,1,-12,1,-12,1,6,1,6,1,-12,1,5,1,-1,1,-89,1,-16,1,-10,1,-25,1
1096,0,1,-13,1,-13,1,6,1,6,1,-13,1,6,1,-1,1,-89,1,-15,1,-10,1,-25,1
1097,0,1,-15,1,-15,1,7,1,7,1,-15,1,6,1,-2,1,-89,1,-15,1,-10,1,-26,1
1098,2,1,-13,1,-15,1,5,1,8,1,-14,1,5,1,-1,1,-88,1,-13,1,-7,1,-25,1
1099,4,1,-11,1,-15,1,3,1,9,1,-13,1,5,1,-1,1,-89,1,-13,1,-8,1,-25,1
1100,7,1,-8,1,-15,1,0,1,11,1,-11,1,4,1,0,1,-87,1,-11,1,-5,1,-23,1
1101,7,1,-8,1,-15,1,0,1,11,1,-11,1,4,1,0,1,-86,1,-11,1,-5,1,-21,1
1102,1,1,-12,1,-13,1,5,1,7,1,-12,1,5,1,1,1,-86,1,-12,1,-5,1,-20,1
1103,1,1,-13,1,-14,1,6,1,7,1,-13,1,4,1,2,1,-87,1,-12,1,-6,1,-20,1
1104,2,1,-15,1,-17,1,6,1,9,1,-16,1,5,1,2,1,-88,1,-13,1,-8,1,-20,1
1105,4,1,-17,1,-21,1,6,1,12,1,-19,1,4,1,1,1,-89,1,-13,1,-7,1,-21,1
1106,4,1,-15,1,-19,1,5,1,11,1,-17,1,4,1,2,1,-90,1,-11,1,-7,1,-20,1
1107,5,1,-12,1,-17,1,3,1,11,1,-14,1,3,1,1,1,-90,1,-10,1,-6,1,-20,1
1108,5,1,-11,1,-16,1,3,1,10,1,-13,1,4,1,2,1,-91,1,-9,1,-6,1,-19,1
1109,5,1,-12,1,-17,1,3,1,11,1,-14,1,4,1,3,1,-91,1,-9,1,-5,1,-18,1
1110,4,1,-12,1,-16,1,4,1,10,1,-14,1,5,1,4,1,-90,1,-8,1,-5,1,-18,1
1111,4,1,-12,1,-16,1,4,1,10,1,-14,1,5,1,5,1,-91,1,-7,1,-5,1,-18,1
1112,4,1,-14,1,-18,1,5,1,11,1,-16,1,6,1,7,1,-90,1,-5,1,-5,1,-17,1
1113,6,1,-13,1,-19,1,3,1,12,1,-16,1,6,1,8,1,-90,1,-5,1,-5,1,-16,1
1114,7,1,-12,1,-19,1,2,1,13,1,-15,1,6,1,9,1,-90,1,-4,1,-4,1,-17,1
1115,7,1,-11,1,-18,1,2,1,12,1,-14,1,6,1,9,1,-90,1,-4,1,-5,1,-17,1
1116,9,1,-9,1,-18,1,0,1,13,1,-13,1,6,1,10,1,-90,1,-3,1,-4,1,-17,1
1117,9,1,-9,1,-18,1,0,1,13,1,-13,1,5,1,9,1,-91,1,-3,1,-4,1,-17,1
1118,9,1,-9,1,-18,1,0,1,13,1,-13,1,4,1,9,1,-91,1,-4,1,-3,1,-17,1
1119,9,1,-9,1,-18,1,0,1,13,1,-13,1,4,1,9,1,-91,1,-4,1,-3,1,-17,1
1120,8,1,-10,1,-18,1,1,1,13,1,-14,1,4,1,10,1,-90,1,-3,1,-2,1,-16,1
1121,9,1,-7,1,-16,1,-1,1,12,1,-11,1,3,1,11,1,-90,1,-3,1,-2,1,-16,1
1122,7,1,-8,1,-15,1,0,1,11,1,-11,1,3,1,12,1,-89,1,-3,1,-3,1,-15,1
1123,5,1,-11,1,-16,1,3,1,10,1,-13,1,3,1,13,1,-89,1,-3,1,-2,1,-15,1
1124,7,1,-10,1,-17,1,1,1,12,1,-13,1,3,1,13,1,-89,1,-2,1,-2,1,-13,1
1125,10,1,-7,1,-17,1,-1,1,13,1,-12,1,4,1,15,1,-87,1,-1,1,0,1,-12,1
1126,11,1,-6,1,-17,1,-2,1,14,1,-11,1,4,1,16,1,-87,1,1,1,-1,1,-13,1
1127,12,1,-6,1,-18,1,-3,1,15,1,-12,1,3,1,16,1,-87,1,1,1,-1,1,-12,1
1128,13,1,-8,1,-21,1,-2,1,17,1,-14,1,2,1,16,1,-87,1,2,1,0,1,-12,1
1129,12,1,-9,1,-21,1,-1,1,16,1,-15,1,2,1,17,1,-86,1,4,1,0,1,-11,1
1130,13,1,-11,1,-24,1,-1,1,18,1,-17,1,1,1,18,1,-86,1,5,1,0,1,-11,1
1131,14,1,-10,1,-24,1,-2,1,19,1,-17,1,1,1,19,1,-85,1,6,1,0,1,-10,1
1132,13,1,-9,1,-22,1,-2,1,17,1,-15,1,3,1,21,1,-83,1,7,1,1,1,-7,1
1133,13,1,-8,1,-21,1,-2,1,17,1,-14,1,4,1,22,1,-83,1,8,1,3,1,-6,1
1134,15,1,-9,1,-24,1,-3,1,19,1,-16,1,5,1,24,1,-82,1,9,1,3,1,-5,1
1135,18,1,-6,1,-24,1,-6,1,21,1,-15,1,5,1,25,1,-82,1,10,1,4,1,-5,1
1136,19,1,-2,1,-21,1,-8,1,20,1,-11,1,3,1,25,1,-82,1,11,1,3,1,-5,1
1137,15,1,-7,1,-22,1,-4,1,18,1,-14,1,1,1,26,1,-83,1,11,1,3,1,-5,1
1138,16,1,-7,1,-23,1,-4,1,19,1,-15,1,0,1,27,1,-83,1,13,1,3,1,-4,1
1139,18,1,-6,1,-24,1,-6,1,21,1,-15,1,0,1,29,1,-83,1,15,1,3,1,-3,1
1140,20,1,-6,1,-26,1,-7,1,23,1,-16,1,0,1,31,1,-81,1,17,1,4,1,-1,1
1141,20,1,-7,1,-27,1,-6,1,23,1,-17,1,0,1,33,1,-81,1,17,1,3,1,0,1
1142,23,1,-7,1,-30,1,-8,1,26,1,-18,1,0,1,35,1,-79,1,18,1,4,1,0,1
1143,23,1,-5,1,-28,1,-9,1,25,1,-16,1,0,1,37,1,-79,1,19,1,4,1,0,1
1144,24,1,-3,1,-27,1,-10,1,25,1,-15,1,-1,1,38,1,-79,1,19,1,5,1,0,1
1145,26,1,0,1,-26,1,-13,1,26,1,-13,1,-2,1,39,1,-78,1,21,1,6,1,2,1
1146,28,1,1,1,-27,1,-14,1,28,1,-13,1,-2,1,41,1,-76,1,25,1,9,1,4,1
1147,27,1,0,1,-27,1,-13,1,27,1,-13,1,-2,1,44,1,-74,1,29,1,12,1,6,1
1148,25,1,-2,1,-27,1,-11,1,26,1,-14,1,-1,1,46,1,-72,1,31,1,13,1,8,1
1149,27,1,-3,1,-30,1,-12,1,28,1,-16,1,-2,1,48,1,-70,1,33,1,16,1,10,1
1150,28,1,-3,1,-31,1,-12,1,29,1,-17,1,-2,1,51,1,-67,1,36,1,18,1,13,1
1151,32,1,-4,1,-36,1,-14,1,34,1,-20,1,-3,1,54,1,-65,1,38,1,19,1,15,1
1152,37,1,-3,1,-40,1,-17,1,38,1,-21,1,-3,1,57,1,-63,1,40,1,19,1,16,1
1153,38,1,-3,1,-41,1,-17,1,39,1,-22,1,-2,1,61,1,-61,1,43,1,21,1,18,1
1154,38,1,-4,1,-42,1,-17,1,40,1,-23,1,-2,1,63,1,-59,1,45,1,22,1,19,1
1155,40,1,-2,1,-42,1,-19,1,41,1,-22,1,-3,1,66,1,-57,1,48,1,23,1,20,1
1156,42,1,0,1,-42,1,-21,1,42,1,-21,1,-3,1,69,1,-55,1,51,1,26,1,21,1
1157,42,1,0,1,-42,1,-21,1,42,1,-21,1,-4,1,72,1,-52,1,55,1,27,1,23,1
1158,43,1,1,1,-42,1,-22,1,43,1,-20,1,-4,1,75,1,-50,1,57,1,29,1,23,1
1159,44,1,0,1,-44,1,-22,1,44,1,-22,1,-6,1,77,1,-48,1,59,1,30,1,24,1
1160,45,1,-1,1,-46,1,-22,1,45,1,-23,1,-8,1,79,1,-47,1,60,1,32,1,25,1
1161,45,1,-1,1,-46,1,-22,1,45,1,-23,1,-7,1,83,1,-44,1,63,1,34,1,27,1
1162,48,1,0,1,-48,1,-24,1,48,1,-24,1,-8,1,85,1,-41,1,65,1,36,1,29,1
1163,50,1,2,1,-48,1,-26,1,49,1,-23,1,-9,1,88,1,-39,1,68,1,39,1,30,1
1164,50,1,3,1,-47,1,-26,1,49,1,-22,1,-8,1,90,1,-37,1,71,1,41,1,32,1
1165,52,1,1,1,-51,1,-26,1,52,1,-25,1,-8,1,93,1,-36,1,73,1,43,1,35,1
1166,54,1,2,1,-52,1,-28,1,53,1,-25,1,-9,1,93,1,-35,1,76,1,44,1,36,1
1167,56,1,4,1,-52,1,-30,1,54,1,-24,1,-9,1,94,1,-33,1,77,1,44,1,36,1
1168,55,1,5,1,-50,1,-30,1,53,1,-22,1,-8,1,97,1,-32,1,79,1,46,1,37,1
1169,56,1,5,1,-51,1,-30,1,54,1,-23,1,-8,1,99,1,-31,1,80,1,47,1,37,1
1170,53,1,2,1,-51,1,-27,1,52,1,-24,1,-7,1,100,1,-30,1,82,1,48,1,37,1
1171,54,1,2,1,-52,1,-28,1,53,1,-25,1,-7,1,102,1,-30,1,83,1,48,1,37,1
1172,55,1,3,1,-52,1,-29,1,54,1,-24,1,-9,1,102,1,-30,1,83,1,47,1,36,1
1173,57,1,4,1,-53,1,-30,1,55,1,-24,1,-10,1,102,1,-30,1,83,1,48,1,36,1
1174,58,1,5,1,-53,1,-31,1,56,1,-24,1,-10,1,103,1,-29,1,84,1,48,1,37,1
1175,58,1,5,1,-53,1,-31,1,56,1,-24,1,-9,1,103,1,-29,1,85,1,49,1,38,1
1176,58,1,4,1,-54,1,-31,1,56,1,-25,1,-10,1,103,1,-30,1,85,1,50,1,39,1
1177,60,1,6,1,-54,1,-33,1,57,1,-24,1,-10,1,103,1,-30,1,84,1,49,1,39,1
1178,60,1,7,1,-53,1,-33,1,57,1,-23,1,-9,1,102,1,-32,1,83,1,49,1,39,1
1179,58,1,6,1,-52,1,-32,1,55,1,-23,1,-9,1,100,1,-33,1,82,1,49,1,39,1
1180,55,1,3,1,-52,1,-29,1,54,1,-24,1,-10,1,99,1,-35,1,80,1,47,1,37,1
1181,53,1,4,1,-49,1,-28,1,51,1,-22,1,-11,1,97,1,-37,1,78,1,46,1,36,1
1182,52,1,3,1,-49,1,-27,1,51,1,-23,1,-10,1,96,1,-38,1,78,1,46,1,37,1
1183,52,1,2,1,-50,1,-27,1,51,1,-24,1,-10,1,94,1,-40,1,76,1,44,1,35,1
1184,52,1,3,1,-49,1,-27,1,51,1,-23,1,-9,1,90,1,-44,1,74,1,41,1,33,1
1185,50,1,4,1,-46,1,-27,1,48,1,-21,1,-8,1,86,1,-47,1,72,1,38,1,31,1
1186,50,1,6,1,-44,1,-28,1,47,1,-19,1,-7,1,83,1,-49,1,70,1,37,1,28,1
1187,49,1,8,1,-41,1,-28,1,45,1,-16,1,-7,1,77,1,-53,1,65,1,34,1,26,1
1188,47,1,7,1,-40,1,-27,1,44,1,-16,1,-9,1,71,1,-57,1,61,1,30,1,23,1
1189,45,1,4,1,-41,1,-24,1,43,1,-18,1,-8,1,68,1,-61,1,58,1,30,1,23,1
1190,44,1,4,1,-40,1,-24,1,42,1,-18,1,-8,1,64,1,-64,1,55,1,28,1,22,1
1191,42,1,6,1,-36,1,-24,1,39,1,-15,1,-8,1,59,1,-69,1,49,1,25,1,20,1
1192,38,1,6,1,-32,1,-22,1,35,1,-13,1,-7,1,54,1,-73,1,45,1,21,1,17,1
1193,35,1,4,1,-31,1,-19,1,33,1,-13,1,-5,1,52,1,-76,1,44,1,20,1,16,1
1194,34,1,4,1,-30,1,-19,1,32,1,-13,1,-4,1,47,1,-79,1,40,1,18,1,13,1
1195,33,1,3,1,-30,1,-18,1,32,1,-13,1,-4,1,42,1,-85,1,36,1,14,1,9,1
1196,29,1,0,1,-29,1,-14,1,29,1,-14,1,-4,1,37,1,-89,1,32,1,13,1,7,1
1197,28,1,0,1,-28,1,-14,1,28,1,-14,1,-4,1,33,1,-93,1,28,1,9,1,4,1
1198,27,1,0,1,-27,1,-13,1,27,1,-13,1,-3,1,30,1,-97,1,26,1,8,1,4,1
1199,25,1,0,1,-25,1,-12,1,25,1,-12,1,-4,1,27,1,-101,1,22,1,4,1,1,1
1200,25,1,0,1,-25,1,-12,1,25,1,-12,1,-5,1,23,1,-105,1,18,1,0,1,-1,1
1201,23,1,1,1,-22,1,-12,1,23,1,-10,1,-5,1,20,1,-109,1,15,1,-3,1,-3,1
1202,20,1,0,1,-20,1,-10,1,20,1,-10,1,-4,1,18,1,-111,1,13,1,-5,1,-4,1
1203,17,1,-2,1,-19,1,-7,1,18,1,-10,1,-2,1,15,1,-113,1,11,1,-6,1,-6,1
1204,15,1,-3,1,-18,1,-6,1,16,1,-10,1,-1,1,14,1,-114,1,9,1,-7,1,-6,1
1205,13,1,-4,1,-17,1,-4,1,15,1,-10,1,0,1,12,1,-116,1,7,1,-7,1,-7,1
1206,12,1,-5,1,-17,1,-3,1,14,1,-11,1,0,1,10,1,-119,1,5,1,-8,1,-7,1
1207,14,1,-5,1,-19,1,-4,1,16,1,-12,1,0,1,7,1,-122,1,2,1,-11,1,-9,1
1208,13,1,-6,1,-19,1,-3,1,16,1,-12,1,0,1,4,1,-125,1,0,1,-12,1,-11,1
1209,11,1,-5,1,-16,1,-3,1,13,1,-10,1,0,1,3,1,-128,1,-2,1,-14,1,-13,1
1210,13,1,-2,1,-15,1,-5,1,14,1,-8,1,-1,1,1,1,-131,1,-3,1,-15,1,-14,1
1211,11,1,-2,1,-13,1,-4,1,12,1,-7,1,-2,1,0,1,-133,1,-5,1,-17,1,-16,1
1212,9,1,-3,1,-12,1,-3,1,10,1,-7,1,-2,1,-2,1,-135,1,-7,1,-18,1,-17,1
1213,10,1,-5,1,-15,1,-2,1,12,1,-10,1,-1,1,-2,1,-136,1,-7,1,-19,1,-18,1
1214,9,1,-4,1,-13,1,-2,1,11,1,-8,1,-1,1,-3,1,-138,1,-8,1,-20,1,-18,1
1215,7,1,-4,1,-11,1,-1,1,9,1,-7,1,-1,1,-4,1,-138,1,-10,1,-20,1,-19,1
1216,6,1,-5,1,-11,1,0,1,8,1,-8,1,-1,1,-5,1,-140,1,-12,1,-23,1,-21,1
1217,7,1,-6,1,-13,1,0,1,10,1,-9,1,-1,1,-6,1,-144,1,-14,1,-24,1,-23,1
1218,6,1,-6,1,-12,1,0,1,9,1,-9,1,-1,1,-6,1,-144,1,-15,1,-25,1,-23,1
1219,5,1,-7,1,-12,1,1,1,8,1,-9,1,0,1,-6,1,-145,1,-14,1,-25,1,-22,1
1220,5,1,-8,1,-13,1,1,1,9,1,-10,1,0,1,-7,1,-146,1,-15,1,-25,1,-23,1
1221,5,1,-7,1,-12,1,1,1,8,1,-9,1,0,1,-6,1,-146,1,-15,1,-25,1,-23,1
1222,7,1,-5,1,-12,1,-1,1,9,1,-8,1,0,1,-6,1,-147,1,-15,1,-26,1,-24,1
1223,6,1,-5,1,-11,1,0,1,8,1,-8,1,-2,1,-8,1,-148,1,-16,1,-27,1,-26,1
1224,6,1,-4,1,-10,1,-1,1,8,1,-7,1,-2,1,-7,1,-148,1,-16,1,-27,1,-26,1
1225,6,1,-4,1,-10,1,-1,1,8,1,-7,1,0,1,-7,1,-148,1,-16,1,-27,1,-27,1
1226,5,1,-4,1,-9,1,0,1,7,1,-6,1,0,1,-8,1,-151,1,-19,1,-29,1,-29,1
1227,4,1,-4,1,-8,1,0,1,6,1,-6,1,0,1,-9,1,-152,1,-20,1,-29,1,-28,1
1228,3,1,-5,1,-8,1,1,1,5,1,-6,1,0,1,-9,1,-152,1,-19,1,-29,1,-27,1
1229,4,1,-6,1,-10,1,1,1,7,1,-8,1,1,1,-9,1,-153,1,-18,1,-27,1,-25,1
1230,6,1,-5,1,-11,1,0,1,8,1,-8,1,0,1,-9,1,-153,1,-18,1,-27,1,-25,1
1231,7,1,-5,1,-12,1,-1,1,9,1,-8,1,0,1,-10,1,-155,1,-19,1,-28,1,-26,1
1232,9,1,-5,1,-14,1,-2,1,11,1,-9,1,0,1,-8,1,-153,1,-17,1,-28,1,-25,1
1233,10,1,-4,1,-14,1,-3,1,12,1,-9,1,-1,1,-7,1,-152,1,-17,1,-28,1,-25,1
1234,8,1,-5,1,-13,1,-1,1,10,1,-9,1,-1,1,-7,1,-153,1,-18,1,-28,1,-26,1
1235,4,1,-7,1,-11,1,1,1,7,1,-9,1,-1,1,-8,1,-154,1,-18,1,-30,1,-27,1
1236,4,1,-6,1,-10,1,1,1,7,1,-8,1,-1,1,-8,1,-154,1,-18,1,-29,1,-28,1
1237,5,1,-4,1,-9,1,0,1,7,1,-6,1,-1,1,-8,1,-156,1,-19,1,-29,1,-28,1
1238,4,1,-3,1,-7,1,0,1,5,1,-5,1,-1,1,-8,1,-157,1,-19,1,-30,1,-28,1
1239,3,1,-5,1,-8,1,1,1,5,1,-6,1,0,1,-9,1,-158,1,-19,1,-29,1,-29,1
1240,3,1,-4,1,-7,1,0,1,5,1,-5,1,0,1,-9,1,-158,1,-19,1,-29,1,-29,1
1241,5,1,-4,1,-9,1,0,1,7,1,-6,1,0,1,-8,1,-158,1,-19,1,-29,1,-28,1
1242,7,1,-5,1,-12,1,-1,1,9,1,-8,1,0,1,-8,1,-159,1,-20,1,-29,1,-29,1
1243,7,1,-6,1,-13,1,0,1,10,1,-9,1,-1,1,-9,1,-160,1,-21,1,-31,1,-29,1
1244,9,1,-6,1,-15,1,-1,1,12,1,-10,1,0,1,-9,1,-161,1,-21,1,-31,1,-29,1
1245,7,1,-6,1,-13,1,0,1,10,1,-9,1,0,1,-8,1,-161,1,-20,1,-32,1,-29,1
1246,7,1,-6,1,-13,1,0,1,10,1,-9,1,1,1,-8,1,-162,1,-20,1,-31,1,-29,1
1247,5,1,-7,1,-12,1,1,1,8,1,-9,1,1,1,-9,1,-164,1,-21,1,-31,1,-29,1
1248,2,1,-6,1,-8,1,2,1,5,1,-7,1,0,1,-10,1,-166,1,-22,1,-32,1,-30,1
1249,2,1,-6,1,-8,1,2,1,5,1,-7,1,-1,1,-10,1,-166,1,-22,1,-30,1,-29,1
1250,4,1,-8,1,-12,1,2,1,8,1,-10,1,0,1,-8,1,-165,1,-20,1,-28,1,-27,1
1251,8,1,-8,1,-16,1,0,1,12,1,-12,1,0,1,-5,1,-163,1,-19,1,-27,1,-26,1
1252,9,1,-8,1,-17,1,0,1,13,1,-12,1,-1,1,-5,1,-165,1,-20,1,-28,1,-27,1
1253,10,1,-8,1,-18,1,-1,1,14,1,-13,1,-1,1,-4,1,-165,1,-20,1,-30,1,-27,1
1254,11,1,-4,1,-15,1,-3,1,13,1,-9,1,0,1,-4,1,-165,1,-19,1,-30,1,-28,1
1255,8,1,-3,1,-11,1,-2,1,9,1,-7,1,0,1,-5,1,-166,1,-19,1,-31,1,-28,1
1256,5,1,-5,1,-10,1,0,1,7,1,-7,1,0,1,-6,1,-166,1,-19,1,-32,1,-28,1
1257,4,1,-6,1,-10,1,1,1,7,1,-8,1,1,1,-6,1,-167,1,-20,1,-31,1,-28,1
1258,4,1,-6,1,-10,1,1,1,7,1,-8,1,1,1,-7,1,-167,1,-20,1,-32,1,-28,1
1259,4,1,-4,1,-8,1,0,1,6,1,-6,1,0,1,-8,1,-168,1,-20,1,-32,1,-29,1
1260,5,1,-2,1,-7,1,-1,1,6,1,-4,1,0,1,-10,1,-169,1,-22,1,-32,1,-30,1
1261,8,1,-3,1,-11,1,-2,1,9,1,-7,1,-1,1,-8,1,-169,1,-22,1,-32,1,-30,1
1262,9,1,-4,1,-13,1,-2,1,11,1,-8,1,-1,1,-7,1,-169,1,-22,1,-31,1,-30,1
1263,8,1,-2,1,-10,1,-3,1,9,1,-6,1,-2,1,-6,1,-170,1,-22,1,-31,1,-30,1
1264,8,1,-2,1,-10,1,-3,1,9,1,-6,1,-2,1,-6,1,-170,1,-21,1,-31,1,-29,1
1265,8,1,-1,1,-9,1,-3,1,8,1,-5,1,-2,1,-5,1,-171,1,-22,1,-31,1,-30,1
1266,8,1,0,1,-8,1,-4,1,8,1,-4,1,-1,1,-6,1,-172,1,-22,1,-32,1,-30,1
1267,10,1,1,1,-9,1,-5,1,10,1,-4,1,-1,1,-7,1,-172,1,-22,1,-32,1,-29,1
1268,11,1,3,1,-8,1,-7,1,10,1,-2,1,-1,1,-7,1,-173,1,-22,1,-32,1,-29,1
1269,7,1,3,1,-4,1,-5,1,6,1,0,1,-3,1,-7,1,-172,1,-23,1,-34,1,-30,1
1270,7,1,2,1,-5,1,-4,1,6,1,-1,1,-3,1,-6,1,-171,1,-21,1,-33,1,-29,1
1271,10,1,0,1,-10,1,-5,1,10,1,-5,1,-2,1,-4,1,-169,1,-18,1,-32,1,-27,1
1272,12,1,0,1,-12,1,-6,1,12,1,-6,1,-2,1,-5,1,-170,1,-18,1,-32,1,-27,1
1273,10,1,0,1,-10,1,-5,1,10,1,-5,1,-3,1,-7,1,-172,1,-19,1,-33,1,-29,1
1274,11,1,1,1,-10,1,-6,1,11,1,-4,1,-1,1,-8,1,-173,1,-19,1,-33,1,-28,1
1275,10,1,2,1,-8,1,-6,1,9,1,-3,1,-1,1,-8,1,-173,1,-19,1,-31,1,-28,1
1276,11,1,2,1,-9,1,-6,1,10,1,-3,1,-3,1,-8,1,-175,1,-19,1,-32,1,-27,1
1277,11,1,3,1,-8,1,-7,1,10,1,-2,1,-3,1,-7,1,-174,1,-18,1,-30,1,-26,1
1278,12,1,4,1,-8,1,-8,1,10,1,-2,1,-1,1,-5,1,-172,1,-17,1,-28,1,-24,1
1279,12,1,0,1,-12,1,-6,1,12,1,-6,1,0,1,-4,1,-172,1,-17,1,-28,1,-24,1
1280,10,1,-3,1,-13,1,-3,1,11,1,-8,1,-1,1,-5,1,-172,1,-18,1,-28,1,-24,1
1281,10,1,-4,1,-14,1,-3,1,12,1,-9,1,-2,1,-6,1,-173,1,-18,1,-29,1,-24,1
1282,9,1,-3,1,-12,1,-3,1,10,1,-7,1,-2,1,-6,1,-173,1,-18,1,-30,1,-24,1
1283,7,1,-3,1,-10,1,-2,1,8,1,-6,1,-3,1,-6,1,-173,1,-18,1,-29,1,-24,1
1284,6,1,-3,1,-9,1,-1,1,7,1,-6,1,-4,1,-6,1,-175,1,-18,1,-30,1,-25,1
1285,6,1,-2,1,-8,1,-2,1,7,1,-5,1,-3,1,-6,1,-175,1,-17,1,-28,1,-25,1
1286,6,1,-1,1,-7,1,-2,1,6,1,-4,1,-2,1,-6,1,-176,1,-17,1,-27,1,-26,1
1287,7,1,0,1,-7,1,-3,1,7,1,-3,1,-2,1,-6,1,-176,1,-17,1,-27,1,-27,1
1288,8,1,0,1,-8,1,-4,1,8,1,-4,1,-2,1,-4,1,-175,1,-15,1,-25,1,-26,1
1289,9,1,-1,1,-10,1,-4,1,9,1,-5,1,-2,1,-4,1,-175,1,-15,1,-25,1,-26,1
1290,10,1,-2,1,-12,1,-4,1,11,1,-7,1,-2,1,-4,1,-175,1,-17,1,-27,1,-26,1
1291,10,1,-2,1,-12,1,-4,1,11,1,-7,1,-2,1,-4,1,-177,1,-18,1,-27,1,-26,1
1292,10,1,-4,1,-14,1,-3,1,12,1,-9,1,-3,1,-4,1,-178,1,-19,1,-28,1,-26,1
1293,11,1,-3,1,-14,1,-4,1,12,1,-8,1,-3,1,-5,1,-178,1,-18,1,-28,1,-26,1
1294,11,1,-3,1,-14,1,-4,1,12,1,-8,1,-3,1,-6,1,-179,1,-18,1,-29,1,-26,1
1295,8,1,-3,1,-11,1,-2,1,9,1,-7,1,-3,1,-7,1,-179,1,-18,1,-28,1,-25,1
1296,7,1,-1,1,-8,1,-3,1,7,1,-4,1,-4,1,-7,1,-181,1,-18,1,-27,1,-26,1
1297,7,1,2,1,-5,1,-4,1,6,1,-1,1,-4,1,-8,1,-182,1,-18,1,-27,1,-26,1
1298,9,1,4,1,-5,1,-6,1,7,1,0,1,-4,1,-8,1,-182,1,-18,1,-27,1,-27,1
1299,10,1,4,1,-6,1,-7,1,8,1,-1,1,-4,1,-8,1,-182,1,-18,1,-27,1,-27,1
1300,11,1,4,1,-7,1,-7,1,9,1,-1,1,-4,1,-8,1,-183,1,-18,1,-28,1,-27,1
1301,11,1,6,1,-5,1,-8,1,8,1,1,1,-4,1,-8,1,-183,1,-18,1,-28,1,-27,1
1302,9,1,7,1,-2,1,-8,1,6,1,3,1,-4,1,-8,1,-183,1,-17,1,-28,1,-26,1
1303,9,1,9,1,0,1,-9,1,5,1,5,1,-5,1,-8,1,-183,1,-17,1,-29,1,-26,1
1304,11,1,8,1,-3,1,-9,1,7,1,3,1,-4,1,-8,1,-184,1,-18,1,-30,1,-26,1
1305,10,1,7,1,-3,1,-8,1,7,1,2,1,-5,1,-9,1,-187,1,-19,1,-32,1,-28,1
1306,9,1,5,1,-4,1,-7,1,7,1,1,1,-3,1,-10,1,-189,1,-19,1,-32,1,-28,1
1307,8,1,4,1,-4,1,-6,1,6,1,0,1,-2,1,-9,1,-190,1,-18,1,-30,1,-26,1
1308,10,1,2,1,-8,1,-6,1,9,1,-3,1,-1,1,-8,1,-190,1,-18,1,-30,1,-26,1
1309,10,1,1,1,-9,1,-5,1,10,1,-4,1,-1,1,-7,1,-190,1,-19,1,-31,1,-26,1
1310,10,1,-1,1,-11,1,-4,1,10,1,-6,1,-2,1,-7,1,-191,1,-19,1,-31,1,-26,1
1311,9,1,-2,1,-11,1,-3,1,10,1,-6,1,-3,1,-7,1,-192,1,-20,1,-32,1,-27,1
1312,7,1,-6,1,-13,1,0,1,10,1,-9,1,-2,1,-7,1,-191,1,-19,1,-31,1,-27,1
1313,7,1,-4,1,-11,1,-1,1,9,1,-7,1,-2,1,-8,1,-192,1,-20,1,-31,1,-27,1
1314,6,1,-1,1,-7,1,-2,1,6,1,-4,1,-1,1,-8,1,-192,1,-20,1,-30,1,-26,1
1315,6,1,-1,1,-7,1,-2,1,6,1,-4,1,0,1,-8,1,-192,1,-20,1,-29,1,-26,1
1316,5,1,0,1,-5,1,-2,1,5,1,-2,1,-1,1,-10,1,-194,1,-22,1,-32,1,-29,1
1317,4,1,2,1,-2,1,-3,1,3,1,0,1,-2,1,-12,1,-196,1,-24,1,-34,1,-29,1
1318,4,1,4,1,0,1,-4,1,2,1,2,1,-2,1,-12,1,-197,1,-23,1,-34,1,-30,1
1319,4,1,3,1,-1,1,-3,1,3,1,1,1,-3,1,-14,1,-199,1,-24,1,-35,1,-31,1
1320,4,1,2,1,-2,1,-3,1,3,1,0,1,-4,1,-14,1,-201,1,-24,1,-36,1,-31,1
1321,5,1,2,1,-3,1,-3,1,4,1,0,1,-4,1,-13,1,-200,1,-23,1,-34,1,-29,1
1322,7,1,1,1,-6,1,-4,1,7,1,-2,1,-3,1,-13,1,-200,1,-23,1,-34,1,-29,1
1323,8,1,1,1,-7,1,-4,1,8,1,-3,1,-2,1,-13,1,-200,1,-23,1,-34,1,-29,1
1324,8,1,0,1,-8,1,-4,1,8,1,-4,1,-2,1,-13,1,-200,1,-24,1,-34,1,-29,1
1325,7,1,0,1,-7,1,-3,1,7,1,-3,1,-1,1,-13,1,-200,1,-23,1,-33,1,-29,1
1326,6,1,-1,1,-7,1,-2,1,6,1,-4,1,-1,1,-12,1,-199,1,-22,1,-32,1,-28,1
1327,6,1,1,1,-5,1,-3,1,6,1,-2,1,-1,1,-11,1,-199,1,-22,1,-31,1,-28,1
1328,6,1,3,1,-3,1,-4,1,5,1,0,1,-1,1,-11,1,-200,1,-22,1,-32,1,-28,1
1329,6,1,4,1,-2,1,-5,1,4,1,1,1,-1,1,-11,1,-201,1,-23,1,-33,1,-30,1
1330,6,1,4,1,-2,1,-5,1,4,1,1,1,-2,1,-13,1,-203,1,-25,1,-34,1,-32,1
1331,5,1,1,1,-4,1,-3,1,5,1,-1,1,0,1,-13,1,-202,1,-25,1,-33,1,-31,1
1332,5,1,0,1,-5,1,-2,1,5,1,-2,1,1,1,-12,1,-201,1,-23,1,-32,1,-30,1
1333,4,1,-2,1,-6,1,-1,1,5,1,-4,1,0,1,-12,1,-201,1,-23,1,-32,1,-30,1
1334,4,1,0,1,-4,1,-2,1,4,1,-2,1,-1,1,-13,1,-203,1,-25,1,-33,1,-30,1
1335,6,1,2,1,-4,1,-4,1,5,1,-1,1,-2,1,-14,1,-203,1,-26,1,-33,1,-29,1
1336,5,1,3,1,-2,1,-4,1,4,1,1,1,-3,1,-14,1,-203,1,-25,1,-32,1,-29,1
1337,6,1,4,1,-2,1,-5,1,4,1,1,1,-2,1,-14,1,-202,1,-25,1,-31,1,-28,1
1338,7,1,3,1,-4,1,-5,1,6,1,0,1,-2,1,-13,1,-202,1,-24,1,-29,1,-28,1
1339,7,1,1,1,-6,1,-4,1,7,1,-2,1,-1,1,-14,1,-203,1,-24,1,-29,1,-28,1
1340,6,1,0,1,-6,1,-3,1,6,1,-3,1,1,1,-14,1,-203,1,-23,1,-29,1,-27,1
1341,3,1,-1,1,-4,1,-1,1,3,1,-2,1,2,1,-15,1,-203,1,-23,1,-28,1,-28,1
1342,4,1,3,1,-1,1,-3,1,3,1,1,1,1,1,-15,1,-203,1,-23,1,-29,1,-29,1
1343,6,1,5,1,-1,1,-5,1,4,1,2,1,0,1,-15,1,-204,1,-24,1,-30,1,-30,1
1344,5,1,6,1,1,1,-5,1,2,1,4,1,0,1,-14,1,-204,1,-24,1,-29,1,-29,1
1345,7,1,5,1,-2,1,-6,1,5,1,2,1,0,1,-15,1,-204,1,-25,1,-29,1,-29,1
1346,6,1,3,1,-3,1,-4,1,5,1,0,1,0,1,-14,1,-205,1,-25,1,-28,1,-28,1
1347,6,1,4,1,-2,1,-5,1,4,1,1,1,-2,1,-14,1,-205,1,-25,1,-27,1,-28,1
1348,6,1,4,1,-2,1,-5,1,4,1,1,1,-3,1,-15,1,-206,1,-26,1,-29,1,-29,1
1349,8,1,6,1,-2,1,-7,1,5,1,2,1,-2,1,-15,1,-206,1,-26,1,-29,1,-29,1
1350,6,1,3,1,-3,1,-4,1,5,1,0,1,-2,1,-14,1,-207,1,-25,1,-29,1,-29,1
1351,6,1,3,1,-3,1,-4,1,5,1,0,1,-3,1,-15,1,-208,1,-27,1,-30,1,-31,1
1352,4,1,2,1,-2,1,-3,1,3,1,0,1,-2,1,-15,1,-209,1,-27,1,-32,1,-32,1
1353,2,1,2,1,0,1,-2,1,1,1,1,1,-2,1,-15,1,-210,1,-28,1,-31,1,-31,1
1354,2,1,2,1,0,1,-2,1,1,1,1,1,-1,1,-15,1,-210,1,-28,1,-31,1,-31,1
1355,1,1,1,1,0,1,-1,1,1,1,1,1,-1,1,-16,1,-211,1,-29,1,-31,1,-31,1
1356,3,1,3,1,0,1,-3,1,2,1,2,1,0,1,-17,1,-212,1,-30,1,-31,1,-30,1
1357,3,1,4,1,1,1,-3,1,1,1,3,1,0,1,-16,1,-211,1,-28,1,-30,1,-28,1
1358,3,1,3,1,0,1,-3,1,2,1,2,1,0,1,-15,1,-210,1,-28,1,-29,1,-27,1
1359,1,1,2,1,1,1,-1,1,0,1,2,1,0,1,-14,1,-210,1,-28,1,-29,1,-26,1
1360,1,1,0,1,-1,1,0,1,1,1,0,1,1,1,-13,1,-209,1,-27,1,-28,1,-26,1
1361,1,1,0,1,-1,1,0,1,1,1,0,1,0,1,-13,1,-209,1,-27,1,-27,1,-26,1
1362,3,1,2,1,-1,1,-2,1,2,1,1,1,0,1,-12,1,-209,1,-25,1,-26,1,-25,1
1363,3,1,2,1,-1,1,-2,1,2,1,1,1,1,1,-13,1,-209,1,-25,1,-25,1,-25,1
1364,3,1,2,1,-1,1,-2,1,2,1,1,1,1,1,-13,1,-210,1,-25,1,-24,1,-25,1
1365,3,1,2,1,-1,1,-2,1,2,1,1,1,1,1,-13,1,-210,1,-25,1,-24,1,-25,1
1366,2,1,2,1,0,1,-2,1,1,1,1,1,2,1,-12,1,-209,1,-24,1,-24,1,-25,1
1367,2,1,2,1,0,1,-2,1,1,1,1,1,2,1,-12,1,-210,1,-25,1,-25,1,-25,1
1368,4,1,2,1,-2,1,-3,1,3,1,0,1,2,1,-14,1,-212,1,-26,1,-26,1,-27,1
1369,3,1,1,1,-2,1,-2,1,3,1,0,1,1,1,-14,1,-211,1,-27,1,-27,1,-28,1
1370,3,1,2,1,-1,1,-2,1,2,1,1,1,1,1,-14,1,-211,1,-27,1,-27,1,-28,1
1371,2,1,3,1,1,1,-2,1,1,1,2,1,1,1,-14,1,-210,1,-27,1,-27,1,-28,1
1372,2,1,5,1,3,1,-3,1,0,1,4,1,1,1,-16,1,-210,1,-28,1,-28,1,-29,1
1373,4,1,6,1,2,1,-5,1,1,1,4,1,0,1,-17,1,-211,1,-28,1,-28,1,-30,1
1374,4,1,4,1,0,1,-4,1,2,1,2,1,-2,1,-18,1,-212,1,-29,1,-29,1,-31,1
1375,3,1,4,1,1,1,-3,1,1,1,3,1,-2,1,-17,1,-212,1,-29,1,-29,1,-31,1
1376,3,1,4,1,1,1,-3,1,1,1,3,1,-1,1,-17,1,-211,1,-28,1,-28,1,-31,1
1377,5,1,5,1,0,1,-5,1,3,1,3,1,-1,1,-17,1,-213,1,-28,1,-29,1,-30,1
1378,6,1,5,1,-1,1,-5,1,4,1,2,1,-1,1,-16,1,-212,1,-28,1,-30,1,-30,1
1379,5,1,5,1,0,1,-5,1,3,1,3,1,0,1,-16,1,-211,1,-28,1,-30,1,-29,1
1380,2,1,4,1,2,1,-3,1,0,1,3,1,0,1,-16,1,-210,1,-26,1,-28,1,-28,1
1381,1,1,3,1,2,1,-2,1,0,1,3,1,1,1,-16,1,-208,1,-26,1,-27,1,-27,1
1382,3,1,4,1,1,1,-3,1,1,1,3,1,2,1,-16,1,-208,1,-26,1,-27,1,-27,1
1383,5,1,7,1,2,1,-6,1,2,1,5,1,2,1,-16,1,-207,1,-25,1,-26,1,-26,1
1384,6,1,9,1,3,1,-7,1,2,1,6,1,3,1,-16,1,-207,1,-25,1,-25,1,-26,1
1385,3,1,5,1,2,1,-4,1,1,1,4,1,2,1,-17,1,-207,1,-25,1,-26,1,-26,1
1386,0,1,0,1,0,1,0,1,0,1,0,1,2,1,-16,1,-208,1,-27,1,-27,1,-27,1
1387,1,1,-2,1,-3,1,0,1,2,1,-2,1,2,1,-15,1,-208,1,-27,1,-28,1,-27,1
1388,1,1,0,1,-1,1,0,1,1,1,0,1,2,1,-16,1,-208,1,-28,1,-30,1,-29,1
1389,2,1,0,1,-2,1,-1,1,2,1,-1,1,1,1,-14,1,-207,1,-28,1,-30,1,-29,1
1390,3,1,2,1,-1,1,-2,1,2,1,1,1,1,1,-15,1,-207,1,-29,1,-31,1,-30,1
1391,3,1,4,1,1,1,-3,1,1,1,3,1,0,1,-17,1,-207,1,-29,1,-32,1,-31,1
1392,3,1,5,1,2,1,-4,1,1,1,4,1,0,1,-18,1,-206,1,-28,1,-31,1,-31,1
1393,4,1,6,1,2,1,-5,1,1,1,4,1,1,1,-18,1,-205,1,-27,1,-31,1,-30,1
1394,3,1,4,1,1,1,-3,1,1,1,3,1,1,1,-18,1,-204,1,-26,1,-31,1,-30,1
1395,3,1,3,1,0,1,-3,1,2,1,2,1,2,1,-17,1,-203,1,-26,1,-30,1,-29,1
1396,2,1,2,1,0,1,-2,1,1,1,1,1,2,1,-17,1,-203,1,-26,1,-29,1,-29,1
1397,2,1,2,1,0,1,-2,1,1,1,1,1,2,1,-16,1,-202,1,-26,1,-29,1,-29,1
1398,4,1,1,1,-3,1,-2,1,4,1,-1,1,3,1,-15,1,-200,1,-25,1,-28,1,-29,1
1399,2,1,0,1,-2,1,-1,1,2,1,-1,1,2,1,-15,1,-199,1,-26,1,-27,1,-29,1
1400,1,1,3,1,2,1,-2,1,0,1,3,1,1,1,-15,1,-199,1,-26,1,-28,1,-30,1
1401,2,1,6,1,4,1,-4,1,-1,1,5,1,1,1,-16,1,-199,1,-27,1,-29,1,-30,1
1402,3,1,7,1,4,1,-5,1,0,1,6,1,0,1,-17,1,-199,1,-27,1,-29,1,-30,1
1403,4,1,6,1,2,1,-5,1,1,1,4,1,0,1,-18,1,-198,1,-27,1,-29,1,-30,1
1404,3,1,6,1,3,1,-4,1,0,1,5,1,0,1,-17,1,-195,1,-27,1,-29,1,-30,1
1405,2,1,4,1,2,1,-3,1,0,1,3,1,0,1,-18,1,-195,1,-27,1,-29,1,-29,1
1406,1,1,2,1,1,1,-1,1,0,1,2,1,1,1,-18,1,-193,1,-26,1,-28,1,-28,1
1407,1,1,0,1,-1,1,0,1,1,1,0,1,2,1,-18,1,-192,1,-25,1,-28,1,-27,1
1408,3,1,1,1,-2,1,-2,1,3,1,0,1,2,1,-18,1,-191,1,-25,1,-28,1,-27,1
1409,5,1,3,1,-2,1,-4,1,4,1,1,1,2,1,-18,1,-190,1,-25,1,-29,1,-27,1
1410,6,1,5,1,-1,1,-5,1,4,1,2,1,1,1,-18,1,-189,1,-25,1,-29,1,-26,1
1411,7,1,6,1,-1,1,-6,1,4,1,3,1,1,1,-18,1,-188,1,-25,1,-29,1,-26,1
1412,6,1,5,1,-1,1,-5,1,4,1,2,1,0,1,-18,1,-187,1,-25,1,-29,1,-25,1
1413,6,1,5,1,-1,1,-5,1,4,1,2,1,0,1,-18,1,-186,1,-25,1,-30,1,-27,1
1414,7,1,5,1,-2,1,-6,1,5,1,2,1,2,1,-17,1,-183,1,-24,1,-29,1,-27,1
1415,4,1,3,1,-1,1,-3,1,3,1,1,1,3,1,-17,1,-183,1,-24,1,-28,1,-27,1
1416,3,1,4,1,1,1,-3,1,1,1,3,1,3,1,-17,1,-181,1,-24,1,-28,1,-27,1
1417,3,1,7,1,4,1,-5,1,0,1,6,1,3,1,-17,1,-179,1,-24,1,-28,1,-27,1
1418,3,1,9,1,6,1,-6,1,-1,1,8,1,2,1,-17,1,-177,1,-24,1,-27,1,-27,1
1419,3,1,12,1,9,1,-7,1,-3,1,11,1,2,1,-16,1,-175,1,-23,1,-26,1,-27,1
1420,3,1,14,1,11,1,-8,1,-4,1,13,1,2,1,-16,1,-173,1,-23,1,-26,1,-26,1
1421,4,1,12,1,8,1,-8,1,-2,1,10,1,3,1,-15,1,-172,1,-23,1,-26,1,-25,1
1422,5,1,11,1,6,1,-8,1,0,1,9,1,4,1,-15,1,-171,1,-23,1,-26,1,-24,1
1423,7,1,10,1,3,1,-8,1,2,1,7,1,5,1,-13,1,-168,1,-23,1,-25,1,-23,1
1424,6,1,9,1,3,1,-7,1,2,1,6,1,6,1,-12,1,-165,1,-22,1,-25,1,-22,1
1425,5,1,10,1,5,1,-7,1,0,1,8,1,7,1,-12,1,-164,1,-21,1,-24,1,-22,1
1426,5,1,9,1,4,1,-7,1,1,1,7,1,8,1,-11,1,-161,1,-20,1,-22,1,-21,1
1427,7,1,10,1,3,1,-8,1,2,1,7,1,10,1,-9,1,-157,1,-16,1,-19,1,-18,1
1428,10,1,14,1,4,1,-12,1,3,1,9,1,10,1,-7,1,-153,1,-14,1,-17,1,-18,1
1429,11,1,16,1,5,1,-13,1,3,1,11,1,9,1,-7,1,-151,1,-15,1,-18,1,-19,1
1430,11,1,17,1,6,1,-14,1,3,1,12,1,9,1,-6,1,-149,1,-15,1,-19,1,-20,1
1431,10,1,17,1,7,1,-13,1,2,1,12,1,10,1,-5,1,-146,1,-13,1,-19,1,-18,1
1432,11,1,17,1,6,1,-14,1,3,1,12,1,10,1,-4,1,-143,1,-13,1,-18,1,-17,1
1433,14,1,16,1,2,1,-15,1,6,1,9,1,9,1,-3,1,-140,1,-13,1,-18,1,-17,1
1434,12,1,13,1,1,1,-12,1,6,1,7,1,10,1,-1,1,-135,1,-11,1,-18,1,-16,1
1435,12,1,12,1,0,1,-12,1,6,1,6,1,10,1,-1,1,-133,1,-11,1,-17,1,-16,1
1436,13,1,15,1,2,1,-14,1,6,1,9,1,10,1,0,1,-129,1,-11,1,-16,1,-16,1
1437,11,1,17,1,6,1,-14,1,3,1,12,1,10,1,1,1,-124,1,-10,1,-15,1,-14,1
1438,11,1,18,1,7,1,-14,1,2,1,13,1,12,1,3,1,-120,1,-9,1,-14,1,-12,1
1439,12,1,18,1,6,1,-15,1,3,1,12,1,10,1,2,1,-116,1,-9,1,-13,1,-12,1
1440,13,1,19,1,6,1,-16,1,4,1,13,1,8,1,2,1,-114,1,-8,1,-13,1,-11,1
1441,15,1,19,1,4,1,-17,1,6,1,12,1,5,1,0,1,-113,1,-9,1,-14,1,-11,1
1442,17,1,17,1,0,1,-17,1,9,1,9,1,3,1,-1,1,-110,1,-9,1,-15,1,-11,1
1443,19,1,17,1,-2,1,-18,1,11,1,8,1,0,1,-3,1,-108,1,-10,1,-15,1,-12,1
1444,18,1,15,1,-3,1,-16,1,11,1,6,1,0,1,-4,1,-103,1,-10,1,-16,1,-12,1
1445,15,1,12,1,-3,1,-13,1,9,1,5,1,-1,1,-4,1,-100,1,-11,1,-17,1,-13,1
1446,16,1,12,1,-4,1,-14,1,10,1,4,1,-3,1,-6,1,-98,1,-13,1,-17,1,-14,1
1447,15,1,12,1,-3,1,-13,1,9,1,5,1,-2,1,-8,1,-95,1,-14,1,-19,1,-15,1
1448,14,1,11,1,-3,1,-12,1,9,1,4,1,-2,1,-9,1,-93,1,-15,1,-20,1,-16,1
1449,14,1,13,1,-1,1,-13,1,8,1,6,1,-2,1,-11,1,-90,1,-16,1,-21,1,-17,1
1450,16,1,14,1,-2,1,-15,1,9,1,6,1,-2,1,-13,1,-87,1,-18,1,-22,1,-16,1
1451,15,1,11,1,-4,1,-13,1,10,1,4,1,-3,1,-13,1,-83,1,-19,1,-22,1,-16,1
1452,12,1,10,1,-2,1,-11,1,7,1,4,1,-4,1,-15,1,-78,1,-20,1,-23,1,-17,1
1453,12,1,9,1,-3,1,-10,1,8,1,3,1,-4,1,-15,1,-73,1,-21,1,-24,1,-19,1
1454,12,1,7,1,-5,1,-9,1,9,1,1,1,-3,1,-15,1,-68,1,-21,1,-25,1,-20,1
1455,12,1,7,1,-5,1,-9,1,9,1,1,1,-3,1,-16,1,-63,1,-22,1,-26,1,-21,1
1456,12,1,8,1,-4,1,-10,1,8,1,2,1,-4,1,-17,1,-58,1,-23,1,-27,1,-22,1
1457,12,1,4,1,-8,1,-8,1,10,1,-2,1,-3,1,-17,1,-52,1,-22,1,-25,1,-21,1
1458,13,1,2,1,-11,1,-7,1,12,1,-4,1,-3,1,-17,1,-47,1,-23,1,-26,1,-21,1
1459,13,1,3,1,-10,1,-8,1,12,1,-3,1,-4,1,-18,1,-41,1,-24,1,-27,1,-22,1
1460,14,1,2,1,-12,1,-8,1,13,1,-5,1,-3,1,-18,1,-35,1,-24,1,-28,1,-21,1
1461,12,1,2,1,-10,1,-7,1,11,1,-4,1,-4,1,-20,1,-29,1,-25,1,-28,1,-22,1
1462,10,1,2,1,-8,1,-6,1,9,1,-3,1,-4,1,-20,1,-22,1,-26,1,-29,1,-22,1
1463,9,1,4,1,-5,1,-6,1,7,1,0,1,-4,1,-19,1,-15,1,-26,1,-30,1,-22,1
1464,13,1,8,1,-5,1,-10,1,9,1,2,1,-2,1,-18,1,-7,1,-23,1,-28,1,-21,1
1465,13,1,7,1,-6,1,-10,1,10,1,1,1,-2,1,-17,1,0,1,-23,1,-28,1,-21,1
1466,9,1,6,1,-3,1,-7,1,6,1,2,1,-2,1,-19,1,6,1,-24,1,-29,1,-21,1
1467,6,1,6,1,0,1,-6,1,3,1,3,1,-3,1,-20,1,12,1,-26,1,-30,1,-23,1
1468,6,1,5,1,-1,1,-5,1,4,1,2,1,-3,1,-20,1,17,1,-27,1,-30,1,-24,1
1469,6,1,3,1,-3,1,-4,1,5,1,0,1,-3,1,-19,1,24,1,-28,1,-31,1,-25,1
1470,5,1,0,1,-5,1,-2,1,5,1,-2,1,-2,1,-18,1,32,1,-26,1,-30,1,-24,1
1471,6,1,0,1,-6,1,-3,1,6,1,-3,1,-2,1,-18,1,41,1,-26,1,-31,1,-24,1
1472,7,1,2,1,-5,1,-4,1,6,1,-1,1,-4,1,-19,1,50,1,-27,1,-32,1,-25,1
1473,8,1,3,1,-5,1,-5,1,7,1,-1,1,-5,1,-20,1,59,1,-27,1,-33,1,-27,1
1474,8,1,3,1,-5,1,-5,1,7,1,-1,1,-4,1,-20,1,69,1,-26,1,-34,1,-27,1
1475,9,1,6,1,-3,1,-7,1,6,1,2,1,-4,1,-20,1,78,1,-26,1,-34,1,-27,1
1476,9,1,8,1,-1,1,-8,1,5,1,4,1,-5,1,-21,1,86,1,-28,1,-35,1,-28,1
1477,5,1,3,1,-2,1,-4,1,4,1,1,1,-5,1,-22,1,94,1,-29,1,-36,1,-28,1
1478,5,1,0,1,-5,1,-2,1,5,1,-2,1,-2,1,-21,1,102,1,-29,1,-35,1,-26,1
1479,4,1,0,1,-4,1,-2,1,4,1,-2,1,-2,1,-20,1,111,1,-27,1,-33,1,-25,1
1480,4,1,2,1,-2,1,-3,1,3,1,0,1,-2,1,-21,1,119,1,-27,1,-33,1,-25,1
1481,4,1,4,1,0,1,-4,1,2,1,2,1,-2,1,-20,1,128,1,-27,1,-35,1,-24,1
1482,5,1,5,1,0,1,-5,1,3,1,3,1,-2,1,-20,1,136,1,-27,1,-34,1,-24,1
1483,5,1,9,1,4,1,-7,1,1,1,7,1,-2,1,-21,1,144,1,-27,1,-35,1,-25,1
1484,6,1,12,1,6,1,-9,1,0,1,9,1,0,1,-20,1,153,1,-26,1,-33,1,-24,1
1485,4,1,14,1,10,1,-9,1,-3,1,12,1,2,1,-18,1,163,1,-23,1,-30,1,-22,1
1486,1,1,13,1,12,1,-7,1,-5,1,13,1,5,1,-14,1,174,1,-21,1,-27,1,-21,1
1487,-3,1,13,1,16,1,-5,1,-9,1,14,1,9,1,-7,1,189,1,-14,1,-20,1,-15,1
1488,-5,1,15,1,20,1,-5,1,-12,1,17,1,12,1,0,1,204,1,-6,1,-11,1,-6,1
1489,-3,1,19,1,22,1,-8,1,-12,1,20,1,13,1,8,1,222,1,7,1,3,1,9,1
1490,2,1,22,1,20,1,-12,1,-9,1,21,1,14,1,20,1,245,1,27,1,25,1,32,1
1491,9,1,26,1,17,1,-17,1,-4,1,22,1,13,1,38,1,272,1,54,1,54,1,61,1
1492,19,1,29,1,10,1,-24,1,5,1,20,1,12,1,59,1,304,1,88,1,90,1,98,1
1493,31,1,33,1,2,1,-32,1,15,1,18,1,11,1,80,1,336,1,125,1,130,1,140,1
1494,46,1,38,1,-8,1,-42,1,27,1,15,1,6,1,94,1,365,1,161,1,171,1,186,1
1495,63,1,43,1,-20,1,-53,1,42,1,12,1,0,1,104,1,394,1,199,1,218,1,235,1
1496,83,1,47,1,-36,1,-65,1,60,1,6,1,-9,1,111,1,421,1,237,1,264,1,286,1
1497,104,1,50,1,-54,1,-77,1,79,1,-2,1,-21,1,111,1,443,1,269,1,304,1,332,1
1498,123,1,53,1,-70,1,-88,1,97,1,-8,1,-32,1,106,1,458,1,291,1,331,1,366,1
1499,137,1,54,1,-83,1,-95,1,110,1,-14,1,-45,1,92,1,461,1,297,1,335,1,375,1
1500,149,1,51,1,-98,1,-100,1,124,1,-23,1,-56,1,70,1,452,1,285,1,316,1,358,1
1501,159,1,50,1,-109,1,-104,1,134,1,-29,1,-65,1,41,1,435,1,261,1,280,1,321,1
1502,163,1,49,1,-114,1,-106,1,139,1,-32,1,-69,1,6,1,412,1,227,1,235,1,271,1
1503,160,1,47,1,-113,1,-103,1,137,1,-33,1,-74,1,-35,1,381,1,185,1,183,1,214,1
1504,155,1,41,1,-114,1,-98,1,135,1,-36,1,-78,1,-78,1,345,1,135,1,127,1,152,1
1505,152,1,36,1,-116,1,-94,1,134,1,-40,1,-80,1,-120,1,303,1,76,1,65,1,89,1
1506,143,1,27,1,-116,1,-85,1,130,1,-44,1,-84,1,-162,1,255,1,11,1,3,1,29,1
1507,130,1,19,1,-111,1,-74,1,121,1,-46,1,-88,1,-200,1,211,1,-52,1,-54,1,-24,1
1508,111,1,17,1,-94,1,-64,1,103,1,-38,1,-86,1,-230,1,172,1,-110,1,-105,1,-70,1
1509,85,1,19,1,-66,1,-52,1,76,1,-23,1,-80,1,-256,1,138,1,-162,1,-148,1,-111,1
1510,60,1,20,1,-40,1,-40,1,50,1,-10,1,-74,1,-276,1,113,1,-200,1,-178,1,-139,1
1511,40,1,17,1,-23,1,-28,1,32,1,-3,1,-71,1,-291,1,96,1,-224,1,-197,1,-158,1
1512,27,1,12,1,-15,1,-19,1,21,1,-1,1,-70,1,-299,1,87,1,-240,1,-210,1,-170,1
1513,17,1,2,1,-15,1,-9,1,16,1,-6,1,-67,1,-297,1,87,1,-246,1,-216,1,-176,1
1514,11,1,-6,1,-17,1,-2,1,14,1,-11,1,-60,1,-285,1,96,1,-242,1,-215,1,-177,1
1515,7,1,-12,1,-19,1,2,1,13,1,-15,1,-54,1,-267,1,113,1,-230,1,-208,1,-172,1
1516,3,1,-15,1,-18,1,6,1,10,1,-16,1,-49,1,-245,1,136,1,-214,1,-197,1,-163,1
1517,5,1,-11,1,-16,1,3,1,10,1,-13,1,-49,1,-221,1,159,1,-195,1,-183,1,-150,1
1518,6,1,-9,1,-15,1,1,1,10,1,-12,1,-47,1,-195,1,184,1,-176,1,-165,1,-136,1
1519,7,1,-8,1,-15,1,0,1,11,1,-11,1,-44,1,-168,1,210,1,-156,1,-148,1,-120,1
1520,6,1,-6,1,-12,1,0,1,9,1,-9,1,-39,1,-143,1,235,1,-136,1,-130,1,-103,1
1521,6,1,-2,1,-8,1,-2,1,7,1,-5,1,-33,1,-119,1,259,1,-117,1,-114,1,-88,1
1522,8,1,3,1,-5,1,-5,1,7,1,-1,1,-27,1,-99,1,281,1,-99,1,-98,1,-74,1
1523,8,1,3,1,-5,1,-5,1,7,1,-1,1,-20,1,-79,1,303,1,-80,1,-82,1,-60,1
1524,11,1,4,1,-7,1,-7,1,9,1,-1,1,-17,1,-65,1,318,1,-67,1,-72,1,-53,1
1525,13,1,7,1,-6,1,-10,1,10,1,1,1,-14,1,-56,1,331,1,-59,1,-66,1,-49,1
1526,11,1,5,1,-6,1,-8,1,9,1,0,1,-11,1,-48,1,340,1,-54,1,-62,1,-47,1
1527,10,1,1,1,-9,1,-5,1,10,1,-4,1,-8,1,-41,1,349,1,-50,1,-59,1,-45,1
1528,7,1,-1,1,-8,1,-3,1,7,1,-4,1,-5,1,-34,1,358,1,-47,1,-58,1,-43,1
1529,8,1,-2,1,-10,1,-3,1,9,1,-6,1,-2,1,-27,1,366,1,-44,1,-55,1,-40,1
1530,9,1,0,1,-9,1,-4,1,9,1,-4,1,-1,1,-22,1,373,1,-41,1,-53,1,-37,1
1531,11,1,0,1,-11,1,-5,1,11,1,-5,1,0,1,-19,1,380,1,-38,1,-50,1,-34,1
1532,12,1,1,1,-11,1,-6,1,12,1,-5,1,0,1,-16,1,387,1,-35,1,-47,1,-32,1
1533,12,1,2,1,-10,1,-7,1,11,1,-4,1,0,1,-16,1,391,1,-33,1,-45,1,-32,1
1534,11,1,3,1,-8,1,-7,1,10,1,-2,1,0,1,-16,1,396,1,-32,1,-43,1,-31,1
1535,11,1,3,1,-8,1,-7,1,10,1,-2,1,1,1,-15,1,399,1,-31,1,-42,1,-31,1
1536,13,1,6,1,-7,1,-9,1,10,1,0,1,1,1,-14,1,402,1,-31,1,-43,1,-31,1
1537,11,1,4,1,-7,1,-7,1,9,1,-1,1,2,1,-12,1,406,1,-30,1,-44,1,-29,1
1538,9,1,-1,1,-10,1,-4,1,9,1,-5,1,2,1,-10,1,410,1,-30,1,-43,1,-29,1
1539,9,1,-2,1,-11,1,-3,1,10,1,-6,1,2,1,-9,1,414,1,-29,1,-44,1,-27,1
1540,9,1,-2,1,-11,1,-3,1,10,1,-6,1,4,1,-6,1,421,1,-26,1,-42,1,-25,1
1541,10,1,-2,1,-12,1,-4,1,11,1,-7,1,4,1,-4,1,425,1,-25,1,-41,1,-24,1
1542,12,1,-1,1,-13,1,-5,1,12,1,-7,1,3,1,-3,1,429,1,-23,1,-39,1,-23,1
1543,11,1,0,1,-11,1,-5,1,11,1,-5,1,3,1,-3,1,432,1,-22,1,-38,1,-24,1
1544,10,1,0,1,-10,1,-5,1,10,1,-5,1,2,1,-3,1,434,1,-22,1,-38,1,-23,1
1545,9,1,1,1,-8,1,-5,1,9,1,-3,1,2,1,-4,1,435,1,-21,1,-37,1,-23,1
1546,9,1,2,1,-7,1,-5,1,8,1,-2,1,3,1,-5,1,437,1,-21,1,-36,1,-22,1
1547,9,1,5,1,-4,1,-7,1,7,1,1,1,4,1,-5,1,438,1,-21,1,-35,1,-22,1
1548,9,1,2,1,-7,1,-5,1,8,1,-2,1,4,1,-5,1,438,1,-22,1,-37,1,-23,1
1549,9,1,1,1,-8,1,-5,1,9,1,-3,1,4,1,-3,1,437,1,-21,1,-38,1,-23,1
1550,12,1,1,1,-11,1,-6,1,12,1,-5,1,4,1,-1,1,439,1,-20,1,-38,1,-21,1
1551,12,1,1,1,-11,1,-6,1,12,1,-5,1,4,1,0,1,440,1,-20,1,-36,1,-20,1
1552,10,1,0,1,-10,1,-5,1,10,1,-5,1,4,1,0,1,442,1,-19,1,-35,1,-20,1
1553,10,1,-2,1,-12,1,-4,1,11,1,-7,1,4,1,1,1,442,1,-19,1,-34,1,-19,1
1554,10,1,-1,1,-11,1,-4,1,10,1,-6,1,4,1,-1,1,441,1,-19,1,-35,1,-20,1
1555,12,1,0,1,-12,1,-6,1,12,1,-6,1,3,1,-2,1,440,1,-19,1,-34,1,-21,1
1556,12,1,1,1,-11,1,-6,1,12,1,-5,1,3,1,-1,1,439,1,-18,1,-34,1,-21,1
1557,14,1,0,1,-14,1,-7,1,14,1,-7,1,3,1,-1,1,437,1,-18,1,-34,1,-21,1
1558,15,1,1,1,-14,1,-8,1,15,1,-6,1,2,1,0,1,434,1,-18,1,-34,1,-20,1
1559,12,1,0,1,-12,1,-6,1,12,1,-6,1,3,1,1,1,434,1,-17,1,-33,1,-19,1
1560,12,1,0,1,-12,1,-6,1,12,1,-6,1,3,1,1,1,431,1,-18,1,-34,1,-19,1
1561,14,1,2,1,-12,1,-8,1,13,1,-5,1,4,1,1,1,429,1,-17,1,-33,1,-18,1
1562,15,1,5,1,-10,1,-10,1,13,1,-2,1,4,1,3,1,428,1,-17,1,-33,1,-18,1
1563,14,1,3,1,-11,1,-8,1,13,1,-4,1,5,1,3,1,426,1,-16,1,-33,1,-17,1
1564,14,1,1,1,-13,1,-7,1,14,1,-6,1,5,1,5,1,426,1,-13,1,-31,1,-15,1
1565,15,1,0,1,-15,1,-7,1,15,1,-7,1,6,1,6,1,424,1,-12,1,-30,1,-15,1
1566,16,1,0,1,-16,1,-8,1,16,1,-8,1,4,1,7,1,422,1,-11,1,-30,1,-17,1
1567,15,1,-1,1,-16,1,-7,1,15,1,-8,1,4,1,8,1,420,1,-11,1,-29,1,-17,1
1568,15,1,-2,1,-17,1,-6,1,16,1,-9,1,4,1,8,1,418,1,-12,1,-29,1,-16,1
1569,18,1,0,1,-18,1,-9,1,18,1,-9,1,4,1,8,1,417,1,-12,1,-29,1,-16,1
1570,19,1,0,1,-19,1,-9,1,19,1,-9,1,4,1,8,1,417,1,-11,1,-28,1,-15,1
1571,16,1,-3,1,-19,1,-6,1,17,1,-11,1,4,1,9,1,417,1,-10,1,-26,1,-14,1
1572,16,1,-3,1,-19,1,-6,1,17,1,-11,1,4,1,8,1,417,1,-9,1,-27,1,-14,1
1573,16,1,-1,1,-17,1,-7,1,16,1,-9,1,4,1,9,1,417,1,-9,1,-27,1,-14,1
1574,17,1,1,1,-16,1,-9,1,17,1,-7,1,5,1,9,1,416,1,-8,1,-27,1,-14,1
1575,18,1,1,1,-17,1,-9,1,18,1,-8,1,5,1,11,1,415,1,-7,1,-25,1,-13,1
1576,18,1,1,1,-17,1,-9,1,18,1,-8,1,5,1,13,1,414,1,-7,1,-25,1,-13,1
1577,17,1,3,1,-14,1,-10,1,16,1,-5,1,4,1,14,1,412,1,-7,1,-25,1,-13,1
1578,18,1,5,1,-13,1,-11,1,16,1,-4,1,4,1,13,1,409,1,-7,1,-26,1,-13,1
1579,19,1,2,1,-17,1,-10,1,18,1,-7,1,4,1,14,1,408,1,-5,1,-25,1,-12,1
1580,20,1,0,1,-20,1,-10,1,20,1,-10,1,3,1,14,1,408,1,-4,1,-23,1,-11,1
1581,19,1,-1,1,-20,1,-9,1,19,1,-10,1,2,1,16,1,407,1,-3,1,-22,1,-10,1
1582,20,1,-1,1,-21,1,-9,1,20,1,-11,1,2,1,16,1,406,1,-3,1,-23,1,-11,1
1583,22,1,2,1,-20,1,-12,1,21,1,-9,1,1,1,17,1,406,1,-3,1,-24,1,-11,1
1584,27,1,9,1,-18,1,-18,1,23,1,-4,1,1,1,19,1,405,1,0,1,-22,1,-9,1
1585,28,1,10,1,-18,1,-19,1,23,1,-4,1,4,1,21,1,405,1,2,1,-20,1,-6,1
1586,26,1,5,1,-21,1,-15,1,24,1,-8,1,4,1,22,1,403,1,3,1,-19,1,-5,1
1587,26,1,2,1,-24,1,-14,1,25,1,-11,1,4,1,24,1,401,1,4,1,-18,1,-4,1
1588,27,1,3,1,-24,1,-15,1,26,1,-10,1,3,1,24,1,399,1,5,1,-18,1,-3,1
1589,28,1,4,1,-24,1,-16,1,26,1,-10,1,1,1,24,1,396,1,5,1,-18,1,-3,1
1590,28,1,2,1,-26,1,-15,1,27,1,-12,1,1,1,26,1,395,1,7,1,-16,1,-1,1
1591,28,1,1,1,-27,1,-14,1,28,1,-13,1,2,1,28,1,395,1,9,1,-13,1,0,1
1592,29,1,2,1,-27,1,-15,1,28,1,-12,1,1,1,30,1,395,1,11,1,-12,1,1,1
1593,31,1,3,1,-28,1,-17,1,30,1,-12,1,0,1,32,1,393,1,12,1,-12,1,1,1
1594,32,1,4,1,-28,1,-18,1,30,1,-12,1,0,1,34,1,391,1,13,1,-11,1,2,1
1595,33,1,5,1,-28,1,-19,1,31,1,-11,1,0,1,36,1,391,1,15,1,-10,1,3,1
1596,34,1,5,1,-29,1,-19,1,32,1,-12,1,-1,1,38,1,390,1,17,1,-9,1,5,1
1597,35,1,4,1,-31,1,-19,1,33,1,-13,1,0,1,40,1,388,1,20,1,-6,1,8,1
1598,33,1,3,1,-30,1,-18,1,32,1,-13,1,0,1,42,1,387,1,22,1,-4,1,10,1
1599,35,1,3,1,-32,1,-19,1,34,1,-14,1,-1,1,43,1,387,1,24,1,-3,1,11,1
1600,37,1,3,1,-34,1,-20,1,36,1,-15,1,-2,1,44,1,387,1,25,1,-2,1,12,1
1601,39,1,4,1,-35,1,-21,1,37,1,-15,1,0,1,49,1,389,1,29,1,1,1,15,1
1602,40,1,5,1,-35,1,-22,1,38,1,-15,1,0,1,52,1,390,1,31,1,4,1,15,1
1603,43,1,8,1,-35,1,-25,1,39,1,-13,1,0,1,56,1,389,1,35,1,5,1,16,1
1604,46,1,11,1,-35,1,-28,1,41,1,-12,1,0,1,59,1,390,1,38,1,7,1,18,1
1605,44,1,9,1,-35,1,-26,1,40,1,-13,1,-2,1,61,1,390,1,40,1,7,1,18,1
1606,44,1,8,1,-36,1,-26,1,40,1,-14,1,-3,1,63,1,391,1,42,1,8,1,18,1
1607,46,1,10,1,-36,1,-28,1,41,1,-13,1,-4,1,65,1,393,1,45,1,11,1,19,1
1608,45,1,9,1,-36,1,-27,1,41,1,-13,1,-4,1,68,1,396,1,48,1,13,1,22,1
1609,48,1,9,1,-39,1,-28,1,44,1,-15,1,-4,1,71,1,399,1,51,1,16,1,24,1
1610,51,1,10,1,-41,1,-30,1,46,1,-15,1,-4,1,73,1,400,1,53,1,18,1,27,1
1611,50,1,11,1,-39,1,-30,1,45,1,-14,1,-4,1,76,1,403,1,55,1,21,1,29,1
1612,52,1,12,1,-40,1,-32,1,46,1,-14,1,-4,1,80,1,406,1,58,1,24,1,31,1
1613,55,1,12,1,-43,1,-33,1,49,1,-15,1,-4,1,85,1,408,1,62,1,27,1,34,1
1614,54,1,9,1,-45,1,-31,1,50,1,-18,1,-4,1,88,1,409,1,65,1,29,1,36,1
1615,54,1,10,1,-44,1,-32,1,49,1,-17,1,-5,1,90,1,409,1,68,1,30,1,37,1
1616,55,1,10,1,-45,1,-32,1,50,1,-17,1,-5,1,94,1,411,1,73,1,33,1,40,1
1617,59,1,9,1,-50,1,-34,1,55,1,-20,1,-6,1,96,1,413,1,76,1,35,1,42,1
1618,59,1,9,1,-50,1,-34,1,55,1,-20,1,-6,1,98,1,413,1,78,1,38,1,43,1
1619,61,1,11,1,-50,1,-36,1,56,1,-19,1,-7,1,100,1,412,1,79,1,40,1,44,1
1620,62,1,14,1,-48,1,-38,1,55,1,-17,1,-7,1,101,1,411,1,81,1,42,1,46,1
1621,64,1,16,1,-48,1,-40,1,56,1,-16,1,-7,1,103,1,412,1,83,1,44,1,48,1
1622,63,1,16,1,-47,1,-39,1,55,1,-15,1,-8,1,104,1,411,1,85,1,45,1,49,1
1623,62,1,13,1,-49,1,-37,1,56,1,-18,1,-9,1,105,1,410,1,86,1,45,1,49,1
1624,63,1,11,1,-52,1,-37,1,58,1,-20,1,-8,1,107,1,409,1,88,1,47,1,50,1
1625,66,1,12,1,-54,1,-39,1,60,1,-21,1,-6,1,110,1,408,1,91,1,49,1,51,1
1626,65,1,12,1,-53,1,-38,1,59,1,-20,1,-7,1,110,1,405,1,92,1,49,1,51,1
1627,65,1,14,1,-51,1,-39,1,58,1,-18,1,-7,1,109,1,402,1,92,1,48,1,48,1
1628,64,1,15,1,-49,1,-39,1,57,1,-17,1,-8,1,108,1,398,1,92,1,47,1,48,1
1629,64,1,15,1,-49,1,-39,1,57,1,-17,1,-8,1,107,1,396,1,92,1,47,1,48,1
1630,65,1,17,1,-48,1,-41,1,57,1,-15,1,-8,1,107,1,394,1,92,1,48,1,48,1
1631,66,1,20,1,-46,1,-43,1,56,1,-13,1,-9,1,106,1,391,1,91,1,47,1,48,1
1632,65,1,20,1,-45,1,-42,1,55,1,-12,1,-8,1,105,1,388,1,91,1,47,1,49,1
1633,63,1,15,1,-48,1,-39,1,56,1,-16,1,-7,1,104,1,384,1,91,1,48,1,50,1
1634,60,1,12,1,-48,1,-36,1,54,1,-18,1,-8,1,102,1,379,1,89,1,47,1,48,1
1635,59,1,12,1,-47,1,-35,1,53,1,-17,1,-7,1,101,1,373,1,87,1,46,1,46,1
1636,59,1,13,1,-46,1,-36,1,53,1,-16,1,-7,1,99,1,368,1,85,1,45,1,45,1
1637,58,1,11,1,-47,1,-34,1,53,1,-18,1,-6,1,95,1,362,1,83,1,43,1,43,1
1638,56,1,11,1,-45,1,-33,1,51,1,-17,1,-6,1,92,1,356,1,81,1,41,1,42,1
1639,56,1,10,1,-46,1,-33,1,51,1,-18,1,-5,1,88,1,350,1,78,1,38,1,41,1
1640,54,1,11,1,-43,1,-32,1,49,1,-16,1,-5,1,84,1,344,1,74,1,35,1,40,1
1641,53,1,12,1,-41,1,-32,1,47,1,-14,1,-4,1,80,1,338,1,70,1,33,1,38,1
1642,52,1,15,1,-37,1,-33,1,45,1,-11,1,-4,1,76,1,332,1,66,1,31,1,36,1
1643,49,1,17,1,-32,1,-33,1,41,1,-7,1,-4,1,72,1,326,1,62,1,28,1,34,1
1644,43,1,14,1,-29,1,-28,1,36,1,-7,1,-4,1,66,1,317,1,57,1,24,1,30,1
1645,41,1,11,1,-30,1,-26,1,36,1,-9,1,-5,1,60,1,309,1,53,1,20,1,26,1
1646,38,1,9,1,-29,1,-23,1,34,1,-10,1,-4,1,55,1,302,1,50,1,17,1,24,1
1647,36,1,9,1,-27,1,-22,1,32,1,-9,1,-2,1,50,1,295,1,47,1,15,1,21,1
1648,33,1,6,1,-27,1,-19,1,30,1,-10,1,0,1,46,1,289,1,43,1,13,1,21,1
1649,31,1,4,1,-27,1,-17,1,29,1,-11,1,0,1,42,1,283,1,39,1,11,1,19,1
1650,31,1,5,1,-26,1,-18,1,29,1,-10,1,0,1,38,1,277,1,34,1,7,1,16,1
1651,32,1,7,1,-25,1,-19,1,29,1,-9,1,0,1,34,1,271,1,30,1,4,1,13,1
1652,31,1,8,1,-23,1,-19,1,27,1,-7,1,1,1,30,1,266,1,27,1,3,1,12,1
1653,27,1,7,1,-20,1,-17,1,24,1,-6,1,1,1,27,1,260,1,23,1,1,1,10,1
1654,24,1,4,1,-20,1,-14,1,22,1,-8,1,1,1,24,1,255,1,21,1,-1,1,8,1
1655,20,1,0,1,-20,1,-10,1,20,1,-10,1,2,1,22,1,250,1,19,1,-2,1,7,1
1656,18,1,1,1,-17,1,-9,1,18,1,-8,1,2,1,19,1,244,1,17,1,-6,1,5,1
1657,16,1,2,1,-14,1,-9,1,15,1,-6,1,2,1,15,1,239,1,13,1,-8,1,3,1
1658,14,1,0,1,-14,1,-7,1,14,1,-7,1,4,1,12,1,234,1,11,1,-9,1,2,1
1659,15,1,1,1,-14,1,-8,1,15,1,-6,1,4,1,8,1,229,1,8,1,-11,1,0,1
1660,18,1,3,1,-15,1,-10,1,17,1,-6,1,5,1,6,1,224,1,4,1,-13,1,-3,1
1661,17,1,4,1,-13,1,-10,1,15,1,-4,1,5,1,3,1,220,1,1,1,-15,1,-5,1
1662,14,1,3,1,-11,1,-8,1,13,1,-4,1,6,1,2,1,216,1,-1,1,-16,1,-6,1
1663,11,1,1,1,-10,1,-6,1,11,1,-4,1,5,1,1,1,213,1,-2,1,-17,1,-7,1
1664,8,1,-2,1,-10,1,-3,1,9,1,-6,1,5,1,1,1,211,1,-3,1,-17,1,-7,1
1665,6,1,-3,1,-9,1,-1,1,7,1,-6,1,5,1,0,1,207,1,-3,1,-18,1,-7,1
1666,6,1,-1,1,-7,1,-2,1,6,1,-4,1,4,1,-1,1,202,1,-5,1,-20,1,-8,1
1667,6,1,1,1,-5,1,-3,1,6,1,-2,1,4,1,-3,1,198,1,-6,1,-21,1,-8,1
1668,5,1,0,1,-5,1,-2,1,5,1,-2,1,5,1,-3,1,195,1,-6,1,-21,1,-8,1
1669,4,1,-1,1,-5,1,-1,1,4,1,-3,1,5,1,-3,1,192,1,-7,1,-22,1,-9,1
1670,4,1,0,1,-4,1,-2,1,4,1,-2,1,5,1,-5,1,189,1,-8,1,-23,1,-11,1
1671,3,1,-2,1,-5,1,0,1,4,1,-3,1,6,1,-5,1,186,1,-9,1,-23,1,-11,1
1672,0,1,-3,1,-3,1,1,1,1,1,-3,1,7,1,-5,1,184,1,-9,1,-23,1,-11,1
1673,0,1,-5,1,-5,1,2,1,2,1,-5,1,7,1,-6,1,180,1,-11,1,-25,1,-12,1
1674,1,1,-6,1,-7,1,2,1,4,1,-6,1,7,1,-7,1,176,1,-12,1,-27,1,-12,1
1675,2,1,-5,1,-7,1,1,1,4,1,-6,1,8,1,-7,1,175,1,-11,1,-27,1,-11,1
1676,3,1,-1,1,-4,1,-1,1,3,1,-2,1,8,1,-7,1,173,1,-12,1,-27,1,-11,1
1677,2,1,-1,1,-3,1,0,1,2,1,-2,1,8,1,-7,1,171,1,-12,1,-27,1,-11,1
1678,3,1,-1,1,-4,1,-1,1,3,1,-2,1,7,1,-8,1,168,1,-12,1,-28,1,-12,1
1679,3,1,0,1,-3,1,-1,1,3,1,-1,1,7,1,-9,1,164,1,-13,1,-29,1,-13,1
1680,3,1,0,1,-3,1,-1,1,3,1,-1,1,8,1,-9,1,163,1,-13,1,-29,1,-13,1
1681,1,1,0,1,-1,1,0,1,1,1,0,1,8,1,-8,1,161,1,-13,1,-28,1,-13,1
1682,1,1,0,1,-1,1,0,1,1,1,0,1,7,1,-8,1,160,1,-13,1,-27,1,-13,1
1683,1,1,-3,1,-4,1,1,1,2,1,-3,1,6,1,-9,1,156,1,-14,1,-27,1,-14,1
1684,2,1,-2,1,-4,1,0,1,3,1,-3,1,7,1,-8,1,154,1,-13,1,-27,1,-14,1
1685,2,1,0,1,-2,1,-1,1,2,1,-1,1,7,1,-8,1,152,1,-14,1,-27,1,-14,1
1686,0,1,-1,1,-1,1,0,1,0,1,-1,1,7,1,-8,1,150,1,-14,1,-27,1,-14,1
1687,-1,1,-1,1,0,1,1,1,-1,1,-1,1,9,1,-8,1,149,1,-12,1,-27,1,-13,1
1688,-1,1,-1,1,0,1,1,1,-1,1,-1,1,9,1,-8,1,147,1,-12,1,-27,1,-13,1
1689,-2,1,-2,1,0,1,2,1,-1,1,-1,1,9,1,-9,1,145,1,-13,1,-27,1,-14,1
1690,-1,1,-1,1,0,1,1,1,-1,1,-1,1,8,1,-10,1,143,1,-13,1,-27,1,-14,1
1691,-2,1,-1,1,1,1,1,1,-2,1,0,1,8,1,-9,1,141,1,-14,1,-28,1,-14,1
1692,-3,1,-2,1,1,1,2,1,-2,1,-1,1,9,1,-9,1,138,1,-14,1,-28,1,-15,1
1693,-2,1,-4,1,-2,1,3,1,0,1,-3,1,9,1,-10,1,135,1,-15,1,-30,1,-16,1
1694,-2,1,-3,1,-1,1,2,1,-1,1,-2,1,8,1,-10,1,131,1,-16,1,-31,1,-17,1
1695,-2,1,0,1,2,1,1,1,-2,1,1,1,8,1,-10,1,128,1,-16,1,-30,1,-17,1
1696,-3,1,-2,1,1,1,2,1,-2,1,-1,1,8,1,-10,1,126,1,-15,1,-30,1,-16,1
1697,-3,1,-1,1,2,1,2,1,-3,1,0,1,8,1,-10,1,124,1,-15,1,-30,1,-16,1
1698,-2,1,-1,1,1,1,1,1,-2,1,0,1,9,1,-10,1,122,1,-15,1,-29,1,-15,1
1699,-4,1,-2,1,2,1,3,1,-3,1,0,1,9,1,-10,1,120,1,-15,1,-29,1,-15,1
1700,-3,1,-2,1,1,1,2,1,-2,1,-1,1,8,1,-9,1,118,1,-15,1,-29,1,-15,1
1701,-4,1,-4,1,0,1,4,1,-2,1,-2,1,8,1,-9,1,115,1,-15,1,-29,1,-15,1
1702,-5,1,-5,1,0,1,5,1,-3,1,-3,1,8,1,-8,1,113,1,-15,1,-27,1,-15,1
1703,-5,1,-5,1,0,1,5,1,-3,1,-3,1,9,1,-8,1,110,1,-15,1,-27,1,-14,1
1704,-5,1,-3,1,2,1,4,1,-4,1,-1,1,9,1,-7,1,109,1,-15,1,-27,1,-14,1
1705,-4,1,-3,1,1,1,3,1,-3,1,-1,1,9,1,-6,1,106,1,-14,1,-27,1,-14,1
1706,-3,1,-4,1,-1,1,3,1,-1,1,-3,1,9,1,-6,1,105,1,-14,1,-27,1,-14,1
1707,-3,1,-2,1,1,1,2,1,-2,1,-1,1,8,1,-6,1,103,1,-15,1,-28,1,-14,1
1708,-5,1,-3,1,2,1,4,1,-4,1,-1,1,8,1,-6,1,102,1,-14,1,-27,1,-13,1
1709,-5,1,-6,1,-1,1,5,1,-2,1,-4,1,9,1,-5,1,100,1,-13,1,-26,1,-13,1
1710,-6,1,-6,1,0,1,6,1,-3,1,-3,1,9,1,-5,1,99,1,-13,1,-24,1,-11,1
1711,-5,1,-5,1,0,1,5,1,-3,1,-3,1,10,1,-5,1,97,1,-13,1,-24,1,-10,1
1712,-4,1,-3,1,1,1,3,1,-3,1,-1,1,9,1,-5,1,93,1,-14,1,-24,1,-11,1
1713,-3,1,-2,1,1,1,2,1,-2,1,-1,1,8,1,-6,1,90,1,-15,1,-24,1,-12,1
1714,-4,1,-2,1,2,1,3,1,-3,1,0,1,9,1,-6,1,88,1,-15,1,-24,1,-11,1
1715,-4,1,-3,1,1,1,3,1,-3,1,-1,1,9,1,-6,1,87,1,-15,1,-23,1,-11,1
1716,-5,1,-2,1,3,1,3,1,-4,1,0,1,8,1,-6,1,85,1,-15,1,-23,1,-11,1
1717,-5,1,-2,1,3,1,3,1,-4,1,0,1,8,1,-7,1,84,1,-15,1,-23,1,-10,1
1718,-4,1,-2,1,2,1,3,1,-3,1,0,1,8,1,-6,1,83,1,-14,1,-21,1,-9,1
1719,-5,1,-2,1,3,1,3,1,-4,1,0,1,9,1,-4,1,83,1,-13,1,-20,1,-7,1
1720,-6,1,-1,1,5,1,3,1,-6,1,2,1,10,1,-5,1,82,1,-13,1,-20,1,-7,1
1721,-5,1,-1,1,4,1,3,1,-5,1,1,1,10,1,-5,1,80,1,-12,1,-20,1,-7,1
1722,-5,1,-1,1,4,1,3,1,-5,1,1,1,10,1,-5,1,80,1,-11,1,-20,1,-7,1
1723,-5,1,0,1,5,1,2,1,-5,1,2,1,9,1,-5,1,78,1,-11,1,-19,1,-7,1
1724,-4,1,0,1,4,1,2,1,-4,1,2,1,8,1,-4,1,76,1,-10,1,-19,1,-7,1
1725,-5,1,0,1,5,1,2,1,-5,1,2,1,9,1,-4,1,75,1,-10,1,-19,1,-7,1
1726,-6,1,0,1,6,1,3,1,-6,1,3,1,9,1,-4,1,73,1,-11,1,-19,1,-7,1
1727,-5,1,-1,1,4,1,3,1,-5,1,1,1,8,1,-4,1,71,1,-11,1,-19,1,-7,1
1728,-5,1,-1,1,4,1,3,1,-5,1,1,1,7,1,-4,1,69,1,-11,1,-20,1,-8,1
1729,-4,1,-1,1,3,1,2,1,-4,1,1,1,6,1,-4,1,68,1,-11,1,-19,1,-8,1
1730,-3,1,-1,1,2,1,2,1,-3,1,0,1,6,1,-4,1,67,1,-11,1,-18,1,-8,1
1731,-4,1,0,1,4,1,2,1,-4,1,2,1,7,1,-5,1,66,1,-11,1,-17,1,-9,1
1732,-3,1,1,1,4,1,1,1,-3,1,2,1,8,1,-4,1,66,1,-10,1,-17,1,-7,1
1733,-2,1,3,1,5,1,0,1,-3,1,4,1,9,1,-4,1,66,1,-10,1,-16,1,-5,1
1734,-5,1,1,1,6,1,2,1,-5,1,3,1,9,1,-4,1,65,1,-10,1,-16,1,-5,1
1735,-6,1,1,1,7,1,2,1,-6,1,4,1,8,1,-4,1,64,1,-10,1,-17,1,-4,1
1736,-7,1,2,1,9,1,2,1,-8,1,5,1,7,1,-4,1,62,1,-10,1,-17,1,-4,1
1737,-8,1,1,1,9,1,3,1,-8,1,5,1,6,1,-6,1,59,1,-11,1,-18,1,-4,1
1738,-8,1,0,1,8,1,4,1,-8,1,4,1,5,1,-6,1,59,1,-9,1,-15,1,-4,1
1739,-7,1,0,1,7,1,3,1,-7,1,3,1,6,1,-6,1,58,1,-9,1,-15,1,-4,1
1740,-5,1,2,1,7,1,1,1,-6,1,4,1,6,1,-5,1,58,1,-9,1,-15,1,-5,1
1741,-4,1,3,1,7,1,0,1,-5,1,5,1,6,1,-5,1,57,1,-8,1,-15,1,-5,1
1742,-4,1,2,1,6,1,1,1,-5,1,4,1,7,1,-5,1,56,1,-9,1,-15,1,-5,1
1743,-5,1,3,1,8,1,1,1,-6,1,5,1,7,1,-5,1,55,1,-9,1,-16,1,-5,1
1744,-8,1,2,1,10,1,3,1,-9,1,6,1,8,1,-5,1,53,1,-9,1,-16,1,-4,1
1745,-10,1,2,1,12,1,4,1,-11,1,7,1,8,1,-5,1,52,1,-9,1,-17,1,-4,1
1746,-9,1,2,1,11,1,3,1,-10,1,6,1,7,1,-5,1,50,1,-9,1,-16,1,-4,1
1747,-7,1,3,1,10,1,2,1,-8,1,6,1,7,1,-6,1,48,1,-9,1,-17,1,-4,1
1748,-6,1,1,1,7,1,2,1,-6,1,4,1,7,1,-5,1,47,1,-9,1,-16,1,-3,1
1749,-5,1,1,1,6,1,2,1,-5,1,3,1,7,1,-5,1,46,1,-9,1,-16,1,-3,1
1750,-3,1,2,1,5,1,0,1,-4,1,3,1,7,1,-4,1,45,1,-9,1,-15,1,-3,1
1751,-3,1,3,1,6,1,0,1,-4,1,4,1,8,1,-5,1,44,1,-9,1,-16,1,-4,1
1752,-4,1,1,1,5,1,1,1,-4,1,3,1,7,1,-5,1,42,1,-10,1,-17,1,-4,1
1753,-8,1,-1,1,7,1,4,1,-8,1,3,1,8,1,-6,1,41,1,-9,1,-16,1,-4,1
1754,-10,1,-2,1,8,1,6,1,-9,1,3,1,7,1,-6,1,40,1,-9,1,-16,1,-4,1
1755,-9,1,0,1,9,1,4,1,-9,1,4,1,7,1,-6,1,38,1,-9,1,-17,1,-5,1
1756,-9,1,0,1,9,1,4,1,-9,1,4,1,7,1,-6,1,37,1,-9,1,-18,1,-4,1
1757,-8,1,2,1,10,1,3,1,-9,1,6,1,6,1,-6,1,36,1,-10,1,-18,1,-5,1
1758,-7,1,0,1,7,1,3,1,-7,1,3,1,6,1,-6,1,35,1,-9,1,-18,1,-4,1
1759,-7,1,-1,1,6,1,4,1,-7,1,2,1,6,1,-5,1,33,1,-10,1,-17,1,-4,1
1760,-6,1,0,1,6,1,3,1,-6,1,3,1,6,1,-5,1,31,1,-11,1,-18,1,-5,1
1761,-8,1,0,1,8,1,4,1,-8,1,4,1,7,1,-5,1,30,1,-11,1,-17,1,-5,1
1762,-11,1,-2,1,9,1,6,1,-10,1,3,1,9,1,-4,1,29,1,-11,1,-16,1,-5,1
1763,-8,1,-3,1,5,1,5,1,-7,1,1,1,8,1,-6,1,26,1,-12,1,-18,1,-6,1
1764,-8,1,-3,1,5,1,5,1,-7,1,1,1,8,1,-7,1,24,1,-12,1,-19,1,-7,1
1765,-9,1,-2,1,7,1,5,1,-8,1,2,1,9,1,-7,1,23,1,-12,1,-18,1,-5,1
1766,-9,1,-1,1,8,1,5,1,-9,1,3,1,8,1,-8,1,22,1,-12,1,-18,1,-6,1
1767,-10,1,-1,1,9,1,5,1,-10,1,4,1,7,1,-7,1,20,1,-12,1,-18,1,-5,1
1768,-9,1,0,1,9,1,4,1,-9,1,4,1,7,1,-7,1,18,1,-12,1,-19,1,-5,1
1769,-8,1,1,1,9,1,3,1,-8,1,5,1,8,1,-5,1,17,1,-11,1,-17,1,-5,1
1770,-7,1,0,1,7,1,3,1,-7,1,3,1,8,1,-5,1,16,1,-11,1,-17,1,-5,1
1771,-7,1,1,1,8,1,3,1,-7,1,4,1,7,1,-6,1,14,1,-12,1,-18,1,-7,1
1772,-9,1,0,1,9,1,4,1,-9,1,4,1,6,1,-6,1,12,1,-12,1,-19,1,-8,1
1773,-11,1,-3,1,8,1,7,1,-10,1,2,1,4,1,-7,1,9,1,-13,1,-20,1,-9,1
1774,-9,1,-1,1,8,1,5,1,-9,1,3,1,4,1,-7,1,8,1,-14,1,-21,1,-8,1
1775,-11,1,2,1,13,1,4,1,-12,1,7,1,5,1,-7,1,7,1,-14,1,-20,1,-8,1
1776,-11,1,3,1,14,1,4,1,-12,1,8,1,5,1,-8,1,5,1,-14,1,-20,1,-8,1
1777,-10,1,2,1,12,1,4,1,-11,1,7,1,7,1,-8,1,3,1,-13,1,-18,1,-6,1
1778,-10,1,1,1,11,1,4,1,-10,1,6,1,7,1,-8,1,2,1,-13,1,-19,1,-6,1
1779,-12,1,-2,1,10,1,7,1,-11,1,4,1,7,1,-9,1,0,1,-14,1,-19,1,-7,1
1780,-11,1,-3,1,8,1,7,1,-10,1,2,1,8,1,-8,1,0,1,-14,1,-18,1,-6,1
1781,-10,1,-3,1,7,1,6,1,-9,1,2,1,8,1,-8,1,-2,1,-14,1,-19,1,-8,1
1782,-10,1,-4,1,6,1,7,1,-8,1,1,1,7,1,-7,1,-2,1,-14,1,-19,1,-9,1
1783,-11,1,-6,1,5,1,8,1,-8,1,-1,1,6,1,-8,1,-4,1,-14,1,-20,1,-10,1
1784,-12,1,-5,1,7,1,8,1,-10,1,1,1,7,1,-7,1,-5,1,-15,1,-20,1,-11,1
1785,-12,1,-2,1,10,1,7,1,-11,1,4,1,7,1,-7,1,-6,1,-15,1,-20,1,-11,1
1786,-12,1,-1,1,11,1,6,1,-12,1,5,1,7,1,-8,1,-7,1,-15,1,-20,1,-11,1
1787,-12,1,0,1,12,1,6,1,-12,1,6,1,7,1,-10,1,-8,1,-15,1,-21,1,-11,1
1788,-12,1,0,1,12,1,6,1,-12,1,6,1,8,1,-10,1,-9,1,-15,1,-20,1,-11,1
1789,-12,1,0,1,12,1,6,1,-12,1,6,1,9,1,-10,1,-9,1,-15,1,-20,1,-10,1
1790,-12,1,-2,1,10,1,7,1,-11,1,4,1,9,1,-10,1,-9,1,-16,1,-20,1,-10,1
1791,-12,1,-3,1,9,1,7,1,-11,1,3,1,8,1,-10,1,-9,1,-16,1,-21,1,-11,1
1792,-13,1,-4,1,9,1,8,1,-11,1,2,1,9,1,-8,1,-7,1,-14,1,-20,1,-10,1
1793,-15,1,-4,1,11,1,9,1,-13,1,3,1,9,1,-7,1,-7,1,-14,1,-18,1,-10,1
1794,-14,1,-2,1,12,1,8,1,-13,1,5,1,8,1,-6,1,-6,1,-14,1,-19,1,-10,1
1795,-14,1,-2,1,12,1,8,1,-13,1,5,1,8,1,-6,1,-6,1,-13,1,-18,1,-10,1
1796,-13,1,-1,1,12,1,7,1,-13,1,5,1,8,1,-6,1,-5,1,-13,1,-18,1,-10,1
1797,-13,1,-2,1,11,1,7,1,-12,1,4,1,8,1,-6,1,-5,1,-14,1,-18,1,-10,1
1798,-12,1,-2,1,10,1,7,1,-11,1,4,1,7,1,-7,1,-5,1,-14,1,-18,1,-10,1
1799,-13,1,-4,1,9,1,8,1,-11,1,2,1,7,1,-8,1,-6,1,-14,1,-18,1,-10,1
1800,-14,1,-5,1,9,1,9,1,-12,1,2,1,8,1,-7,1,-7,1,-14,1,-18,1,-9,1
1801,-13,1,-4,1,9,1,8,1,-11,1,2,1,9,1,-7,1,-8,1,-14,1,-19,1,-9,1
1802,-15,1,-2,1,13,1,8,1,-14,1,5,1,9,1,-8,1,-10,1,-15,1,-18,1,-10,1
1803,-16,1,-2,1,14,1,9,1,-15,1,6,1,9,1,-8,1,-10,1,-15,1,-18,1,-9,1
1804,-17,1,-3,1,14,1,10,1,-16,1,5,1,9,1,-7,1,-10,1,-14,1,-17,1,-9,1
1805,-17,1,-4,1,13,1,10,1,-15,1,4,1,9,1,-6,1,-9,1,-14,1,-17,1,-9,1
1806,-16,1,-3,1,13,1,9,1,-15,1,5,1,7,1,-8,1,-10,1,-14,1,-18,1,-10,1
1807,-14,1,-1,1,13,1,7,1,-14,1,6,1,7,1,-8,1,-12,1,-14,1,-17,1,-10,1
1808,-14,1,-2,1,12,1,8,1,-13,1,5,1,7,1,-8,1,-13,1,-16,1,-18,1,-10,1
1809,-14,1,-3,1,11,1,8,1,-13,1,4,1,7,1,-8,1,-15,1,-17,1,-19,1,-11,1
1810,-11,1,-2,1,9,1,6,1,-10,1,3,1,8,1,-7,1,-16,1,-16,1,-17,1,-10,1
